# energy grid [eV]     epsr_x  epsr_y  epsr_z
#
    0.200000000   11.487017592   11.553839156    3.520147630
    0.207178631   11.489531323   11.556137968    3.520578203
    0.214357262   11.492135425   11.558519096    3.521024197
    0.221535893   11.494830081   11.560982672    3.521485639
    0.228714524   11.497615485   11.563528833    3.521962555
    0.235893155   11.500491837   11.566157723    3.522454973
    0.243071786   11.503459344   11.568869489    3.522962922
    0.250250417   11.506518221   11.571664285    3.523486430
    0.257429048   11.509668689   11.574542267    3.524025528
    0.264607679   11.512910980   11.577503598    3.524580248
    0.271786311   11.516245331   11.580548447    3.525150623
    0.278964942   11.519671989   11.583676988    3.525736686
    0.286143573   11.523191209   11.586889397    3.526338473
    0.293322204   11.526803252   11.590185861    3.526956018
    0.300500835   11.530508390   11.593566567    3.527589359
    0.307679466   11.534306904   11.597031710    3.528238535
    0.314858097   11.538199082   11.600581492    3.528903584
    0.322036728   11.542185223   11.604216117    3.529584548
    0.329215359   11.546265634   11.607935798    3.530281467
    0.336393990   11.550440632   11.611740752    3.530994386
    0.343572621   11.554710544   11.615631202    3.531723348
    0.350751252   11.559075707   11.619607377    3.532468398
    0.357929883   11.563536468   11.623669514    3.533229585
    0.365108514   11.568093185   11.627817853    3.534006956
    0.372287145   11.572746228   11.632052641    3.534800560
    0.379465776   11.577495975   11.636374134    3.535610449
    0.386644407   11.582342819   11.640782592    3.536436676
    0.393823038   11.587287164   11.645278281    3.537279294
    0.401001669   11.592329425   11.649861476    3.538138359
    0.408180301   11.597470032   11.654532458    3.539013928
    0.415358932   11.602709426   11.659291513    3.539906060
    0.422537563   11.608048063   11.664138939    3.540814816
    0.429716194   11.613486414   11.669075036    3.541740257
    0.436894825   11.619024963   11.674100114    3.542682448
    0.444073456   11.624664211   11.679214492    3.543641455
    0.451252087   11.630404673   11.684418495    3.544617345
    0.458430718   11.636246883   11.689712457    3.545610188
    0.465609349   11.642191392   11.695096719    3.546620057
    0.472787980   11.648238767   11.700571632    3.547647025
    0.479966611   11.654389598   11.706137556    3.548691168
    0.487145242   11.660644491   11.711794860    3.549752565
    0.494323873   11.667004075   11.717543922    3.550831296
    0.501502504   11.673469002   11.723385129    3.551927447
    0.508681135   11.680039945   11.729318880    3.553041101
    0.515859766   11.686717604   11.735345584    3.554172349
    0.523038397   11.693502703   11.741465659    3.555321283
    0.530217028   11.700395994   11.747679538    3.556487996
    0.537395659   11.707398258   11.753987662    3.557672588
    0.544574290   11.714510307   11.760390487    3.558875159
    0.551752922   11.721732985   11.766888482    3.560095815
    0.558931553   11.729067174   11.773482126    3.561334664
    0.566110184   11.736513789   11.780171917    3.562591819
    0.573288815   11.744073786   11.786958365    3.563867396
    0.580467446   11.751748167   11.793841996    3.565161518
    0.587646077   11.759537975   11.800823354    3.566474310
    0.594824708   11.767444305   11.807902999    3.567805904
    0.602003339   11.775468304   11.815081511    3.569156437
    0.609181970   11.783611177   11.822359488    3.570526049
    0.616360601   11.791874191   11.829737551    3.571914892
    0.623539232   11.800258677   11.837216342    3.573323119
    0.630717863   11.808766044   11.844796529    3.574750894
    0.637896494   11.817397777   11.852478804    3.576198387
    0.645075125   11.826155447   11.860263888    3.577665777
    0.652253756   11.835040721   11.868152532    3.579153253
    0.659432387   11.844055370   11.876145518    3.580661011
    0.666611018   11.853201280   11.884243666    3.582189262
    0.673789649   11.862480459   11.892447832    3.583738225
    0.680968280   11.871895058   11.900758916    3.585308136
    0.688146912   11.881447379   11.909177864    3.586899243
    0.695325543   11.891139897   11.917705670    3.588511809
    0.702504174   11.900975276   11.926343388    3.590146118
    0.709682805   11.910956395   11.935092130    3.591802470
    0.716861436   11.921086368   11.943953079    3.593481188
    0.724040067   11.931368580   11.952927495    3.595182620
    0.731218698   11.941806718   11.962016722    3.596907141
    0.738397329   11.952404813   11.971222202    3.598655156
    0.745575960   11.963167283   11.980545485    3.600427105
    0.752754591   11.974098992   11.989988245    3.602223468
    0.759933222   11.985205311   11.999552296    3.604044770
    0.767111853   11.996492197   12.009239613    3.605891586
    0.774290484   12.007966283   12.019052354    3.607764551
    0.781469115   12.019634982   12.028992893    3.609664367
    0.788647746   12.031506622   12.039063849    3.611591818
    0.795826377   12.043590599   12.049268129    3.613547777
    0.803005008   12.055897569   12.059608980    3.615533227
    0.810183639   12.068439675   12.070090048    3.617549279
    0.817362270   12.081230840   12.080715453    3.619597196
    0.824540902   12.094287109   12.091489884    3.621678421
    0.831719533   12.107627100   12.102418711    3.623794617
    0.838898164   12.121272549   12.113508136    3.625947711
    0.846076795   12.135249013   12.124765372    3.628139953
    0.853255426   12.149586770   12.136198880    3.630373995
    0.860434057   12.164321973   12.147818679    3.632652981
    0.867612688   12.179498165   12.159636736    3.634980679
    0.874791319   12.195168269   12.171667494    3.637361645
    0.881969950   12.211397248   12.183928571    3.639801448
    0.889148581   12.228265689   12.196441701    3.642306968
    0.896327212   12.245874705   12.209234024    3.644886802
    0.903505843   12.264352702   12.222339862    3.647551836
    0.910684474   12.283864833   12.235803207    3.650316032
    0.917863105   12.304626323   12.249681220    3.653197537
    0.925041736   12.326921264   12.264049174    3.656220260
    0.932220367   12.351128847   12.279007345    3.659416054
    0.939398998   12.377758292   12.294690194    3.662827638
    0.946577629   12.407488708   12.311276838    3.666511922
    0.953756260   12.441187836   12.328995983    3.670541576
    0.960934891   12.479794978   12.348095153    3.674995253
    0.968113523   12.523602003   12.368651752    3.679897587
    0.975292154   12.569078001   12.389738615    3.684954166
    0.982470785   12.596655877   12.406214468    3.688532152
    0.989649416   12.540654064   12.400819688    3.685149835
    0.996828047   12.334770307   12.356131564    3.669273724
    1.004006678   12.149922910   12.317066299    3.655169701
    1.011185309   12.115239887   12.317558100    3.653615695
    1.018363940   12.149413367   12.336241012    3.657825870
    1.025542571   12.196347563   12.358374554    3.663118718
    1.032721202   12.240747538   12.379940278    3.668218168
    1.039899833   12.280176893   12.400298839    3.672921410
    1.047078464   12.315145781   12.419585244    3.677271612
    1.054257095   12.346604791   12.438050268    3.681348752
    1.061435726   12.375392689   12.455915335    3.685223532
    1.068614357   12.402158513   12.473352044    3.688950880
    1.075792988   12.427387836   12.490489075    3.692572152
    1.082971619   12.451442620   12.507422664    3.696118468
    1.090150250   12.474594735   12.524225415    3.699613518
    1.097328881   12.497050835   12.540952838    3.703075652
    1.104507513   12.518970120   12.557648025    3.706519380
    1.111686144   12.540476928   12.574344962    3.709956433
    1.118864775   12.561669679   12.591070882    3.713396537
    1.126043406   12.582627294   12.607847961    3.716847967
    1.133222037   12.603413854   12.624694546    3.720317972
    1.140400668   12.624082019   12.641626063    3.723813086
    1.147579299   12.644675571   12.658655692    3.727339390
    1.154757930   12.665231335   12.675794887    3.730902718
    1.161936561   12.685780640   12.693053763    3.734508845
    1.169115192   12.706350452   12.710441417    3.738163658
    1.176293823   12.726964260   12.727966171    3.741873324
    1.183472454   12.747642784   12.745635779    3.745644473
    1.190651085   12.768404554   12.763457603    3.749484397
    1.197829716   12.789266380   12.781438769    3.753401282
    1.205008347   12.810243769   12.799586303    3.757404500
    1.212186978   12.831351283   12.817907275    3.761504963
    1.219365609   12.852602886   12.836408942    3.765715586
    1.226544240   12.874012279   12.855098900    3.770051891
    1.233722871   12.895593263   12.873985271    3.774532822
    1.240901503   12.917360149   12.893076922    3.779181841
    1.248080134   12.939328255   12.912383737    3.784028452
    1.255258765   12.961514545   12.931916987    3.789110319
    1.262437396   12.983938466   12.951689808    3.794476234
    1.269616027   13.006623089   12.971717855    3.800190271
    1.276794658   13.029596614   12.992020170    3.806337427
    1.283973289   13.052894202   13.012620245    3.813030547
    1.291151920   13.076559473   13.033547003    3.820416017
    1.298330551   13.100642520   13.054834190    3.828666091
    1.305509182   13.125181503   13.076512061    3.837907917
    1.312687813   13.150115840   13.098566574    3.847888833
    1.319866444   13.174934438   13.120772338    3.856619632
    1.327045075   13.197583635   13.142172486    3.856162275
    1.334223706   13.214239122   13.160971512    3.831750830
    1.341402337   13.228594938   13.178972310    3.797626727
    1.348580968   13.249476391   13.200439794    3.787831879
    1.355759599   13.275027278   13.224555645    3.795209919
    1.362938230   13.302015732   13.249863916    3.807306074
    1.370116861   13.329402677   13.275968909    3.820126257
    1.377295492   13.357004607   13.302850905    3.832937720
    1.384474124   13.384806198   13.330325876    3.845438101
    1.391652755   13.412621828   13.357037049    3.855744260
    1.398831386   13.439575820   13.377750000    3.856348945
    1.406010017   13.464263928   13.384281379    3.835437137
    1.413188648   13.488845897   13.388342388    3.809926277
    1.420367279   13.516596021   13.407829827    3.805632761
    1.427545910   13.546545294   13.436870443    3.813934939
    1.434724541   13.577622027   13.468935486    3.825210638
    1.441903172   13.609594907   13.502176486    3.836587977
    1.449081803   13.642432435   13.536266791    3.847551781
    1.456260434   13.675620652   13.570432002    3.857854351
    1.463439065   13.706384106   13.600471352    3.866073280
    1.470617696   13.725849135   13.612798698    3.867363569
    1.477796327   13.727395632   13.597287512    3.858113389
    1.484974958   13.734969097   13.590845340    3.851785837
    1.492153589   13.761393002   13.613262007    3.855601840
    1.499332220   13.795943750   13.648093132    3.863593464
    1.506510851   13.832348640   13.685754436    3.872270800
    1.513689482   13.869044286   13.723925327    3.880768542
    1.520868114   13.905897147   13.762504869    3.889012139
    1.528046745   13.943099569   13.801899957    3.897099687
    1.535225376   13.980834425   13.842426704    3.905111177
    1.542404007   14.018935964   13.883423039    3.912907776
    1.549582638   14.055835193   13.920264765    3.919506016
    1.556761269   14.086503366   13.938526221    3.921860367
    1.563939900   14.108616671   13.931459042    3.918509295
    1.571118531   14.136460692   13.939444650    3.917827030
    1.578297162   14.174937994   13.976398923    3.922847353
    1.585475793   14.216205829   14.020728623    3.929997383
    1.592654424   14.249948884   14.045989297    3.937385960
    1.599833055   14.262200104   14.017772921    3.944448316
    1.607011686   14.266176284   13.968139089    3.951257577
    1.614190317   14.292164635   13.970768842    3.958126600
    1.621368948   14.333472790   14.009268329    3.965042708
    1.628547579   14.379052630   14.056608866    3.971947872
    1.635726210   14.425394331   14.104087222    3.978845182
    1.642904841   14.471926368   14.150114076    3.985758773
    1.650083472   14.518819428   14.194854168    3.992715870
    1.657262104   14.566406713   14.238798371    3.999743275
    1.664440735   14.615061402   14.282442241    4.006867783
    1.671619366   14.665190907   14.326239236    4.014117576
    1.678797997   14.717263606   14.370619493    4.021523978
    1.685976628   14.771848851   14.416023487    4.029123543
    1.693155259   14.829665311   14.462938751    4.036960497
    1.700333890   14.891625705   14.511932328    4.045089153
    1.707512521   14.958821217   14.563651096    4.053574149
    1.714691152   15.032207997   14.618672171    4.062479212
    1.721869783   15.111038236   14.676726100    4.071806844
    1.729048414   15.186325969   14.733441325    4.081242871
    1.736227045   15.218632365   14.769260746    4.089283751
    1.743405676   15.114810529   14.737840956    4.092324029
    1.750584307   14.903664042   14.653770498    4.091585686
    1.757762938   14.822054524   14.635580294    4.096519364
    1.764941569   14.870198566   14.683728361    4.107283352
    1.772120200   14.958711448   14.754030656    4.120538883
    1.779298831   15.053644121   14.830035282    4.135123676
    1.786477462   15.147691285   14.908357403    4.150691322
    1.793656093   15.238460459   14.986543050    4.165941474
    1.800834725   15.317346721   15.052918069    4.175696993
    1.808013356   15.363367801   15.073561727    4.171181457
    1.815191987   15.344011284   14.996635168    4.148793195
    1.822370618   15.239174891   14.845782303    4.108129651
    1.829549249   15.176588774   14.777369707    4.083446313
    1.836727880   15.213197278   14.813568476    4.088061322
    1.843906511   15.288378361   14.886026731    4.103893653
    1.851085142   15.369129473   14.963160426    4.121479287
    1.858263773   15.447274865   15.037738782    4.138561813
    1.865442404   15.521915390   15.109385383    4.154985009
    1.872621035   15.593729134   15.179033319    4.171009082
    1.879799666   15.663535722   15.246941194    4.186703266
    1.886978297   15.731860167   15.309762051    4.201047908
    1.894156928   15.798504572   15.353188856    4.209682934
    1.901335559   15.862877356   15.357480883    4.206599029
    1.908514190   15.927379633   15.358847098    4.202922481
    1.915692821   15.994538885   15.399413176    4.211569452
    1.922871452   16.062782739   15.460439885    4.226673380
    1.930050083   16.127735660   15.521734269    4.241309106
    1.937228715   16.179767838   15.568229147    4.248850366
    1.944407346   16.219052332   15.599367730    4.249252854
    1.951585977   16.270940272   15.643188160    4.256782382
    1.958764608   16.338609197   15.703348216    4.273342056
    1.965943239   16.412145547   15.768541532    4.293149875
    1.973121870   16.486536261   15.830739073    4.311492037
    1.980300501   16.557904875   15.878039879    4.320061775
    1.987479132   16.624437117   15.904867664    4.314139819
    1.994657763   16.692596669   15.939701433    4.310242327
    2.001836394   16.759265731   15.988538607    4.301403426
    2.009015025   16.817098030   16.035807167    4.269893689
    2.016193656   16.879755093   16.088096222    4.249763018
    2.023372287   16.948742800   16.147933704    4.253409518
    2.030550918   17.013873764   16.208489071    4.261723186
    2.037729549   17.086064999   16.271499385    4.273967685
    2.044908180   17.170430422   16.338364515    4.291271096
    2.052086811   17.260922673   16.407408566    4.309776169
    2.059265442   17.354761707   16.478096485    4.327791606
    2.066444073   17.451817874   16.550772670    4.345128687
    2.073622705   17.552813008   16.626058002    4.361994680
    2.080801336   17.658662811   16.704464774    4.378656699
    2.087979967   17.769811670   16.785374537    4.395350433
    2.095158598   17.883947534   16.863081859    4.412178566
    2.102337229   17.989313865   16.915318547    4.428824402
    2.109515860   18.067013648   16.907303134    4.444614476
    2.116694491   18.147592422   16.889277079    4.460751765
    2.123873122   18.273052393   16.936933886    4.477876543
    2.131051753   18.408851960   17.021515508    4.489795337
    2.138230384   18.467634990   17.102691622    4.484583963
    2.145409015   18.334309523   17.151405794    4.469929645
    2.152587646   18.105695364   17.169308952    4.467874982
    2.159766277   17.957211308   17.164583624    4.468145503
    2.166944908   17.909820893   17.165877570    4.469638540
    2.174123539   17.998875538   17.213129719    4.480914228
    2.181302170   18.150129287   17.285087850    4.497379960
    2.188480801   18.311069763   17.371363434    4.516027597
    2.195659432   18.467642606   17.463206566    4.535268688
    2.202838063   18.618552369   17.555070597    4.554357420
    2.210016694   18.765533869   17.645850185    4.573243310
    2.217195326   18.910730095   17.735903684    4.592086454
    2.224373957   19.056106036   17.825849727    4.611081362
    2.231552588   19.203209409   17.916218310    4.630417064
    2.238731219   19.352320683   18.007128864    4.650258427
    2.245909850   19.499123028   18.097275996    4.670680194
    2.253088481   19.628832853   18.182169378    4.691544400
    2.260267112   19.738774243   18.260924155    4.713006770
    2.267445743   19.874204434   18.347130105    4.736277225
    2.274624374   20.043169073   18.443907239    4.761486590
    2.281803005   20.208261130   18.543680566    4.786591047
    2.288981636   20.289053525   18.635254367    4.804825912
    2.296160267   20.177613071   18.705210421    4.806429421
    2.303338898   20.039252552   18.774586684    4.807536056
    2.310517529   20.099250221   18.872093940    4.830074686
    2.317696160   20.273574492   18.988080933    4.866753165
    2.324874791   20.477208702   19.112887515    4.910104717
    2.332053422   20.685141047   19.244066213    4.957250796
    2.339232053   20.891871725   19.379603641    5.001821937
    2.346410684   21.090389034   19.508970688    5.018071244
    2.353589316   21.256768480   19.599781686    4.950064504
    2.360767947   21.365798130   19.621115634    4.828273531
    2.367946578   21.464095912   19.598470079    4.787534595
    2.375125209   21.609660815   19.610028799    4.815770913
    2.382303840   21.793120312   19.683047204    4.848023679
    2.389482471   21.968429100   19.731394997    4.835858071
    2.396661102   22.143705570   19.768551076    4.799319665
    2.403839733   22.354674578   19.868108420    4.797349431
    2.411018364   22.590479345   20.000018286    4.811095820
    2.418196995   22.832499030   20.113574587    4.794267830
    2.425375626   23.089086433   20.233075624    4.780701639
    2.432554257   23.372107901   20.388357125    4.807648409
    2.439732888   23.677573078   20.558042641    4.851917436
    2.446911519   23.996184272   20.717136839    4.894661004
    2.454090150   24.303297899   20.849109422    4.933853573
    2.461268781   24.554220034   20.960098806    4.975144675
    2.468447412   24.757794676   21.098399558    5.017987617
    2.475626043   24.947075828   21.270724633    5.062080106
    2.482804674   24.862890629   21.416615477    5.100856209
    2.489983306   24.361062553   21.481379945    5.126501592
    2.497161937   24.125220306   21.502028522    5.149586852
    2.504340568   24.359703522   21.572214125    5.185463102
    2.511519199   24.760098302   21.714286306    5.221043666
    2.518697830   25.133866690   21.863595616    5.214906467
    2.525876461   25.495270962   22.048702584    5.177768426
    2.533055092   25.941314291   22.292571738    5.161115513
    2.540233723   26.439976883   22.552981070    5.128262239
