# energy grid [eV]     ieps_x  ieps_y  ieps_z
#
    0.200000000    7.095973025    6.944700942    1.749082550
    0.207178631    7.094457149    6.943342073    1.748898078
    0.214357262    7.092888842    6.941936040    1.748707226
    0.221535893    7.091268208    6.940482918    1.748510008
    0.228714524    7.089595355    6.938982788    1.748306435
    0.235893155    7.087870391    6.937435730    1.748096522
    0.243071786    7.086093430    6.935841830    1.747880282
    0.250250417    7.084264587    6.934201172    1.747657730
    0.257429048    7.082383982    6.932513846    1.747428880
    0.264607679    7.080451736    6.930779944    1.747193747
    0.271786311    7.078467975    6.928999558    1.746952346
    0.278964942    7.076432824    6.927172784    1.746704694
    0.286143573    7.074346416    6.925299721    1.746450805
    0.293322204    7.072208883    6.923380469    1.746190696
    0.300500835    7.070020361    6.921415130    1.745924385
    0.307679466    7.067780990    6.919403809    1.745651887
    0.314858097    7.065490909    6.917346613    1.745373221
    0.322036728    7.063150264    6.915243652    1.745088403
    0.329215359    7.060759202    6.913095036    1.744797453
    0.336393990    7.058317871    6.910900880    1.744500387
    0.343572621    7.055826423    6.908661299    1.744197225
    0.350751252    7.053285012    6.906376411    1.743887986
    0.357929883    7.050693797    6.904046336    1.743572689
    0.365108514    7.048052934    6.901671196    1.743251353
    0.372287145    7.045362587    6.899251114    1.742923998
    0.379465776    7.042622918    6.896786217    1.742590645
    0.386644407    7.039834095    6.894276634    1.742251313
    0.393823038    7.036996286    6.891722493    1.741906023
    0.401001669    7.034109662    6.889123927    1.741554796
    0.408180301    7.031174395    6.886481070    1.741197653
    0.415358932    7.028190661    6.883794058    1.740834617
    0.422537563    7.025158637    6.881063029    1.740465707
    0.429716194    7.022078503    6.878288123    1.740090947
    0.436894825    7.018950439    6.875469480    1.739710358
    0.444073456    7.015774630    6.872607245    1.739323964
    0.451252087    7.012551262    6.869701563    1.738931785
    0.458430718    7.009280520    6.866752580    1.738533847
    0.465609349    7.005962596    6.863760446    1.738130171
    0.472787980    7.002597680    6.860725310    1.737720781
    0.479966611    6.999185966    6.857647326    1.737305701
    0.487145242    6.995727648    6.854526648    1.736884954
    0.494323873    6.992222923    6.851363431    1.736458565
    0.501502504    6.988671991    6.848157832    1.736026558
    0.508681135    6.985075051    6.844910010    1.735588957
    0.515859766    6.981432306    6.841620127    1.735145786
    0.523038397    6.977743959    6.838288344    1.734697072
    0.530217028    6.974010216    6.834914825    1.734242838
    0.537395659    6.970231283    6.831499737    1.733783110
    0.544574290    6.966407370    6.828043244    1.733317913
    0.551752922    6.962538687    6.824545517    1.732847273
    0.558931553    6.958625446    6.821006726    1.732371216
    0.566110184    6.954667859    6.817427040    1.731889768
    0.573288815    6.950666141    6.813806635    1.731402955
    0.580467446    6.946620510    6.810145683    1.730910803
    0.587646077    6.942531181    6.806444361    1.730413338
    0.594824708    6.938398376    6.802702846    1.729910588
    0.602003339    6.934222312    6.798921317    1.729402578
    0.609181970    6.930003214    6.795099953    1.728889337
    0.616360601    6.925741303    6.791238936    1.728370890
    0.623539232    6.921436804    6.787338447    1.727847266
    0.630717863    6.917089943    6.783398672    1.727318492
    0.637896494    6.912700946    6.779419795    1.726784594
    0.645075125    6.908270041    6.775402003    1.726245601
    0.652253756    6.903797458    6.771345483    1.725701541
    0.659432387    6.899283428    6.767250424    1.725152441
    0.666611018    6.894728181    6.763117015    1.724598329
    0.673789649    6.890131951    6.758945449    1.724039235
    0.680968280    6.885494970    6.754735917    1.723475185
    0.688146912    6.880817475    6.750488613    1.722906208
    0.695325543    6.876099701    6.746203731    1.722332333
    0.702504174    6.871341884    6.741881467    1.721753589
    0.709682805    6.866544262    6.737522018    1.721170003
    0.716861436    6.861707075    6.733125581    1.720581606
    0.724040067    6.856830562    6.728692355    1.719988425
    0.731218698    6.851914963    6.724222540    1.719390491
    0.738397329    6.846960521    6.719716336    1.718787831
    0.745575960    6.841967477    6.715173946    1.718180476
    0.752754591    6.836936075    6.710595571    1.717568454
    0.759933222    6.831866559    6.705981415    1.716951795
    0.767111853    6.826759174    6.701331682    1.716330529
    0.774290484    6.821614165    6.696646579    1.715704684
    0.781469115    6.816431778    6.691926311    1.715074291
    0.788647746    6.811212262    6.687171084    1.714439380
    0.795826377    6.805955864    6.682381108    1.713799980
    0.803005008    6.800662831    6.677556590    1.713156120
    0.810183639    6.795333414    6.672697739    1.712507832
    0.817362270    6.789967862    6.667804767    1.711855145
    0.824540902    6.784566425    6.662877883    1.711198088
    0.831719533    6.779129355    6.657917299    1.710536693
    0.838898164    6.773656903    6.652923227    1.709870989
    0.846076795    6.768149321    6.647895882    1.709201006
    0.853255426    6.762606861    6.642835475    1.708526775
    0.860434057    6.757029777    6.637742221    1.707848327
    0.867612688    6.751418322    6.632616335    1.707165691
    0.874791319    6.745772751    6.627458033    1.706478897
    0.881969950    6.740093318    6.622267531    1.705787977
    0.889148581    6.734380277    6.617045044    1.705092961
    0.896327212    6.728633884    6.611790790    1.704393879
    0.903505843    6.722854394    6.606504987    1.703690763
    0.910684474    6.717042064    6.601187854    1.702983642
    0.917863105    6.711197150    6.595839607    1.702272547
    0.925041736    6.705319908    6.590460467    1.701557509
    0.932220367    6.699410595    6.585050653    1.700838558
    0.939398998    6.693469468    6.579610385    1.700115726
    0.946577629    6.687496785    6.574139883    1.699389043
    0.953756260    6.681492803    6.568639368    1.698658540
    0.960934891    6.675457781    6.563109061    1.697924247
    0.968113523    6.669391975    6.557549184    1.697186196
    0.975292154    6.663295644    6.551959957    1.696444417
    0.982470785    6.657169046    6.546341604    1.695698941
    0.989649416    6.651012441    6.540694347    1.694949798
    0.996828047    6.644826085    6.535018407    1.694197020
    1.004006678    6.638610237    6.529314009    1.693440638
    1.011185309    6.632365157    6.523581375    1.692680681
    1.018363940    6.626091103    6.517820728    1.691917182
    1.025542571    6.619788332    6.512032292    1.691150171
    1.032721202    6.613457105    6.506216291    1.690379678
    1.039899833    6.607097679    6.500372949    1.689605735
    1.047078464    6.600710313    6.494502490    1.688828372
    1.054257095    6.594295266    6.488605137    1.688047620
    1.061435726    6.587852795    6.482681115    1.687263510
    1.068614357    6.581383159    6.476730649    1.686476073
    1.075792988    6.574886616    6.470753963    1.685685338
    1.082971619    6.568363425    6.464751281    1.684891338
    1.090150250    6.561813843    6.458722828    1.684094103
    1.097328881    6.555238127    6.452668829    1.683293663
    1.104507513    6.548636535    6.446589508    1.682490049
    1.111686144    6.542009325    6.440485090    1.681683291
    1.118864775    6.535356753    6.434355800    1.680873421
    1.126043406    6.528679076    6.428201861    1.680060469
    1.133222037    6.521976551    6.422023499    1.679244465
    1.140400668    6.515249433    6.415820937    1.678425440
    1.147579299    6.508497979    6.409594401    1.677603424
    1.154757930    6.501722444    6.403344115    1.676778447
    1.161936561    6.494923084    6.397070302    1.675950541
    1.169115192    6.488100153    6.390773186    1.675119735
    1.176293823    6.481253905    6.384452992    1.674286060
    1.183472454    6.474384596    6.378109943    1.673449546
    1.190651085    6.467492478    6.371744263    1.672610222
    1.197829716    6.460577805    6.365356174    1.671768120
    1.205008347    6.453640830    6.358945901    1.670923269
    1.212186978    6.446681804    6.352513666    1.670075700
    1.219365609    6.439700981    6.346059691    1.669225442
    1.226544240    6.432698611    6.339584199    1.668372525
    1.233722871    6.425674945    6.333087413    1.667516979
    1.240901503    6.418630234    6.326569554    1.666658835
    1.248080134    6.411564728    6.320030843    1.665798121
    1.255258765    6.404478675    6.313471502    1.664934867
    1.262437396    6.397372325    6.306891752    1.664069103
    1.269616027    6.390245926    6.300291814    1.663200859
    1.276794658    6.383099725    6.293671907    1.662330164
    1.283973289    6.375933970    6.287032252    1.661457048
    1.291151920    6.368748907    6.280373068    1.660581539
    1.298330551    6.361544781    6.273694575    1.659703667
    1.305509182    6.354321838    6.266996990    1.658823462
    1.312687813    6.347080322    6.260280534    1.657940953
    1.319866444    6.339820476    6.253545422    1.657056167
    1.327045075    6.332542545    6.246791874    1.656169136
    1.334223706    6.325246770    6.240020105    1.655279886
    1.341402337    6.317933393    6.233230334    1.654388448
    1.348580968    6.310602655    6.226422775    1.653494850
    1.355759599    6.303254797    6.219597644    1.652599121
    1.362938230    6.295890057    6.212755156    1.651701289
    1.370116861    6.288508674    6.205895527    1.650801383
    1.377295492    6.281110887    6.199018970    1.649899430
    1.384474124    6.273696932    6.192125699    1.648995461
    1.391652755    6.266267046    6.185215927    1.648089502
    1.398831386    6.258821464    6.178289867    1.647181582
    1.406010017    6.251360422    6.171347729    1.646271728
    1.413188648    6.243884153    6.164389727    1.645359970
    1.420367279    6.236392890    6.157416069    1.644446334
    1.427545910    6.228886866    6.150426968    1.643530849
    1.434724541    6.221366311    6.143422632    1.642613542
    1.441903172    6.213831457    6.136403271    1.641694441
    1.449081803    6.206282533    6.129369092    1.640773573
    1.456260434    6.198719768    6.122320303    1.639850965
    1.463439065    6.191143390    6.115257112    1.638926646
    1.470617696    6.183553626    6.108179726    1.638000641
    1.477796327    6.175950701    6.101088349    1.637072979
    1.484974958    6.168334841    6.093983187    1.636143686
    1.492153589    6.160706270    6.086864444    1.635212789
    1.499332220    6.153065212    6.079732325    1.634280314
    1.506510851    6.145411889    6.072587032    1.633346290
    1.513689482    6.137746522    6.065428767    1.632410741
    1.520868114    6.130069331    6.058257733    1.631473695
    1.528046745    6.122380536    6.051074130    1.630535177
    1.535225376    6.114680356    6.043878159    1.629595215
    1.542404007    6.106969008    6.036670019    1.628653833
    1.549582638    6.099246708    6.029449908    1.627711059
    1.556761269    6.091513673    6.022218026    1.626766918
    1.563939900    6.083770116    6.014974568    1.625821436
    1.571118531    6.076016251    6.007719732    1.624874639
    1.578297162    6.068252290    6.000453713    1.623926551
    1.585475793    6.060478446    5.993176706    1.622977199
    1.592654424    6.052694927    5.985888906    1.622026608
    1.599833055    6.044901945    5.978590505    1.621074804
    1.607011686    6.037099706    5.971281697    1.620121810
    1.614190317    6.029288419    5.963962673    1.619167653
    1.621368948    6.021468290    5.956633624    1.618212356
    1.628547579    6.013639523    5.949294740    1.617255946
    1.635726210    6.005802323    5.941946210    1.616298446
    1.642904841    5.997956894    5.934588224    1.615339881
    1.650083472    5.990103436    5.927220968    1.614380275
    1.657262104    5.982242151    5.919844630    1.613419653
    1.664440735    5.974373239    5.912459395    1.612458038
    1.671619366    5.966496899    5.905065449    1.611495456
    1.678797997    5.958613327    5.897662975    1.610531929
    1.685976628    5.950722722    5.890252158    1.609567481
    1.693155259    5.942825278    5.882833180    1.608602137
    1.700333890    5.934921189    5.875406223    1.607635919
    1.707512521    5.927010649    5.867971467    1.606668852
    1.714691152    5.919093850    5.860529093    1.605700957
    1.721869783    5.911170984    5.853079279    1.604732259
    1.729048414    5.903242239    5.845622203    1.603762781
    1.736227045    5.895307806    5.838158044    1.602792545
    1.743405676    5.887367871    5.830686977    1.601821574
    1.750584307    5.879422621    5.823209177    1.600849892
    1.757762938    5.871472242    5.815724820    1.599877519
    1.764941569    5.863516918    5.808234080    1.598904479
    1.772120200    5.855556832    5.800737128    1.597930795
    1.779298831    5.847592167    5.793234137    1.596956487
    1.786477462    5.839623103    5.785725278    1.595981579
    1.793656093    5.831649820    5.778210720    1.595006092
    1.800834725    5.823672497    5.770690634    1.594030047
    1.808013356    5.815691312    5.763165186    1.593053467
    1.815191987    5.807706440    5.755634545    1.592076373
    1.822370618    5.799718058    5.748098877    1.591098786
    1.829549249    5.791726339    5.740558347    1.590120728
    1.836727880    5.783731456    5.733013120    1.589142220
    1.843906511    5.775733582    5.725463358    1.588163282
    1.851085142    5.767732886    5.717909226    1.587183935
    1.858263773    5.759729539    5.710350884    1.586204201
    1.865442404    5.751723709    5.702788494    1.585224100
    1.872621035    5.743715564    5.695222214    1.584243652
    1.879799666    5.735705268    5.687652204    1.583262877
    1.886978297    5.727692989    5.680078622    1.582281796
    1.894156928    5.719678889    5.672501625    1.581300429
    1.901335559    5.711663131    5.664921368    1.580318796
    1.908514190    5.703645877    5.657338007    1.579336916
    1.915692821    5.695627287    5.649751696    1.578354810
    1.922871452    5.687607520    5.642162588    1.577372496
    1.930050083    5.679586736    5.634570835    1.576389994
    1.937228715    5.671565090    5.626976588    1.575407324
    1.944407346    5.663542738    5.619379998    1.574424505
    1.951585977    5.655519837    5.611781214    1.573441555
    1.958764608    5.647496538    5.604180384    1.572458493
    1.965943239    5.639472995    5.596577656    1.571475339
    1.973121870    5.631449359    5.588973176    1.570492111
    1.980300501    5.623425780    5.581367089    1.569508827
    1.987479132    5.615402407    5.573759541    1.568525505
    1.994657763    5.607379389    5.566150675    1.567542165
    2.001836394    5.599356871    5.558540633    1.566558823
    2.009015025    5.591335001    5.550929556    1.565575499
    2.016193656    5.583313922    5.543317587    1.564592210
    2.023372287    5.575293777    5.535704864    1.563608973
    2.030550918    5.567274710    5.528091525    1.562625806
    2.037729549    5.559256861    5.520477710    1.561642726
    2.044908180    5.551240371    5.512863555    1.560659752
    2.052086811    5.543225379    5.505249195    1.559676899
    2.059265442    5.535212021    5.497634766    1.558694186
    2.066444073    5.527200436    5.490020402    1.557711629
    2.073622705    5.519190759    5.482406235    1.556729244
    2.080801336    5.511183124    5.474792398    1.555747050
    2.087979967    5.503177665    5.467179022    1.554765061
    2.095158598    5.495174514    5.459566236    1.553783294
    2.102337229    5.487173802    5.451954171    1.552801767
    2.109515860    5.479175660    5.444342955    1.551820494
    2.116694491    5.471180217    5.436732714    1.550839492
    2.123873122    5.463187600    5.429123575    1.549858777
    2.131051753    5.455197937    5.421515664    1.548878364
    2.138230384    5.447211353    5.413909104    1.547898270
    2.145409015    5.439227973    5.406304021    1.546918510
    2.152587646    5.431247921    5.398700535    1.545939098
    2.159766277    5.423271320    5.391098769    1.544960051
    2.166944908    5.415298290    5.383498844    1.543981384
    2.174123539    5.407328952    5.375900879    1.543003111
    2.181302170    5.399363426    5.368304992    1.542025248
    2.188480801    5.391401830    5.360711303    1.541047809
    2.195659432    5.383444281    5.353119928    1.540070808
    2.202838063    5.375490895    5.345530983    1.539094261
    2.210016694    5.367541788    5.337944582    1.538118182
    2.217195326    5.359597074    5.330360841    1.537142585
    2.224373957    5.351656865    5.322779873    1.536167484
    2.231552588    5.343721274    5.315201789    1.535192893
    2.238731219    5.335790412    5.307626701    1.534218826
    2.245909850    5.327864388    5.300054720    1.533245297
    2.253088481    5.319943313    5.292485956    1.532272319
    2.260267112    5.312027292    5.284920516    1.531299907
    2.267445743    5.304116434    5.277358509    1.530328072
    2.274624374    5.296210845    5.269800042    1.529356830
    2.281803005    5.288310629    5.262245220    1.528386193
    2.288981636    5.280415889    5.254694149    1.527416173
    2.296160267    5.272526730    5.247146932    1.526446784
    2.303338898    5.264643252    5.239603674    1.525478039
    2.310517529    5.256765557    5.232064475    1.524509950
    2.317696160    5.248893745    5.224529439    1.523542531
    2.324874791    5.241027914    5.216998664    1.522575792
    2.332053422    5.233168162    5.209472252    1.521609748
    2.339232053    5.225314586    5.201950300    1.520644409
    2.346410684    5.217467282    5.194432907    1.519679788
    2.353589316    5.209626346    5.186920170    1.518715898
    2.360767947    5.201791871    5.179412185    1.517752749
    2.367946578    5.193963950    5.171909047    1.516790354
    2.375125209    5.186142675    5.164410851    1.515828724
    2.382303840    5.178328137    5.156917690    1.514867872
    2.389482471    5.170520428    5.149429656    1.513907807
    2.396661102    5.162719635    5.141946843    1.512948542
    2.403839733    5.154925848    5.134469340    1.511990088
    2.411018364    5.147139153    5.126997238    1.511032455
    2.418196995    5.139359637    5.119530626    1.510075655
    2.425375626    5.131587386    5.112069592    1.509119699
    2.432554257    5.123822484    5.104614225    1.508164598
    2.439732888    5.116065015    5.097164611    1.507210361
    2.446911519    5.108315062    5.089720835    1.506257000
    2.454090150    5.100572706    5.082282984    1.505304525
    2.461268781    5.092838029    5.074851140    1.504352946
    2.468447412    5.085111111    5.067425388    1.503402273
    2.475626043    5.077392031    5.060005810    1.502452517
    2.482804674    5.069680867    5.052592489    1.501503688
    2.489983306    5.061977697    5.045185504    1.500555795
    2.497161937    5.054282597    5.037784936    1.499608848
    2.504340568    5.046595643    5.030390865    1.498662857
    2.511519199    5.038916909    5.023003369    1.497717831
    2.518697830    5.031246470    5.015622525    1.496773780
    2.525876461    5.023584400    5.008248411    1.495830713
    2.533055092    5.015930769    5.000881103    1.494888640
    2.540233723    5.008285649    4.993520676    1.493947569
