# energy grid [eV]     epsr_x  epsr_y  epsr_z
#
    0.200000000   11.633905526    9.885180432   12.478853532
    0.207178631   11.636160363    9.887027065   12.481341438
    0.214357262   11.638495837    9.888939662   12.483918252
    0.221535893   11.640912064    9.890918313   12.486584097
    0.228714524   11.643409170    9.892963110   12.489339101
    0.235893155   11.645987279    9.895074148   12.492183398
    0.243071786   11.648646523    9.897251526   12.495117123
    0.250250417   11.651387039    9.899495345   12.498140419
    0.257429048   11.654208964    9.901805712   12.501253432
    0.264607679   11.657112443    9.904182733   12.504456312
    0.271786311   11.660097625    9.906626521   12.507749213
    0.278964942   11.663164662    9.909137190   12.511132295
    0.286143573   11.666313712    9.911714858   12.514605723
    0.293322204   11.669544934    9.914359646   12.518169663
    0.300500835   11.672858496    9.917071678   12.521824291
    0.307679466   11.676254567    9.919851084   12.525569782
    0.314858097   11.679733322    9.922697992   12.529406319
    0.322036728   11.683294941    9.925612538   12.533334089
    0.329215359   11.686939606    9.928594860   12.537353284
    0.336393990   11.690667506    9.931645099   12.541464099
    0.343572621   11.694478834    9.934763398   12.545666735
    0.350751252   11.698373788    9.937949907   12.549961399
    0.357929883   11.702352568    9.941204775   12.554348300
    0.365108514   11.706415382    9.944528159   12.558827653
    0.372287145   11.710562442    9.947920216   12.563399678
    0.379465776   11.714793962    9.951381107   12.568064600
    0.386644407   11.719110165    9.954910998   12.572822649
    0.393823038   11.723511275    9.958510058   12.577674060
    0.401001669   11.727997523    9.962178458   12.582619071
    0.408180301   11.732569144    9.965916375   12.587657926
    0.415358932   11.737226378    9.969723987   12.592790877
    0.422537563   11.741969471    9.973601477   12.598018176
    0.429716194   11.746798671    9.977549033   12.603340083
    0.436894825   11.751714235    9.981566844   12.608756863
    0.444073456   11.756716422    9.985655104   12.614268786
    0.451252087   11.761805498    9.989814010   12.619876126
    0.458430718   11.766981732    9.994043764   12.625579164
    0.465609349   11.772245400    9.998344571   12.631378184
    0.472787980   11.777596782   10.002716640   12.637273477
    0.479966611   11.783036165   10.007160183   12.643265340
    0.487145242   11.788563839   10.011675416   12.649354072
    0.494323873   11.794180101   10.016262560   12.655539982
    0.501502504   11.799885252   10.020921840   12.661823380
    0.508681135   11.805679600   10.025653482   12.668204585
    0.515859766   11.811563458   10.030457720   12.674683919
    0.523038397   11.817537144   10.035334788   12.681261711
    0.530217028   11.823600981   10.040284928   12.687938295
    0.537395659   11.829755299   10.045308383   12.694714011
    0.544574290   11.836000434   10.050405401   12.701589205
    0.551752922   11.842336725   10.055576234   12.708564227
    0.558931553   11.848764520   10.060821140   12.715639434
    0.566110184   11.855284171   10.066140377   12.722815191
    0.573288815   11.861896037   10.071534212   12.730091864
    0.580467446   11.868600481   10.077002913   12.737469829
    0.587646077   11.875397875   10.082546753   12.744949467
    0.594824708   11.882288594   10.088166010   12.752531165
    0.602003339   11.889273021   10.093860966   12.760215314
    0.609181970   11.896351546   10.099631906   12.768002315
    0.616360601   11.903524562   10.105479123   12.775892572
    0.623539232   11.910792472   10.111402910   12.783886496
    0.630717863   11.918155682   10.117403568   12.791984506
    0.637896494   11.925614609   10.123481401   12.800187026
    0.645075125   11.933169671   10.129636718   12.808494486
    0.652253756   11.940821297   10.135869832   12.816907323
    0.659432387   11.948569921   10.142181062   12.825425981
    0.666611018   11.956415984   10.148570730   12.834050910
    0.673789649   11.964359932   10.155039164   12.842782567
    0.680968280   11.972402222   10.161586697   12.851621417
    0.688146912   11.980543314   10.168213666   12.860567928
    0.695325543   11.988783676   10.174920412   12.869622579
    0.702504174   11.997123786   10.181707284   12.878785854
    0.709682805   12.005564126   10.188574634   12.888058245
    0.716861436   12.014105186   10.195522818   12.897440250
    0.724040067   12.022747464   10.202552199   12.906932375
    0.731218698   12.031491466   10.209663145   12.916535132
    0.738397329   12.040337703   10.216856029   12.926249043
    0.745575960   12.049286698   10.224131228   12.936074634
    0.752754591   12.058338977   10.231489126   12.946012440
    0.759933222   12.067495078   10.238930111   12.956063005
    0.767111853   12.076755544   10.246454578   12.966226880
    0.774290484   12.086120928   10.254062926   12.976504621
    0.781469115   12.095591789   10.261755561   12.986896794
    0.788647746   12.105168698   10.269532893   12.997403975
    0.795826377   12.114852230   10.277395338   13.008026744
    0.803005008   12.124642971   10.285343320   13.018765691
    0.810183639   12.134541516   10.293377266   13.029621414
    0.817362270   12.144548467   10.301497609   13.040594520
    0.824540902   12.154664436   10.309704790   13.051685623
    0.831719533   12.164890044   10.317999255   13.062895347
    0.838898164   12.175225920   10.326381454   13.074224322
    0.846076795   12.185672703   10.334851847   13.085673189
    0.853255426   12.196231041   10.343410897   13.097242597
    0.860434057   12.206901592   10.352059075   13.108933204
    0.867612688   12.217685024   10.360796858   13.120745677
    0.874791319   12.228582013   10.369624728   13.132680692
    0.881969950   12.239593245   10.378543176   13.144738932
    0.889148581   12.250719418   10.387552697   13.156921094
    0.896327212   12.261961239   10.396653795   13.169227880
    0.903505843   12.273319424   10.405846980   13.181660004
    0.910684474   12.284794701   10.415132767   13.194218188
    0.917863105   12.296387809   10.424511680   13.206903165
    0.925041736   12.308099495   10.433984249   13.219715677
    0.932220367   12.319930520   10.443551013   13.232656477
    0.939398998   12.331881655   10.453212514   13.245726327
    0.946577629   12.343953681   10.462969306   13.258926000
    0.953756260   12.356147392   10.472821946   13.272256278
    0.960934891   12.368463592   10.482771002   13.285717956
    0.968113523   12.380903099   10.492817048   13.299311838
    0.975292154   12.393466741   10.502960665   13.313038737
    0.982470785   12.406155358   10.513202442   13.326899481
    0.989649416   12.418969805   10.523542977   13.340894906
    0.996828047   12.431910947   10.533982874   13.355025860
    1.004006678   12.444979662   10.544522747   13.369293203
    1.011185309   12.458176843   10.555163216   13.383697805
    1.018363940   12.471503394   10.565904912   13.398240548
    1.025542571   12.484960230   10.576748470   13.412922328
    1.032721202   12.498548266   10.587694539   13.427744050
    1.039899833   12.512268382   10.598743771   13.442706633
    1.047078464   12.526121405   10.609896830   13.457811006
    1.054257095   12.540108395   10.621154388   13.473058113
    1.061435726   12.554230651   10.632517127   13.488448910
    1.068614357   12.568489136   10.643985736   13.503984367
    1.075792988   12.582884747   10.655560915   13.519665464
    1.082971619   12.597418474   10.667243371   13.535493195
    1.090150250   12.612091355   10.679033823   13.551468568
    1.097328881   12.626904451   10.690932996   13.567592605
    1.104507513   12.641858840   10.702941629   13.583866340
    1.111686144   12.656955617   10.715060467   13.600290823
    1.118864775   12.672195891   10.727290267   13.616867117
    1.126043406   12.687580791   10.739631795   13.633596299
    1.133222037   12.703111460   10.752085829   13.650479461
    1.140400668   12.718789059   10.764653155   13.667517709
    1.147579299   12.734614765   10.777334571   13.684712165
    1.154757930   12.750589775   10.790130884   13.702063965
    1.161936561   12.766715303   10.803042915   13.719574262
    1.169115192   12.782992582   10.816071492   13.737244222
    1.176293823   12.799422861   10.829217457   13.755075030
    1.183472454   12.816007413   10.842481662   13.773067885
    1.190651085   12.832747527   10.855864970   13.791224001
    1.197829716   12.849644512   10.869368257   13.809544613
    1.205008347   12.866699699   10.882992410   13.828030967
    1.212186978   12.883914438   10.896738327   13.846684331
    1.219365609   12.901290102   10.910606920   13.865505988
    1.226544240   12.918828083   10.924599112   13.884497239
    1.233722871   12.936529795   10.938715839   13.903659401
    1.240901503   12.954396662   10.952958049   13.922993813
    1.248080134   12.972430106   10.967326703   13.942501828
    1.255258765   12.990631530   10.981822775   13.962184819
    1.262437396   13.009002508   10.996447252   13.982044179
    1.269616027   13.027544743   11.011201139   14.002081324
    1.276794658   13.046259757   11.026085449   14.022297683
    1.283973289   13.065149063   11.041101211   14.042694708
    1.291151920   13.084214240   11.056249467   14.063273869
    1.298330551   13.103456915   11.071531274   14.084036658
    1.305509182   13.122878742   11.086947703   14.104984589
    1.312687813   13.142481405   11.102499841   14.126119196
    1.319866444   13.162266614   11.118188790   14.147442033
    1.327045075   13.182236106   11.134015666   14.168954677
    1.334223706   13.202391649   11.149981600   14.190658730
    1.341402337   13.222735037   11.166087742   14.212555811
    1.348580968   13.243268095   11.182335255   14.234647568
    1.355759599   13.263992679   11.198725318   14.256935667
    1.362938230   13.284910674   11.215259130   14.279421801
    1.370116861   13.306023997   11.231937903   14.302107685
    1.377295492   13.327334597   11.248762866   14.324995061
    1.384474124   13.348844458   11.265735267   14.348085689
    1.391652755   13.370555595   11.282856359   14.371381352
    1.398831386   13.392470057   11.300127420   14.394883855
    1.406010017   13.414589930   11.317549772   14.418595067
    1.413188648   13.436917336   11.335124754   14.442516877
    1.420367279   13.459454431   11.352853694   14.466651168
    1.427545910   13.482203410   11.370737940   14.490999855
    1.434724541   13.505166507   11.388778863   14.515564882
    1.441903172   13.528345991   11.406977849   14.540348214
    1.449081803   13.551744177   11.425336311   14.565351857
    1.456260434   13.575363415   11.443855723   14.590577891
    1.463439065   13.599206102   11.462537549   14.616028391
    1.470617696   13.623274673   11.481383256   14.641705441
    1.477796327   13.647571610   11.500394338   14.667611164
    1.484974958   13.672099436   11.519572320   14.693747722
    1.492153589   13.696860724   11.538918745   14.720117307
    1.499332220   13.721858091   11.558435183   14.746722148
    1.506510851   13.747094202   11.578123226   14.773564505
    1.513689482   13.772571772   11.597984489   14.800646672
    1.520868114   13.798293565   11.618020611   14.827970980
    1.528046745   13.824262397   11.638233258   14.855539792
    1.535225376   13.850481137   11.658624117   14.883355509
    1.542404007   13.876952707   11.679194902   14.911420569
    1.549582638   13.903680084   11.699947353   14.939737444
    1.556761269   13.930666303   11.720883237   14.968308648
    1.563939900   13.957914455   11.742004347   14.997136732
    1.571118531   13.985427692   11.763312502   15.026224285
    1.578297162   14.013209226   11.784809550   15.055573938
    1.585475793   14.041262331   11.806497362   15.085188359
    1.592654424   14.069590345   11.828377827   15.115070250
    1.599833055   14.098196672   11.850452839   15.145222341
    1.607011686   14.127084782   11.872724374   15.175647439
    1.614190317   14.156258218   11.895194526   15.206348449
    1.621368948   14.185720584   11.917865318   15.237328259
    1.628547579   14.215475544   11.940738771   15.268589778
    1.635726210   14.245526859   11.963816958   15.300135976
    1.642904841   14.275878414   11.987101998   15.331969879
    1.650083472   14.306534121   12.010596047   15.364094564
    1.657262104   14.337497958   12.034301294   15.396513156
    1.664440735   14.368773995   12.058219963   15.429228831
    1.671619366   14.400366394   12.082354314   15.462244815
    1.678797997   14.432279407   12.106706645   15.495564394
    1.685976628   14.464517374   12.131279287   15.529190902
    1.693155259   14.497084730   12.156074612   15.563127729
    1.700333890   14.529986003   12.181095028   15.597378318
    1.707512521   14.563225820   12.206342983   15.631946171
    1.714691152   14.596808909   12.231820966   15.666834849
    1.721869783   14.630740101   12.257531505   15.702047970
    1.729048414   14.665024335   12.283477171   15.737589215
    1.736227045   14.699666656   12.309660577   15.773462327
    1.743405676   14.734672225   12.336084378   15.809671111
    1.750584307   14.770046326   12.362751274   15.846219436
    1.757762938   14.805794358   12.389664012   15.883111241
    1.764941569   14.841921841   12.416825385   15.920350528
    1.772120200   14.878434423   12.444238234   15.957941370
    1.779298831   14.915337885   12.471905444   15.995887909
    1.786477462   14.952638142   12.499829952   16.034194361
    1.793656093   14.990341252   12.528014743   16.072865012
    1.800834725   15.028453414   12.556462857   16.111904226
    1.808013356   15.066980977   12.585177383   16.151316442
    1.815191987   15.105930444   12.614161464   16.191106179
    1.822370618   15.145308477   12.643418301   16.231278035
    1.829549249   15.185121901   12.672951147   16.271836690
    1.836727880   15.225377708   12.702763314   16.312786909
    1.843906511   15.266083066   12.732858172   16.354133542
    1.851085142   15.307245328   12.763239151   16.395881526
    1.858263773   15.348872031   12.793909744   16.438035888
    1.865442404   15.390970904   12.824873499   16.480601738
    1.872621035   15.433549875   12.856134010   16.523584257
    1.879799666   15.476617079   12.887694905   16.566988683
    1.886978297   15.520180865   12.919559954   16.610820447
    1.894156928   15.564249809   12.951733105   16.655085232
    1.901335559   15.608832710   12.984218242   16.699788648
    1.908514190   15.653938608   13.017019277   16.744936340
    1.915692821   15.699576786   13.050140221   16.790534106
    1.922871452   15.745756784   13.083585179   16.836587874
    1.930050083   15.792488408   13.117358334   16.883103688
    1.937228715   15.839781737   13.151463950   16.930087712
    1.944407346   15.887647138   13.185906370   16.977546227
    1.951585977   15.936095270   13.220690021   17.025485637
    1.958764608   15.985137103   13.255819413   17.073912469
    1.965943239   16.034783924   13.291299144   17.122833379
    1.973121870   16.085047354   13.327133898   17.172255151
    1.980300501   16.135939356   13.363328453   17.222184707
    1.987479132   16.187472256   13.399887677   17.272629105
    1.994657763   16.239658748   13.436816537   17.323595542
    2.001836394   16.292511919   13.474120093   17.375091364
    2.009015025   16.346045253   13.511803509   17.427124061
    2.016193656   16.400272652   13.549872048   17.479701279
    2.023372287   16.455208471   13.588331084   17.532830818
    2.030550918   16.510867545   13.627186099   17.586520640
    2.037729549   16.567265159   13.666442683   17.640778872
    2.044908180   16.624417088   13.706106538   17.695613806
    2.052086811   16.682339633   13.746183475   17.751033900
    2.059265442   16.741049637   13.786679408   17.807047774
    2.066444073   16.800564509   13.827600400   17.863664259
    2.073622705   16.860902272   13.868952711   17.920892443
    2.080801336   16.922081574   13.910742675   17.978741547
    2.087979967   16.984121691   13.952976717   18.037220957
    2.095158598   17.047042578   13.995661418   18.096340277
    2.102337229   17.110864904   14.038803501   18.156109330
    2.109515860   17.175610077   14.082409825   18.216538158
    2.116694491   17.241300286   14.126487396   18.277637028
    2.123873122   17.307958597   14.171043437   18.339416438
    2.131051753   17.375608932   14.216085307   18.401887103
    2.138230384   17.444276066   14.261620431   18.465059933
    2.145409015   17.513985719   14.307656440   18.528946038
    2.152587646   17.584764583   14.354201199   18.593556512
    2.159766277   17.656640373   14.401262704   18.658902381
    2.166944908   17.729642111   14.448849217   18.724996535
    2.174123539   17.803800094   14.496969259   18.791852844
    2.181302170   17.879145584   14.545631342   18.859483426
    2.188480801   17.955711108   14.594844141   18.927900533
    2.195659432   18.033530603   14.644616569   18.997117127
    2.202838063   18.112639534   14.694957823   19.067146651
    2.210016694   18.193074944   14.745877392   19.138002952
    2.217195326   18.274875418   14.797384913   19.209700230
    2.224373957   18.358081246   14.849490212   19.282252983
    2.231552588   18.442734584   14.902203360   19.355676056
    2.238731219   18.528879521   14.955534688   19.429984673
    2.245909850   18.616562172   15.009494774   19.505194432
    2.253088481   18.705830825   15.064094442   19.581321321
    2.260267112   18.796736096   15.119344815   19.658381763
    2.267445743   18.889331094   15.175257369   19.736392626
    2.274624374   18.983671528   15.231843801   19.815371172
    2.281803005   19.079815885   15.289116059   19.895335097
    2.288981636   19.177825632   15.347086383   19.976302563
    2.296160267   19.277765408   15.405767297   20.058292206
    2.303338898   19.379703314   15.465171776   20.141323195
    2.310517529   19.483711151   15.525313313   20.225415256
    2.317696160   19.589864540   15.586205532   20.310588592
    2.324874791   19.698243262   15.647862318   20.396863933
    2.332053422   19.808931601   15.710297966   20.484262588
    2.339232053   19.922018707   15.773527306   20.572806505
    2.346410684   20.037598923   15.837565594   20.662518249
    2.353589316   20.155772169   15.902428226   20.753420944
    2.360767947   20.276644413   15.968130636   20.845538285
    2.367946578   20.400328073   16.034688502   20.938894578
    2.375125209   20.526942842   16.102120000   21.033515464
    2.382303840   20.656616123   16.170444258   21.129427434
    2.389482471   20.789483334   16.239678604   21.226657075
    2.396661102   20.925688895   16.309840843   21.325231783
    2.403839733   21.065387069   16.380949789   21.425179931
    2.411018364   21.208742800   16.453024993   21.526530817
    2.418196995   21.355932669   16.526086637   21.629314657
    2.425375626   21.507145950   16.600155528   21.733562587
    2.432554257   21.662585775   16.675253106   21.839306632
    2.439732888   21.822470515   16.751401475   21.946579748
    2.446911519   21.987035620   16.828623491   22.055416414
    2.454090150   22.156535003   16.906942758   22.165852256
    2.461268781   22.331242633   16.986383539   22.277923646
    2.468447412   22.511455080   17.066970827   22.391668943
    2.475626043   22.697493841   17.148730585   22.507127409
    2.482804674   22.889708071   17.231689986   22.624339476
    2.489983306   23.088477728   17.315876791   22.743346969
    2.497161937   23.294217100   17.401319445   22.864193129
    2.504340568   23.507378867   17.488047634   22.986922911
    2.511519199   23.728458768   17.576092625   23.111583272
    2.518697830   23.958000881   17.665486534   23.238222822
    2.525876461   24.196603832   17.756262338   23.366891886
    2.533055092   24.444928031   17.848454153   23.497642980
    2.540233723   24.703703715   17.942097035   23.630529925
