# energy grid [eV]     ieps_x  ieps_y  ieps_z
#
    0.200000000    7.120438112    1.748810747    7.141525026
    0.207178631    7.119036382    1.748651182    7.140181099
    0.214357262    7.117585947    1.748486064    7.138790431
    0.221535893    7.116086883    1.748315400    7.137353089
    0.228714524    7.114539265    1.748139198    7.135869141
    0.235893155    7.112943172    1.747957467    7.134338660
    0.243071786    7.111298688    1.747770214    7.132761718
    0.250250417    7.109605894    1.747577449    7.131138391
    0.257429048    7.107864878    1.747379179    7.129468756
    0.264607679    7.106075729    1.747175415    7.127752893
    0.271786311    7.104238537    1.746966165    7.125990884
    0.278964942    7.102353396    1.746751438    7.124182812
    0.286143573    7.100420401    1.746531245    7.122328764
    0.293322204    7.098439652    1.746305596    7.120428828
    0.300500835    7.096411247    1.746074501    7.118483094
    0.307679466    7.094335290    1.745837970    7.116491655
    0.314858097    7.092211887    1.745596013    7.114454605
    0.322036728    7.090041143    1.745348643    7.112372039
    0.329215359    7.087823169    1.745095870    7.110244058
    0.336393990    7.085558076    1.744837705    7.108070761
    0.343572621    7.083245979    1.744574161    7.105852251
    0.350751252    7.080886993    1.744305248    7.103588632
    0.357929883    7.078481237    1.744030980    7.101280011
    0.365108514    7.076028831    1.743751368    7.098926496
    0.372287145    7.073529898    1.743466425    7.096528199
    0.379465776    7.070984564    1.743176163    7.094085231
    0.386644407    7.068392954    1.742880597    7.091597706
    0.393823038    7.065755198    1.742579738    7.089065742
    0.401001669    7.063071428    1.742273601    7.086489456
    0.408180301    7.060341776    1.741962199    7.083868969
    0.415358932    7.057566378    1.741645546    7.081204402
    0.422537563    7.054745371    1.741323655    7.078495879
    0.429716194    7.051878895    1.740996543    7.075743527
    0.436894825    7.048967091    1.740664221    7.072947472
    0.444073456    7.046010103    1.740326707    7.070107845
    0.451252087    7.043008075    1.739984014    7.067224775
    0.458430718    7.039961156    1.739636157    7.064298397
    0.465609349    7.036869495    1.739283153    7.061328846
    0.472787980    7.033733242    1.738925015    7.058316257
    0.479966611    7.030552552    1.738561761    7.055260769
    0.487145242    7.027327578    1.738193407    7.052162522
    0.494323873    7.024058479    1.737819967    7.049021658
    0.501502504    7.020745411    1.737441459    7.045838320
    0.508681135    7.017388537    1.737057900    7.042612654
    0.515859766    7.013988019    1.736669305    7.039344806
    0.523038397    7.010544019    1.736275692    7.036034925
    0.530217028    7.007056706    1.735877078    7.032683161
    0.537395659    7.003526245    1.735473480    7.029289665
    0.544574290    6.999952806    1.735064916    7.025854592
    0.551752922    6.996336561    1.734651403    7.022378095
    0.558931553    6.992677682    1.734232959    7.018860332
    0.566110184    6.988976344    1.733809603    7.015301459
    0.573288815    6.985232722    1.733381352    7.011701638
    0.580467446    6.981446994    1.732948225    7.008061029
    0.587646077    6.977619339    1.732510240    7.004379794
    0.594824708    6.973749939    1.732067417    7.000658097
    0.602003339    6.969838975    1.731619773    6.996896105
    0.609181970    6.965886631    1.731167328    6.993093983
    0.616360601    6.961893094    1.730710102    6.989251901
    0.623539232    6.957858549    1.730248113    6.985370027
    0.630717863    6.953783185    1.729781382    6.981448534
    0.637896494    6.949667192    1.729309928    6.977487593
    0.645075125    6.945510761    1.728833770    6.973487379
    0.652253756    6.941314084    1.728352929    6.969448067
    0.659432387    6.937077357    1.727867426    6.965369832
    0.666611018    6.932800773    1.727377280    6.961252853
    0.673789649    6.928484530    1.726882511    6.957097310
    0.680968280    6.924128826    1.726383142    6.952903381
    0.688146912    6.919733860    1.725879191    6.948671249
    0.695325543    6.915299832    1.725370681    6.944401097
    0.702504174    6.910826945    1.724857632    6.940093108
    0.709682805    6.906315401    1.724340066    6.935747467
    0.716861436    6.901765405    1.723818003    6.931364362
    0.724040067    6.897177162    1.723291466    6.926943978
    0.731218698    6.892550879    1.722760476    6.922486505
    0.738397329    6.887886762    1.722225055    6.917992133
    0.745575960    6.883185022    1.721685224    6.913461051
    0.752754591    6.878445868    1.721141006    6.908893452
    0.759933222    6.873669510    1.720592422    6.904289529
    0.767111853    6.868856162    1.720039496    6.899649475
    0.774290484    6.864006035    1.719482249    6.894973486
    0.781469115    6.859119344    1.718920704    6.890261756
    0.788647746    6.854196304    1.718354883    6.885514483
    0.795826377    6.849237130    1.717784809    6.880731864
    0.803005008    6.844242040    1.717210505    6.875914099
    0.810183639    6.839211252    1.716631995    6.871061386
    0.817362270    6.834144983    1.716049300    6.866173926
    0.824540902    6.829043454    1.715462445    6.861251921
    0.831719533    6.823906884    1.714871452    6.856295571
    0.838898164    6.818735495    1.714276344    6.851305081
    0.846076795    6.813529510    1.713677146    6.846280654
    0.853255426    6.808289149    1.713073881    6.841222495
    0.860434057    6.803014638    1.712466572    6.836130809
    0.867612688    6.797706199    1.711855243    6.831005801
    0.874791319    6.792364059    1.711239919    6.825847679
    0.881969950    6.786988442    1.710620622    6.820656651
    0.889148581    6.781579575    1.709997377    6.815432923
    0.896327212    6.776137685    1.709370209    6.810176706
    0.903505843    6.770662998    1.708739140    6.804888208
    0.910684474    6.765155744    1.708104196    6.799567640
    0.917863105    6.759616150    1.707465401    6.794215213
    0.925041736    6.754044447    1.706822779    6.788831137
    0.932220367    6.748440863    1.706176354    6.783415625
    0.939398998    6.742805629    1.705526152    6.777968889
    0.946577629    6.737138975    1.704872197    6.772491143
    0.953756260    6.731441133    1.704214514    6.766982598
    0.960934891    6.725712335    1.703553126    6.761443471
    0.968113523    6.719952811    1.702888060    6.755873974
    0.975292154    6.714162796    1.702219340    6.750274323
    0.982470785    6.708342521    1.701546990    6.744644734
    0.989649416    6.702492219    1.700871037    6.738985421
    0.996828047    6.696612125    1.700191504    6.733296602
    1.004006678    6.690702472    1.699508418    6.727578493
    1.011185309    6.684763493    1.698821803    6.721831310
    1.018363940    6.678795424    1.698131684    6.716055272
    1.025542571    6.672798499    1.697438087    6.710250595
    1.032721202    6.666772953    1.696741036    6.704417497
    1.039899833    6.660719021    1.696040558    6.698556198
    1.047078464    6.654636938    1.695336678    6.692666915
    1.054257095    6.648526940    1.694629420    6.686749867
    1.061435726    6.642389262    1.693918811    6.680805273
    1.068614357    6.636224140    1.693204876    6.674833352
    1.075792988    6.630031810    1.692487641    6.668834324
    1.082971619    6.623812507    1.691767130    6.662808409
    1.090150250    6.617566469    1.691043370    6.656755825
    1.097328881    6.611293930    1.690316386    6.650676794
    1.104507513    6.604995127    1.689586204    6.644571534
    1.111686144    6.598670296    1.688852849    6.638440267
    1.118864775    6.592319674    1.688116347    6.632283213
    1.126043406    6.585943495    1.687376724    6.626100591
    1.133222037    6.579541998    1.686634005    6.619892623
    1.140400668    6.573115416    1.685888217    6.613659529
    1.147579299    6.566663987    1.685139384    6.607401529
    1.154757930    6.560187947    1.684387533    6.601118844
    1.161936561    6.553687530    1.683632689    6.594811695
    1.169115192    6.547162973    1.682874878    6.588480301
    1.176293823    6.540614512    1.682114126    6.582124885
    1.183472454    6.534042380    1.681350458    6.575745665
    1.190651085    6.527446815    1.680583901    6.569342863
    1.197829716    6.520828050    1.679814479    6.562916698
    1.205008347    6.514186321    1.679042220    6.556467392
    1.212186978    6.507521861    1.678267148    6.549995163
    1.219365609    6.500834906    1.677489289    6.543500233
    1.226544240    6.494125689    1.676708670    6.536982821
    1.233722871    6.487394444    1.675925315    6.530443146
    1.240901503    6.480641405    1.675139250    6.523881429
    1.248080134    6.473866804    1.674350502    6.517297888
    1.255258765    6.467070875    1.673559096    6.510692743
    1.262437396    6.460253850    1.672765057    6.504066213
    1.269616027    6.453415962    1.671968411    6.497418516
    1.276794658    6.446557441    1.671169184    6.490749871
    1.283973289    6.439678519    1.670367402    6.484060496
    1.291151920    6.432779429    1.669563089    6.477350610
    1.298330551    6.425860399    1.668756272    6.470620429
    1.305509182    6.418921660    1.667946976    6.463870172
    1.312687813    6.411963442    1.667135227    6.457100054
    1.319866444    6.404985975    1.666321050    6.450310294
    1.327045075    6.397989486    1.665504471    6.443501108
    1.334223706    6.390974205    1.664685514    6.436672710
    1.341402337    6.383940359    1.663864206    6.429825319
    1.348580968    6.376888176    1.663040572    6.422959148
    1.355759599    6.369817883    1.662214637    6.416074412
    1.362938230    6.362729705    1.661386426    6.409171327
    1.370116861    6.355623868    1.660555965    6.402250106
    1.377295492    6.348500598    1.659723278    6.395310963
    1.384474124    6.341360119    1.658888392    6.388354111
    1.391652755    6.334202656    1.658051330    6.381379764
    1.398831386    6.327028431    1.657212119    6.374388133
    1.406010017    6.319837668    1.656370783    6.367379431
    1.413188648    6.312630589    1.655527347    6.360353869
    1.420367279    6.305407415    1.654681836    6.353311658
    1.427545910    6.298168368    1.653834275    6.346253008
    1.434724541    6.290913667    1.652984688    6.339178130
    1.441903172    6.283643533    1.652133101    6.332087232
    1.449081803    6.276358183    1.651279539    6.324980524
    1.456260434    6.269057838    1.650424025    6.317858213
    1.463439065    6.261742713    1.649566585    6.310720509
    1.470617696    6.254413026    1.648707243    6.303567617
    1.477796327    6.247068994    1.647846023    6.296399746
    1.484974958    6.239710831    1.646982951    6.289217099
    1.492153589    6.232338753    1.646118050    6.282019884
    1.499332220    6.224952973    1.645251344    6.274808305
    1.506510851    6.217553704    1.644382858    6.267582566
    1.513689482    6.210141160    1.643512616    6.260342870
    1.520868114    6.202715551    1.642640643    6.253089422
    1.528046745    6.195277089    1.641766961    6.245822422
    1.535225376    6.187825984    1.640891596    6.238542073
    1.542404007    6.180362445    1.640014571    6.231248576
    1.549582638    6.172886680    1.639135910    6.223942131
    1.556761269    6.165398898    1.638255636    6.216622938
    1.563939900    6.157899304    1.637373773    6.209291196
    1.571118531    6.150388107    1.636490346    6.201947103
    1.578297162    6.142865509    1.635605377    6.194590857
    1.585475793    6.135331717    1.634718890    6.187222654
    1.592654424    6.127786933    1.633830908    6.179842691
    1.599833055    6.120231360    1.632941455    6.172451163
    1.607011686    6.112665200    1.632050553    6.165048266
    1.614190317    6.105088654    1.631158227    6.157634192
    1.621368948    6.097501923    1.630264499    6.150209135
    1.628547579    6.089905204    1.629369392    6.142773289
    1.635726210    6.082298696    1.628472928    6.135326843
    1.642904841    6.074682598    1.627575132    6.127869990
    1.650083472    6.067057105    1.626676025    6.120402920
    1.657262104    6.059422413    1.625775630    6.112925821
    1.664440735    6.051778716    1.624873970    6.105438883
    1.671619366    6.044126209    1.623971067    6.097942294
    1.678797997    6.036465084    1.623066943    6.090436240
    1.685976628    6.028795533    1.622161622    6.082920908
    1.693155259    6.021117748    1.621255125    6.075396483
    1.700333890    6.013431917    1.620347474    6.067863150
    1.707512521    6.005738230    1.619438691    6.060321092
    1.714691152    5.998036876    1.618528798    6.052770493
    1.721869783    5.990328042    1.617617818    6.045211535
    1.729048414    5.982611913    1.616705771    6.037644399
    1.736227045    5.974888675    1.615792680    6.030069265
    1.743405676    5.967158512    1.614878566    6.022486313
    1.750584307    5.959421608    1.613963451    6.014895722
    1.757762938    5.951678145    1.613047355    6.007297670
    1.764941569    5.943928305    1.612130301    5.999692333
    1.772120200    5.936172267    1.611212310    5.992079889
    1.779298831    5.928410211    1.610293402    5.984460512
    1.786477462    5.920642315    1.609373598    5.976834377
    1.793656093    5.912868758    1.608452920    5.969201657
    1.800834725    5.905089715    1.607531388    5.961562526
    1.808013356    5.897305362    1.606609024    5.953917154
    1.815191987    5.889515873    1.605685847    5.946265714
    1.822370618    5.881721422    1.604761878    5.938608374
    1.829549249    5.873922181    1.603837138    5.930945305
    1.836727880    5.866118321    1.602911646    5.923276673
    1.843906511    5.858310014    1.601985424    5.915602648
    1.851085142    5.850497428    1.601058491    5.907923395
    1.858263773    5.842680732    1.600130867    5.900239079
    1.865442404    5.834860093    1.599202572    5.892549866
    1.872621035    5.827035677    1.598273626    5.884855920
    1.879799666    5.819207650    1.597344049    5.877157402
    1.886978297    5.811376177    1.596413860    5.869454475
    1.894156928    5.803541420    1.595483078    5.861747300
    1.901335559    5.795703542    1.594551724    5.854036038
    1.908514190    5.787862704    1.593619816    5.846320846
    1.915692821    5.780019066    1.592687374    5.838601884
    1.922871452    5.772172788    1.591754417    5.830879309
    1.930050083    5.764324027    1.590820963    5.823153277
    1.937228715    5.756472941    1.589887031    5.815423943
    1.944407346    5.748619686    1.588952641    5.807691463
    1.951585977    5.740764418    1.588017811    5.799955990
    1.958764608    5.732907289    1.587082559    5.792217676
    1.965943239    5.725048454    1.586146905    5.784476673
    1.973121870    5.717188064    1.585210865    5.776733132
    1.980300501    5.709326270    1.584274459    5.768987204
    1.987479132    5.701463222    1.583337705    5.761239036
    1.994657763    5.693599070    1.582400620    5.753488776
    2.001836394    5.685733960    1.581463223    5.745736573
    2.009015025    5.677868040    1.580525531    5.737982572
    2.016193656    5.670001457    1.579587563    5.730226918
    2.023372287    5.662134353    1.578649334    5.722469756
    2.030550918    5.654266874    1.577710865    5.714711228
    2.037729549    5.646399163    1.576772170    5.706951477
    2.044908180    5.638531360    1.575833268    5.699190645
    2.052086811    5.630663607    1.574894177    5.691428872
    2.059265442    5.622796043    1.573954912    5.683666298
    2.066444073    5.614928807    1.573015491    5.675903060
    2.073622705    5.607062037    1.572075931    5.668139298
    2.080801336    5.599195870    1.571136249    5.660375147
    2.087979967    5.591330440    1.570196460    5.652610744
    2.095158598    5.583465883    1.569256582    5.644846223
    2.102337229    5.575602332    1.568316631    5.637081718
    2.109515860    5.567739919    1.567376624    5.629317362
    2.116694491    5.559878777    1.566436575    5.621553287
    2.123873122    5.552019036    1.565496503    5.613789624
    2.131051753    5.544160825    1.564556422    5.606026504
    2.138230384    5.536304274    1.563616348    5.598264056
    2.145409015    5.528449508    1.562676297    5.590502407
    2.152587646    5.520596656    1.561736285    5.582741686
    2.159766277    5.512745842    1.560796328    5.574982018
    2.166944908    5.504897191    1.559856440    5.567223529
    2.174123539    5.497050827    1.558916637    5.559466345
    2.181302170    5.489206871    1.557976934    5.551710587
    2.188480801    5.481365447    1.557037347    5.543956380
    2.195659432    5.473526673    1.556097890    5.536203845
    2.202838063    5.465690671    1.555158578    5.528453102
    2.210016694    5.457857557    1.554219426    5.520704272
    2.217195326    5.450027451    1.553280449    5.512957474
    2.224373957    5.442200468    1.552341661    5.505212825
    2.231552588    5.434376724    1.551403076    5.497470443
    2.238731219    5.426556334    1.550464710    5.489730445
    2.245909850    5.418739412    1.549526576    5.481992945
    2.253088481    5.410926069    1.548588688    5.474258058
    2.260267112    5.403116419    1.547651061    5.466525897
    2.267445743    5.395310571    1.546713708    5.458796576
    2.274624374    5.387508636    1.545776643    5.451070205
    2.281803005    5.379710722    1.544839880    5.443346896
    2.288981636    5.371916938    1.543903432    5.435626759
    2.296160267    5.364127390    1.542967314    5.427909902
    2.303338898    5.356342184    1.542031537    5.420196434
    2.310517529    5.348561426    1.541096116    5.412486461
    2.317696160    5.340785218    1.540161064    5.404780091
    2.324874791    5.333013666    1.539226394    5.397077428
    2.332053422    5.325246870    1.538292119    5.389378577
    2.339232053    5.317484933    1.537358251    5.381683642
    2.346410684    5.309727954    1.536424804    5.373992725
    2.353589316    5.301976033    1.535491790    5.366305928
    2.360767947    5.294229269    1.534559221    5.358623353
    2.367946578    5.286487759    1.533627111    5.350945100
    2.375125209    5.278751599    1.532695471    5.343271267
    2.382303840    5.271020886    1.531764314    5.335601953
    2.389482471    5.263295715    1.530833652    5.327937256
    2.396661102    5.255576179    1.529903496    5.320277272
    2.403839733    5.247862371    1.528973859    5.312622098
    2.411018364    5.240154385    1.528044753    5.304971827
    2.418196995    5.232452310    1.527116189    5.297326554
    2.425375626    5.224756237    1.526188180    5.289686373
    2.432554257    5.217066256    1.525260735    5.282051375
    2.439732888    5.209382456    1.524333868    5.274421653
    2.446911519    5.201704924    1.523407589    5.266797296
    2.454090150    5.194033746    1.522481909    5.259178395
    2.461268781    5.186369010    1.521556841    5.251565039
    2.468447412    5.178710800    1.520632393    5.243957316
    2.475626043    5.171059200    1.519708579    5.236355312
    2.482804674    5.163414294    1.518785408    5.228759116
    2.489983306    5.155776164    1.517862890    5.221168812
    2.497161937    5.148144892    1.516941038    5.213584485
    2.504340568    5.140520559    1.516019861    5.206006220
    2.511519199    5.132903245    1.515099370    5.198434099
    2.518697830    5.125293029    1.514179575    5.190868206
    2.525876461    5.117689989    1.513260486    5.183308620
    2.533055092    5.110094202    1.512342114    5.175755425
    2.540233723    5.102505746    1.511424468    5.168208698
