# energy grid [eV]     epsr_x  epsr_y  epsr_z
#
    0.200000000   14.928315276   14.623079568   13.778575792
    0.207178631   14.931573394   14.626390095   13.781601783
    0.214357262   14.934948108   14.629819169   13.784736089
    0.221535893   14.938439600   14.633366980   13.787978879
    0.228714524   14.942048055   14.637033726   13.791330329
    0.235893155   14.945773665   14.640819610   13.794790620
    0.243071786   14.949616630   14.644724843   13.798359940
    0.250250417   14.953577155   14.648749644   13.802038483
    0.257429048   14.957655453   14.652894236   13.805826449
    0.264607679   14.961851741   14.657158852   13.809724043
    0.271786311   14.966166244   14.661543730   13.813731479
    0.278964942   14.970599195   14.666049116   13.817848974
    0.286143573   14.975150832   14.670675261   13.822076754
    0.293322204   14.979821398   14.675422426   13.826415049
    0.300500835   14.984611147   14.680290878   13.830864097
    0.307679466   14.989520335   14.685280890   13.835424141
    0.314858097   14.994549229   14.690392744   13.840095432
    0.322036728   14.999698101   14.695626728   13.844878226
    0.329215359   15.004967228   14.700983137   13.849772785
    0.336393990   15.010356896   14.706462275   13.854779380
    0.343572621   15.015867399   14.712064451   13.859898287
    0.350751252   15.021499034   14.717789985   13.865129787
    0.357929883   15.027252110   14.723639200   13.870474171
    0.365108514   15.033126939   14.729612430   13.875931734
    0.372287145   15.039123843   14.735710016   13.881502778
    0.379465776   15.045243148   14.741932304   13.887187614
    0.386644407   15.051485190   14.748279651   13.892986557
    0.393823038   15.057850312   14.754752420   13.898899930
    0.401001669   15.064338861   14.761350982   13.904928063
    0.408180301   15.070951197   14.768075716   13.911071294
    0.415358932   15.077687682   14.774927009   13.917329965
    0.422537563   15.084548689   14.781905257   13.923704428
    0.429716194   15.091534597   14.789010861   13.930195041
    0.436894825   15.098645792   14.796244233   13.936802170
    0.444073456   15.105882669   14.803605792   13.943526185
    0.451252087   15.113245631   14.811095966   13.950367468
    0.458430718   15.120735086   14.818715189   13.957326405
    0.465609349   15.128351453   14.826463907   13.964403390
    0.472787980   15.136095158   14.834342572   13.971598826
    0.479966611   15.143966633   14.842351644   13.978913122
    0.487145242   15.151966321   14.850491593   13.986346695
    0.494323873   15.160094671   14.858762897   13.993899969
    0.501502504   15.168352140   14.867166044   14.001573376
    0.508681135   15.176739195   14.875701528   14.009367358
    0.515859766   15.185256309   14.884369855   14.017282361
    0.523038397   15.193903966   14.893171538   14.025318842
    0.530217028   15.202682656   14.902107100   14.033477264
    0.537395659   15.211592880   14.911177073   14.041758100
    0.544574290   15.220635143   14.920381997   14.050161829
    0.551752922   15.229809965   14.929722423   14.058688940
    0.558931553   15.239117870   14.939198911   14.067339929
    0.566110184   15.248559393   14.948812029   14.076115302
    0.573288815   15.258135076   14.958562358   14.085015571
    0.580467446   15.267845472   14.968450484   14.094041259
    0.587646077   15.277691143   14.978477008   14.103192896
    0.594824708   15.287672659   14.988642536   14.112471022
    0.602003339   15.297790600   14.998947687   14.121876184
    0.609181970   15.308045555   15.009393089   14.131408940
    0.616360601   15.318438123   15.019979382   14.141069856
    0.623539232   15.328968912   15.030707213   14.150859506
    0.630717863   15.339638539   15.041577242   14.160778475
    0.637896494   15.350447633   15.052590139   14.170827357
    0.645075125   15.361396831   15.063746585   14.181006754
    0.652253756   15.372486780   15.075047270   14.191317278
    0.659432387   15.383718138   15.086492897   14.201759553
    0.666611018   15.395091574   15.098084178   14.212334208
    0.673789649   15.406607763   15.109821839   14.223041886
    0.680968280   15.418267397   15.121706615   14.233883238
    0.688146912   15.430071172   15.133739253   14.244858925
    0.695325543   15.442019799   15.145920511   14.255969618
    0.702504174   15.454113999   15.158251159   14.267216000
    0.709682805   15.466354503   15.170731981   14.278598763
    0.716861436   15.478742052   15.183363769   14.290118608
    0.724040067   15.491277401   15.196147329   14.301776249
    0.731218698   15.503961314   15.209083481   14.313572410
    0.738397329   15.516794567   15.222173054   14.325507826
    0.745575960   15.529777949   15.235416893   14.337583242
    0.752754591   15.542912258   15.248815853   14.349799415
    0.759933222   15.556198306   15.262370802   14.362157114
    0.767111853   15.569636915   15.276082624   14.374657117
    0.774290484   15.583228923   15.289952212   14.387300216
    0.781469115   15.596975175   15.303980476   14.400087213
    0.788647746   15.610876532   15.318168337   14.413018924
    0.795826377   15.624933868   15.332516730   14.426096174
    0.803005008   15.639148066   15.347026607   14.439319802
    0.810183639   15.653520027   15.361698929   14.452690660
    0.817362270   15.668050661   15.376534675   14.466209611
    0.824540902   15.682740894   15.391534838   14.479877531
    0.831719533   15.697591664   15.406700424   14.493695308
    0.838898164   15.712603920   15.422032455   14.507663845
    0.846076795   15.727778621   15.437531968   14.521784055
    0.853255426   15.743116717   15.453200014   14.536056860
    0.860434057   15.758619149   15.469037660   14.550483194
    0.867612688   15.774286984   15.485045989   14.565064022
    0.874791319   15.790121356   15.501226105   14.579800333
    0.881969950   15.806123272   15.517579121   14.594693104
    0.889148581   15.822293741   15.534106168   14.609743326
    0.896327212   15.838633817   15.550808393   14.624952008
    0.903505843   15.855144580   15.567686963   14.640320176
    0.910684474   15.871827128   15.584743058   14.655848871
    0.917863105   15.888682574   15.601977878   14.671539149
    0.925041736   15.905712046   15.619392640   14.687392083
    0.932220367   15.922916682   15.636988575   14.703408757
    0.939398998   15.940297615   15.654766926   14.719590270
    0.946577629   15.957855988   15.672728951   14.735937735
    0.953756260   15.975593068   15.690875965   14.752452297
    0.960934891   15.993510138   15.709209300   14.769135119
    0.968113523   16.011608391   15.727730273   14.785987362
    0.975292154   16.029889047   15.746440220   14.803010206
    0.982470785   16.048353362   15.765340504   14.820204853
    0.989649416   16.067002618   15.784432513   14.837572520
    0.996828047   16.085838117   15.803717654   14.855114445
    1.004006678   16.104861179   15.823197354   14.872831882
    1.011185309   16.124073144   15.842873062   14.890726103
    1.018363940   16.143475370   15.862746249   14.908798400
    1.025542571   16.163069237   15.882818407   14.927050083
    1.032721202   16.182856140   15.903091049   14.945482480
    1.039899833   16.202837499   15.923565711   14.964096939
    1.047078464   16.223014752   15.944243954   14.982894830
    1.054257095   16.243389357   15.965127358   15.001877538
    1.061435726   16.263962795   15.986217528   15.021046473
    1.068614357   16.284736567   16.007516093   15.040403060
    1.075792988   16.305712197   16.029024699   15.059948742
    1.082971619   16.326891228   16.050745015   15.079684981
    1.090150250   16.348275230   16.072678757   15.099613282
    1.097328881   16.369865793   16.094827674   15.119735180
    1.104507513   16.391664531   16.117193513   15.140052204
    1.111686144   16.413673078   16.139778045   15.160565905
    1.118864775   16.435893092   16.162583076   15.181277863
    1.126043406   16.458326265   16.185610440   15.202189682
    1.133222037   16.480974310   16.208862001   15.223302990
    1.140400668   16.503838960   16.232339648   15.244619442
    1.147579299   16.526921974   16.256045301   15.266140715
    1.154757930   16.550225138   16.279980906   15.287868512
    1.161936561   16.573750264   16.304148440   15.309804561
    1.169115192   16.597499193   16.328549912   15.331950616
    1.176293823   16.621473792   16.353187360   15.354308457
    1.183472454   16.645675955   16.378062852   15.376879891
    1.190651085   16.670107605   16.403178491   15.399666752
    1.197829716   16.694770691   16.428536408   15.422670901
    1.205008347   16.719667194   16.454138771   15.445894228
    1.212186978   16.744799128   16.479987780   15.469338654
    1.219365609   16.770168537   16.506085667   15.493006125
    1.226544240   16.795777488   16.532434702   15.516898619
    1.233722871   16.821628084   16.559037189   15.541018143
    1.240901503   16.847722460   16.585895467   15.565366737
    1.248080134   16.874062782   16.613011914   15.589946469
    1.255258765   16.900651250   16.640388942   15.614759442
    1.262437396   16.927490098   16.668029002   15.639807786
    1.269616027   16.954581593   16.695934575   15.665093661
    1.276794658   16.981928036   16.724108168   15.690619244
    1.283973289   17.009531762   16.752552353   15.716386771
    1.291151920   17.037395136   16.781269794   15.742398563
    1.298330551   17.065520574   16.810263151   15.768656932
    1.305509182   17.093910544   16.839535104   15.795164209
    1.312687813   17.122567529   16.869088381   15.821922759
    1.319866444   17.151494043   16.898925757   15.848934991
    1.327045075   17.180692638   16.929050054   15.876203353
    1.334223706   17.210165905   16.959464155   15.903730345
    1.341402337   17.239916480   16.990170989   15.931518505
    1.348580968   17.269947096   17.021173520   15.959570407
    1.355759599   17.300260515   17.052474764   15.987888665
    1.362938230   17.330859486   17.084077788   16.016475935
    1.370116861   17.361746811   17.115985707   16.045334914
    1.377295492   17.392925350   17.148201694   16.074468348
    1.384474124   17.424398010   17.180728970   16.103879025
    1.391652755   17.456167748   17.213570812   16.133569779
    1.398831386   17.488237568   17.246730551   16.163543490
    1.406010017   17.520610522   17.280211577   16.193803088
    1.413188648   17.553289713   17.314017333   16.224351549
    1.420367279   17.586278294   17.348151323   16.255191899
    1.427545910   17.619579470   17.382617112   16.286327215
    1.434724541   17.653196500   17.417418323   16.317760624
    1.441903172   17.687132694   17.452558644   16.349495307
    1.449081803   17.721391419   17.488041826   16.381534499
    1.456260434   17.755976099   17.523871683   16.413881488
    1.463439065   17.790890214   17.560052098   16.446539619
    1.470617696   17.826137303   17.596587022   16.479512294
    1.477796327   17.861720964   17.633480473   16.512802973
    1.484974958   17.897644857   17.670736543   16.546415176
    1.492153589   17.933912704   17.708359393   16.580352483
    1.499332220   17.970528291   17.746353262   16.614618538
    1.506510851   18.007495469   17.784722462   16.649217046
    1.513689482   18.044818153   17.823471384   16.684151779
    1.520868114   18.082500329   17.862604497   16.719426575
    1.528046745   18.120546043   17.902126352   16.755045338
    1.535225376   18.158959409   17.942041578   16.791012044
    1.542404007   18.197744630   17.982354889   16.827330737
    1.549582638   18.236906000   18.023071081   16.864005537
    1.556761269   18.276447870   18.064195061   16.901040634
    1.563939900   18.316374661   18.105731837   16.938440297
    1.571118531   18.356690870   18.147686479   16.976208870
    1.578297162   18.397401073   18.190064150   17.014350769
    1.585475793   18.438509934   18.232870118   17.052870499
    1.592654424   18.480022215   18.276109754   17.091772664
    1.599833055   18.521942757   18.319788533   17.131061947
    1.607011686   18.564276483   18.363912031   17.170743101
    1.614190317   18.607028410   18.408485932   17.210820972
    1.621368948   18.650203646   18.453516032   17.251300501
    1.628547579   18.693807398   18.499008238   17.292186723
    1.635726210   18.737844968   18.544968573   17.333484768
    1.642904841   18.782321757   18.591403178   17.375199866
    1.650083472   18.827243269   18.638318316   17.417337338
    1.657262104   18.872615106   18.685720366   17.459902596
    1.664440735   18.918442966   18.733615829   17.502901122
    1.671619366   18.964732679   18.782011354   17.546338567
    1.678797997   19.011490219   18.830913756   17.590220830
    1.685976628   19.058721643   18.880329957   17.634553786
    1.693155259   19.106433102   18.930267001   17.679343368
    1.700333890   19.154630880   18.980732085   17.724595659
    1.707512521   19.203321389   19.031732561   17.770316881
    1.714691152   19.252511177   19.083275937   17.816513386
    1.721869783   19.302206920   19.135369878   17.863191659
    1.729048414   19.352415421   19.188022208   17.910358314
    1.736227045   19.403143621   19.241240916   17.958020102
    1.743405676   19.454398604   19.295034166   18.006183913
    1.750584307   19.506187600   19.349410292   18.054856781
    1.757762938   19.558517986   19.404377813   18.104045886
    1.764941569   19.611397290   19.459945430   18.153758560
    1.772120200   19.664833197   19.516122032   18.204002287
    1.779298831   19.718833541   19.572916699   18.254784711
    1.786477462   19.773406301   19.630338685   18.306113621
    1.793656093   19.828559637   19.688397425   18.357996973
    1.800834725   19.884301972   19.747102594   18.410442922
    1.808013356   19.940641876   19.806464208   18.463459832
    1.815191987   19.997588069   19.866492603   18.517056274
    1.822370618   20.055149444   19.927198147   18.571240940
    1.829549249   20.113335075   19.988591380   18.626022692
    1.836727880   20.172154206   20.050683143   18.681410613
    1.843906511   20.231616198   20.113484557   18.737414001
    1.851085142   20.291730694   20.177007008   18.794042367
    1.858263773   20.352507952   20.241262129   18.851305439
    1.865442404   20.413958074   20.306261719   18.909213162
    1.872621035   20.476091193   20.372017569   18.967775694
    1.879799666   20.538918244   20.438541867   19.027003440
    1.886978297   20.602450355   20.505848594   19.086907149
    1.894156928   20.666698581   20.573951537   19.147497787
    1.901335559   20.731674143   20.642863634   19.208786506
    1.908514190   20.797388596   20.712598342   19.270784726
    1.915692821   20.863853712   20.783169594   19.333504116
    1.922871452   20.931081285   20.854591485   19.396956504
    1.930050083   20.999083626   20.926878659   19.461154054
    1.937228715   21.067874594   21.000047432   19.526109771
    1.944407346   21.137467685   21.074113929   19.591836786
    1.951585977   21.207876027   21.149093742   19.658348206
    1.958764608   21.279113049   21.225002957   19.725656983
    1.965943239   21.351192607   21.301858109   19.793776803
    1.973121870   21.424129206   21.379676287   19.862723364
    1.980300501   21.497938013   21.458476039   19.932511670
    1.987479132   21.572634539   21.538276561   20.003156186
    1.994657763   21.648234187   21.619096153   20.074672050
    2.001836394   21.724752701   21.700953312   20.147074869
    2.009015025   21.802206327   21.783867339   20.220380446
    2.016193656   21.880612158   21.867859649   20.294605534
    2.023372287   21.959987929   21.952952456   20.369768633
    2.030550918   22.040351369   22.039167073   20.445887612
    2.037729549   22.121720512   22.126525162   20.522980100
    2.044908180   22.204113972   22.215049442   20.601064504
    2.052086811   22.287551034   22.304763581   20.680159922
    2.059265442   22.372051671   22.395691907   20.760286023
    2.066444073   22.457636466   22.487859350   20.841462734
    2.073622705   22.544326337   22.581291653   20.923710876
    2.080801336   22.632142944   22.676015516   21.007053121
    2.087979967   22.721108475   22.772058340   21.091511875
    2.095158598   22.811245671   22.869448342   21.177109493
    2.102337229   22.902577994   22.968214619   21.263869268
    2.109515860   22.995129619   23.068387117   21.351815358
    2.116694491   23.088925513   23.169996915   21.440972769
    2.123873122   23.183991438   23.273076233   21.531367291
    2.131051753   23.280353810   23.377658078   21.623025214
    2.138230384   23.378039784   23.483776502   21.715973288
    2.145409015   23.477077565   23.591466745   21.810239947
    2.152587646   23.577496568   23.700765466   21.905855992
    2.159766277   23.679326749   23.811710665   22.002851802
    2.166944908   23.782598850   23.924341238   22.101258002
    2.174123539   23.887344681   24.038697203   22.201106471
    2.181302170   23.993597373   24.154820870   22.302430500
    2.188480801   24.101391175   24.272756189   22.405264606
    2.195659432   24.210761237   24.392547835   22.509644417
    2.202838063   24.321744020   24.514242229   22.615606883
    2.210016694   24.434377308   24.637887685   22.723190280
    2.217195326   24.548700089   24.763534360   22.832434220
    2.224373957   24.664752731   24.891234389   22.943379796
    2.231552588   24.782577064   25.021041785   23.056069528
    2.238731219   24.902216418   25.153012632   23.170547520
    2.245909850   25.023715708   25.287205269   23.286859552
    2.253088481   25.147121571   25.423680442   23.405053132
    2.260267112   25.272482440   25.562501241   23.525177686
    2.267445743   25.399848502   25.703733436   23.647284653
    2.274624374   25.529271839   25.847445872   23.771427840
    2.281803005   25.660806578   25.993709894   23.897662757
    2.288981636   25.794508988   26.142599736   24.026047013
    2.296160267   25.930437583   26.294192934   24.156640726
    2.303338898   26.068653291   26.448570535   24.289506652
    2.310517529   26.209219541   26.605817200   24.424710243
    2.317696160   26.352202271   26.766021238   24.562319654
    2.324874791   26.497669965   26.929274791   24.702405892
    2.332053422   26.645693838   27.095674332   24.845043093
    2.339232053   26.796349473   27.265321904   24.990309392
    2.346410684   26.949716338   27.438324403   25.138286712
    2.353589316   27.105875774   27.614792755   25.289059923
    2.360767947   27.264912642   27.794843267   25.442717817
    2.367946578   27.426916075   27.978598316   25.599353630
    2.375125209   27.591979873   28.166187192   25.759065400
    2.382303840   27.760202195   28.357745725   25.921955979
    2.389482471   27.931685504   28.553416374   26.088133245
    2.396661102   28.106537397   28.753349271   26.257710627
    2.403839733   28.284871271   28.957702999   26.430807612
    2.411018364   28.466805062   29.166644671   26.607549783
    2.418196995   28.652462379   29.380350712   26.788069482
    2.425375626   28.841977114   29.599008253   26.972507021
    2.432554257   29.035487919   29.822814914   27.161010081
    2.439732888   29.233139913   30.051979372   27.353734083
    2.446911519   29.435089554   30.286723198   27.550843811
    2.454090150   29.641499811   30.527282196   27.752514327
    2.461268781   29.852545880   30.773905642   27.958929934
    2.468447412   30.068410514   31.026859825   28.170286559
    2.475626043   30.289285620   31.286432025   28.386796454
    2.482804674   30.515376083   31.552926409   28.608684940
    2.489983306   30.746899322   31.826664525   28.836187842
    2.497161937   30.984088548   32.107991390   29.069557035
    2.504340568   31.227193019   32.397277563   29.309062747
    2.511519199   31.476476450   32.694920116   29.554994305
    2.518697830   31.732220793   33.001345821   29.807661946
    2.525876461   31.994727518   33.317013723   30.067398691
    2.533055092   32.264319576   33.642418373   30.334562404
    2.540233723   32.541343488   33.978093613   30.609538318
