# energy grid [eV]     ieps_x  ieps_y  ieps_z
#
    0.200000000    9.265565274    9.208114376    8.530701671
    0.207178631    9.263589438    9.206082135    8.528866819
    0.214357262    9.261544982    9.203979356    8.526968259
    0.221535893    9.259432013    9.201806152    8.525006093
    0.228714524    9.257250643    9.199562644    8.522980427
    0.235893155    9.255000987    9.197248954    8.520891368
    0.243071786    9.252683163    9.194865207    8.518739029
    0.250250417    9.250297293    9.192411536    8.516523525
    0.257429048    9.247843503    9.189888072    8.514244974
    0.264607679    9.245321922    9.187294955    8.511903499
    0.271786311    9.242732682    9.184632324    8.509499224
    0.278964942    9.240075919    9.181900325    8.507032277
    0.286143573    9.237351772    9.179099105    8.504502789
    0.293322204    9.234560383    9.176228818    8.501910895
    0.300500835    9.231701898    9.173289618    8.499256734
    0.307679466    9.228776467    9.170281665    8.496540444
    0.314858097    9.225784241    9.167205120    8.493762171
    0.322036728    9.222725378    9.164060151    8.490922062
    0.329215359    9.219600035    9.160846926    8.488020266
    0.336393990    9.216408375    9.157565618    8.485056936
    0.343572621    9.213150563    9.154216405    8.482032230
    0.350751252    9.209826769    9.150799465    8.478946305
    0.357929883    9.206437164    9.147314981    8.475799325
    0.365108514    9.202981923    9.143763141    8.472591455
    0.372287145    9.199461224    9.140144135    8.469322862
    0.379465776    9.195875249    9.136458154    8.465993718
    0.386644407    9.192224182    9.132705396    8.462604196
    0.393823038    9.188508210    9.128886060    8.459154474
    0.401001669    9.184727524    9.125000349    8.455644731
    0.408180301    9.180882318    9.121048469    8.452075149
    0.415358932    9.176972787    9.117030629    8.448445915
    0.422537563    9.172999132    9.112947042    8.444757216
    0.429716194    9.168961555    9.108797922    8.441009243
    0.436894825    9.164860260    9.104583489    8.437202190
    0.444073456    9.160695456    9.100303964    8.433336253
    0.451252087    9.156467355    9.095959571    8.429411631
    0.458430718    9.152176170    9.091550539    8.425428526
    0.465609349    9.147822117    9.087077097    8.421387142
    0.472787980    9.143405416    9.082539478    8.417287686
    0.479966611    9.138926289    9.077937920    8.413130367
    0.487145242    9.134384962    9.073272661    8.408915398
    0.494323873    9.129781661    9.068543943    8.404642993
    0.501502504    9.125116617    9.063752011    8.400313370
    0.508681135    9.120390062    9.058897113    8.395926747
    0.515859766    9.115602233    9.053979499    8.391483346
    0.523038397    9.110753367    9.048999421    8.386983393
    0.530217028    9.105843704    9.043957136    8.382427114
    0.537395659    9.100873489    9.038852901    8.377814738
    0.544574290    9.095842965    9.033686978    8.373146496
    0.551752922    9.090752382    9.028459630    8.368422622
    0.558931553    9.085601990    9.023171123    8.363643352
    0.566110184    9.080392041    9.017821725    8.358808925
    0.573288815    9.075122791    9.012411708    8.353919581
    0.580467446    9.069794497    9.006941344    8.348975562
    0.587646077    9.064407419    9.001410910    8.343977114
    0.594824708    9.058961819    8.995820683    8.338924483
    0.602003339    9.053457962    8.990170945    8.333817918
    0.609181970    9.047896113    8.984461977    8.328657671
    0.616360601    9.042276542    8.978694065    8.323443993
    0.623539232    9.036599519    8.972867496    8.318177141
    0.630717863    9.030865317    8.966982559    8.312857372
    0.637896494    9.025074211    8.961039547    8.307484944
    0.645075125    9.019226478    8.955038752    8.302060118
    0.652253756    9.013322397    8.948980470    8.296583158
    0.659432387    9.007362249    8.942865000    8.291054327
    0.666611018    9.001346317    8.936692641    8.285473892
    0.673789649    8.995274886    8.930463694    8.279842121
    0.680968280    8.989148243    8.924178464    8.274159284
    0.688146912    8.982966675    8.917837256    8.268425653
    0.695325543    8.976730473    8.911440378    8.262641502
    0.702504174    8.970439930    8.904988139    8.256807104
    0.709682805    8.964095340    8.898480849    8.250922737
    0.716861436    8.957696997    8.891918823    8.244988679
    0.724040067    8.951245199    8.885302374    8.239005209
    0.731218698    8.944740245    8.878631819    8.232972610
    0.738397329    8.938182436    8.871907476    8.226891163
    0.745575960    8.931572073    8.865129663    8.220761153
    0.752754591    8.924909461    8.858298703    8.214582865
    0.759933222    8.918194903    8.851414918    8.208356587
    0.767111853    8.911428708    8.844478632    8.202082607
    0.774290484    8.904611183    8.837490171    8.195761215
    0.781469115    8.897742636    8.830449861    8.189392702
    0.788647746    8.890823381    8.823358031    8.182977360
    0.795826377    8.883853727    8.816215011    8.176515482
    0.803005008    8.876833989    8.809021133    8.170007364
    0.810183639    8.869764482    8.801776727    8.163453302
    0.817362270    8.862645521    8.794482128    8.156853592
    0.824540902    8.855477424    8.787137672    8.150208533
    0.831719533    8.848260509    8.779743693    8.143518424
    0.838898164    8.840995096    8.772300529    8.136783566
    0.846076795    8.833681505    8.764808518    8.130004259
    0.853255426    8.826320058    8.757268000    8.123180807
    0.860434057    8.818911078    8.749679315    8.116313512
    0.867612688    8.811454888    8.742042804    8.109402678
    0.874791319    8.803951813    8.734358810    8.102448612
    0.881969950    8.796402179    8.726627676    8.095451618
    0.889148581    8.788806313    8.718849746    8.088412004
    0.896327212    8.781164541    8.711025364    8.081330078
    0.903505843    8.773477193    8.703154878    8.074206147
    0.910684474    8.765744596    8.695238633    8.067040520
    0.917863105    8.757967083    8.687276977    8.059833509
    0.925041736    8.750144982    8.679270258    8.052585423
    0.932220367    8.742278625    8.671218825    8.045296573
    0.939398998    8.734368345    8.663123027    8.037967271
    0.946577629    8.726414474    8.654983214    8.030597830
    0.953756260    8.718417346    8.646799737    8.023188563
    0.960934891    8.710377294    8.638572946    8.015739782
    0.968113523    8.702294653    8.630303195    8.008251803
    0.975292154    8.694169758    8.621990834    8.000724938
    0.982470785    8.686002944    8.613636217    7.993159505
    0.989649416    8.677794548    8.605239696    7.985555816
    0.996828047    8.669544906    8.596801625    7.977914190
    1.004006678    8.661254356    8.588322358    7.970234940
    1.011185309    8.652923233    8.579802248    7.962518385
    1.018363940    8.644551876    8.571241651    7.954764839
    1.025542571    8.636140623    8.562640920    7.946974622
    1.032721202    8.627689812    8.554000411    7.939148048
    1.039899833    8.619199781    8.545320479    7.931285437
    1.047078464    8.610670869    8.536601479    7.923387105
    1.054257095    8.602103416    8.527843766    7.915453371
    1.061435726    8.593497759    8.519047696    7.907484552
    1.068614357    8.584854239    8.510213624    7.899480966
    1.075792988    8.576173194    8.501341906    7.891442931
    1.082971619    8.567454965    8.492432897    7.883370766
    1.090150250    8.558699890    8.483486953    7.875264788
    1.097328881    8.549908309    8.474504430    7.867125316
    1.104507513    8.541080562    8.465485682    7.858952667
    1.111686144    8.532216989    8.456431066    7.850747161
    1.118864775    8.523317928    8.447340936    7.842509114
    1.126043406    8.514383719    8.438215647    7.834238845
    1.133222037    8.505414701    8.429055554    7.825936672
    1.140400668    8.496411214    8.419861012    7.817602912
    1.147579299    8.487373596    8.410632375    7.809237882
    1.154757930    8.478302187    8.401369998    7.800841900
    1.161936561    8.469197325    8.392074233    7.792415283
    1.169115192    8.460059348    8.382745435    7.783958348
    1.176293823    8.450888594    8.373383956    7.775471411
    1.183472454    8.441685402    8.363990149    7.766954787
    1.190651085    8.432450109    8.354564367    7.758408794
    1.197829716    8.423183051    8.345106961    7.749833747
    1.205008347    8.413884567    8.335618283    7.741229960
    1.212186978    8.404554992    8.326098683    7.732597749
    1.219365609    8.395194663    8.316548513    7.723937428
    1.226544240    8.385803914    8.306968121    7.715249311
    1.233722871    8.376383082    8.297357858    7.706533711
    1.240901503    8.366932501    8.287718071    7.697790941
    1.248080134    8.357452506    8.278049109    7.689021315
    1.255258765    8.347943429    8.268351320    7.680225143
    1.262437396    8.338405605    8.258625051    7.671402737
    1.269616027    8.328839365    8.248870647    7.662554408
    1.276794658    8.319245042    8.239088453    7.653680467
    1.283973289    8.309622967    8.229278816    7.644781223
    1.291151920    8.299973471    8.219442078    7.635856985
    1.298330551    8.290296884    8.209578584    7.626908061
    1.305509182    8.280593536    8.199688674    7.617934760
    1.312687813    8.270863755    8.189772692    7.608937389
    1.319866444    8.261107870    8.179830977    7.599916253
    1.327045075    8.251326207    8.169863871    7.590871659
    1.334223706    8.241519094    8.159871711    7.581803912
    1.341402337    8.231686856    8.149854836    7.572713316
    1.348580968    8.221829819    8.139813584    7.563600173
    1.355759599    8.211948306    8.129748290    7.554464788
    1.362938230    8.202042641    8.119659291    7.545307461
    1.370116861    8.192113146    8.109546920    7.536128494
    1.377295492    8.182160144    8.099411512    7.526928187
    1.384474124    8.172183955    8.089253398    7.517706840
    1.391652755    8.162184899    8.079072910    7.508464750
    1.398831386    8.152163295    8.068870378    7.499202215
    1.406010017    8.142119461    8.058646132    7.489919532
    1.413188648    8.132053715    8.048400501    7.480616997
    1.420367279    8.121966372    8.038133811    7.471294905
    1.427545910    8.111857748    8.027846388    7.461953549
    1.434724541    8.101728156    8.017538557    7.452593223
    1.441903172    8.091577912    8.007210643    7.443214218
    1.449081803    8.081407325    7.996862967    7.433816825
    1.456260434    8.071216708    7.986495852    7.424401335
    1.463439065    8.061006371    7.976109618    7.414968036
    1.470617696    8.050776623    7.965704584    7.405517215
    1.477796327    8.040527771    7.955281067    7.396049161
    1.484974958    8.030260123    7.944839385    7.386564159
    1.492153589    8.019973984    7.934379854    7.377062492
    1.499332220    8.009669659    7.923902786    7.367544446
    1.506510851    7.999347451    7.913408495    7.358010303
    1.513689482    7.989007663    7.902897294    7.348460344
    1.520868114    7.978650596    7.892369491    7.338894849
    1.528046745    7.968276550    7.881825397    7.329314097
    1.535225376    7.957885823    7.871265319    7.319718368
    1.542404007    7.947478713    7.860689563    7.310107937
    1.549582638    7.937055518    7.850098435    7.300483080
    1.556761269    7.926616531    7.839492238    7.290844072
    1.563939900    7.916162047    7.828871275    7.281191186
    1.571118531    7.905692358    7.818235847    7.271524694
    1.578297162    7.895207756    7.807586253    7.261844868
    1.585475793    7.884708531    7.796922791    7.252151978
    1.592654424    7.874194973    7.786245759    7.242446290
    1.599833055    7.863667367    7.775555452    7.232728074
    1.607011686    7.853126002    7.764852163    7.222997595
    1.614190317    7.842571162    7.754136186    7.213255118
    1.621368948    7.832003130    7.743407812    7.203500906
    1.628547579    7.821422189    7.732667330    7.193735222
    1.635726210    7.810828620    7.721915028    7.183958327
    1.642904841    7.800222703    7.711151193    7.174170481
    1.650083472    7.789604715    7.700376111    7.164371941
    1.657262104    7.778974935    7.689590065    7.154562966
    1.664440735    7.768333638    7.678793337    7.144743810
    1.671619366    7.757681097    7.667986209    7.134914730
    1.678797997    7.747017586    7.657168960    7.125075977
    1.685976628    7.736343376    7.646341867    7.115227803
    1.693155259    7.725658738    7.635505207    7.105370460
    1.700333890    7.714963940    7.624659255    7.095504197
    1.707512521    7.704259249    7.613804283    7.085629261
    1.714691152    7.693544931    7.602940564    7.075745899
    1.721869783    7.682821251    7.592068368    7.065854357
    1.729048414    7.672088471    7.581187963    7.055954877
    1.736227045    7.661346854    7.570299616    7.046047703
    1.743405676    7.650596659    7.559403593    7.036133076
    1.750584307    7.639838146    7.548500158    7.026211235
    1.757762938    7.629071570    7.537589574    7.016282419
    1.764941569    7.618297189    7.526672100    7.006346865
    1.772120200    7.607515257    7.515747997    6.996404808
    1.779298831    7.596726026    7.504817522    6.986456483
    1.786477462    7.585929748    7.493880932    6.976502122
    1.793656093    7.575126673    7.482938479    6.966541957
    1.800834725    7.564317049    7.471990419    6.956576218
    1.808013356    7.553501123    7.461037002    6.946605134
    1.815191987    7.542679142    7.450078477    6.936628931
    1.822370618    7.531851348    7.439115093    6.926647836
    1.829549249    7.521017985    7.428147097    6.916662073
    1.836727880    7.510179294    7.417174733    6.906671865
    1.843906511    7.499335513    7.406198245    6.896677434
    1.851085142    7.488486883    7.395217874    6.886678999
    1.858263773    7.477633638    7.384233862    6.876676780
    1.865442404    7.466776014    7.373246445    6.866670994
    1.872621035    7.455914244    7.362255862    6.856661856
    1.879799666    7.445048562    7.351262348    6.846649582
    1.886978297    7.434179196    7.340266136    6.836634384
    1.894156928    7.423306377    7.329267458    6.826616474
    1.901335559    7.412430332    7.318266546    6.816596062
    1.908514190    7.401551287    7.307263627    6.806573357
    1.915692821    7.390669466    7.296258930    6.796548566
    1.922871452    7.379785094    7.285252679    6.786521896
    1.930050083    7.368898390    7.274245100    6.776493550
    1.937228715    7.358009575    7.263236414    6.766463732
    1.944407346    7.347118869    7.252226842    6.756432643
    1.951585977    7.336226487    7.241216604    6.746400484
    1.958764608    7.325332645    7.230205917    6.736367453
    1.965943239    7.314437557    7.219194998    6.726333748
    1.973121870    7.303541436    7.208184060    6.716299565
    1.980300501    7.292644493    7.197173317    6.706265098
    1.987479132    7.281746937    7.186162979    6.696230540
    1.994657763    7.270848976    7.175153257    6.686196083
    2.001836394    7.259950816    7.164144358    6.676161917
    2.009015025    7.249052663    7.153136489    6.666128231
    2.016193656    7.238154720    7.142129855    6.656095212
    2.023372287    7.227257188    7.131124659    6.646063047
    2.030550918    7.216360268    7.120121102    6.636031919
    2.037729549    7.205464160    7.109119385    6.626002012
    2.044908180    7.194569060    7.098119705    6.615973508
    2.052086811    7.183675164    7.087122261    6.605946587
    2.059265442    7.172782667    7.076127247    6.595921427
    2.066444073    7.161891761    7.065134857    6.585898207
    2.073622705    7.151002639    7.054145282    6.575877102
    2.080801336    7.140115490    7.043158715    6.565858287
    2.087979967    7.129230502    7.032175343    6.555841935
    2.095158598    7.118347862    7.021195354    6.545828218
    2.102337229    7.107467757    7.010218934    6.535817307
    2.109515860    7.096590369    6.999246267    6.525809371
    2.116694491    7.085715881    6.988277536    6.515804577
    2.123873122    7.074844475    6.977312922    6.505803091
    2.131051753    7.063976330    6.966352605    6.495805079
    2.138230384    7.053111624    6.955396763    6.485810704
    2.145409015    7.042250533    6.944445573    6.475820128
    2.152587646    7.031393233    6.933499208    6.465833512
    2.159766277    7.020539898    6.922557844    6.455851015
    2.166944908    7.009690699    6.911621652    6.445872796
    2.174123539    6.998845808    6.900690801    6.435899010
    2.181302170    6.988005394    6.889765463    6.425929814
    2.188480801    6.977169624    6.878845802    6.415965361
    2.195659432    6.966338666    6.867931987    6.406005804
    2.202838063    6.955512683    6.857024180    6.396051294
    2.210016694    6.944691841    6.846122545    6.386101981
    2.217195326    6.933876300    6.835227243    6.376158014
    2.224373957    6.923066222    6.824338434    6.366219539
    2.231552588    6.912261766    6.813456277    6.356286702
    2.238731219    6.901463090    6.802580928    6.346359649
    2.245909850    6.890670350    6.791712543    6.336438522
    2.253088481    6.879883701    6.780851275    6.326523464
    2.260267112    6.869103297    6.769997278    6.316614614
    2.267445743    6.858329291    6.759150703    6.306712112
    2.274624374    6.847561832    6.748311698    6.296816096
    2.281803005    6.836801072    6.737480413    6.286926703
    2.288981636    6.826047156    6.726656993    6.277044069
    2.296160267    6.815300234    6.715841585    6.267168326
    2.303338898    6.804560449    6.705034331    6.257299608
    2.310517529    6.793827945    6.694235375    6.247438047
    2.317696160    6.783102866    6.683444857    6.237583772
    2.324874791    6.772385352    6.672662918    6.227736913
    2.332053422    6.761675544    6.661889694    6.217897597
    2.339232053    6.750973580    6.651125323    6.208065951
    2.346410684    6.740279596    6.640369940    6.198242100
    2.353589316    6.729593730    6.629623680    6.188426168
    2.360767947    6.718916115    6.618886675    6.178618277
    2.367946578    6.708246885    6.608159055    6.168818549
    2.375125209    6.697586171    6.597440952    6.159027104
    2.382303840    6.686934105    6.586732492    6.149244061
    2.389482471    6.676290814    6.576033805    6.139469538
    2.396661102    6.665656428    6.565345014    6.129703651
    2.403839733    6.655031073    6.554666246    6.119946516
    2.411018364    6.644414874    6.543997622    6.110198246
    2.418196995    6.633807955    6.533339265    6.100458955
    2.425375626    6.623210439    6.522691294    6.090728754
    2.432554257    6.612622448    6.512053830    6.081007754
    2.439732888    6.602044101    6.501426990    6.071296063
    2.446911519    6.591475518    6.490810890    6.061593791
    2.454090150    6.580916817    6.480205646    6.051901044
    2.461268781    6.570368113    6.469611371    6.042217928
    2.468447412    6.559829522    6.459028178    6.032544547
    2.475626043    6.549301158    6.448456179    6.022881005
    2.482804674    6.538783134    6.437895483    6.013227404
    2.489983306    6.528275561    6.427346199    6.003583846
    2.497161937    6.517778549    6.416808435    5.993950430
    2.504340568    6.507292208    6.406282298    5.984327255
    2.511519199    6.496816645    6.395767891    5.974714419
    2.518697830    6.486351967    6.385265319    5.965112019
    2.525876461    6.475898279    6.374774685    5.955520150
    2.533055092    6.465455686    6.364296089    5.945938907
    2.540233723    6.455024291    6.353829632    5.936368383
