# energy grid [eV]     ieps_x  ieps_y  ieps_z
#
    0.200000000    7.851806423    3.703214422    6.562492251
    0.207178631    7.850238011    3.702611456    6.561109298
    0.214357262    7.848615174    3.701987625    6.559678451
    0.221535893    7.846938000    3.701342968    6.558199798
    0.228714524    7.845206584    3.700677526    6.556673432
    0.235893155    7.843421021    3.699991342    6.555099445
    0.243071786    7.841581410    3.699284461    6.553477937
    0.250250417    7.839687851    3.698556926    6.551809006
    0.257429048    7.837740449    3.697808783    6.550092756
    0.264607679    7.835739312    3.697040081    6.548329292
    0.271786311    7.833684548    3.696250867    6.546518722
    0.278964942    7.831576270    3.695441191    6.544661158
    0.286143573    7.829414594    3.694611103    6.542756712
    0.293322204    7.827199636    3.693760655    6.540805500
    0.300500835    7.824931519    3.692889900    6.538807642
    0.307679466    7.822610364    3.691998891    6.536763258
    0.314858097    7.820236298    3.691087683    6.534672472
    0.322036728    7.817809448    3.690156332    6.532535410
    0.329215359    7.815329947    3.689204895    6.530352202
    0.336393990    7.812797927    3.688233430    6.528122977
    0.343572621    7.810213525    3.687241995    6.525847870
    0.350751252    7.807576878    3.686230651    6.523527016
    0.357929883    7.804888129    3.685199457    6.521160554
    0.365108514    7.802147420    3.684148475    6.518748625
    0.372287145    7.799354897    3.683077769    6.516291371
    0.379465776    7.796510709    3.681987400    6.513788938
    0.386644407    7.793615006    3.680877435    6.511241473
    0.393823038    7.790667942    3.679747937    6.508649127
    0.401001669    7.787669672    3.678598974    6.506012050
    0.408180301    7.784620353    3.677430611    6.503330398
    0.415358932    7.781520145    3.676242916    6.500604326
    0.422537563    7.778369211    3.675035958    6.497833993
    0.429716194    7.775167715    3.673809806    6.495019560
    0.436894825    7.771915823    3.672564530    6.492161188
    0.444073456    7.768613705    3.671300201    6.489259043
    0.451252087    7.765261532    3.670016891    6.486313292
    0.458430718    7.761859475    3.668714671    6.483324102
    0.465609349    7.758407711    3.667393614    6.480291645
    0.472787980    7.754906417    3.666053795    6.477216092
    0.479966611    7.751355772    3.664695288    6.474097619
    0.487145242    7.747755957    3.663318167    6.470936402
    0.494323873    7.744107155    3.661922508    6.467732618
    0.501502504    7.740409552    3.660508388    6.464486447
    0.508681135    7.736663335    3.659075883    6.461198072
    0.515859766    7.732868692    3.657625071    6.457867675
    0.523038397    7.729025815    3.656156031    6.454495442
    0.530217028    7.725134896    3.654668840    6.451081559
    0.537395659    7.721196130    3.653163578    6.447626215
    0.544574290    7.717209713    3.651640325    6.444129601
    0.551752922    7.713175844    3.650099162    6.440591907
    0.558931553    7.709094721    3.648540169    6.437013327
    0.566110184    7.704966548    3.646963428    6.433394056
    0.573288815    7.700791526    3.645369020    6.429734290
    0.580467446    7.696569861    3.643757029    6.426034227
    0.587646077    7.692301759    3.642127536    6.422294067
    0.594824708    7.687987429    3.640480626    6.418514010
    0.602003339    7.683627079    3.638816383    6.414694258
    0.609181970    7.679220922    3.637134890    6.410835016
    0.616360601    7.674769170    3.635436233    6.406936487
    0.623539232    7.670272038    3.633720496    6.402998878
    0.630717863    7.665729740    3.631987766    6.399022396
    0.637896494    7.661142494    3.630238128    6.395007251
    0.645075125    7.656510519    3.628471668    6.390953652
    0.652253756    7.651834035    3.626688474    6.386861811
    0.659432387    7.647113262    3.624888632    6.382731940
    0.666611018    7.642348424    3.623072230    6.378564252
    0.673789649    7.637539745    3.621239356    6.374358962
    0.680968280    7.632687449    3.619390099    6.370116286
    0.688146912    7.627791763    3.617524545    6.365836442
    0.695325543    7.622852915    3.615642786    6.361519646
    0.702504174    7.617871134    3.613744908    6.357166118
    0.709682805    7.612846650    3.611831003    6.352776078
    0.716861436    7.607779693    3.609901160    6.348349746
    0.724040067    7.602670497    3.607955468    6.343887345
    0.731218698    7.597519295    3.605994018    6.339389097
    0.738397329    7.592326321    3.604016901    6.334855226
    0.745575960    7.587091811    3.602024208    6.330285957
    0.752754591    7.581816001    3.600016029    6.325681514
    0.759933222    7.576499129    3.597992456    6.321042125
    0.767111853    7.571141434    3.595953581    6.316368015
    0.774290484    7.565743154    3.593899494    6.311659414
    0.781469115    7.560304532    3.591830289    6.306916549
    0.788647746    7.554825806    3.589746057    6.302139649
    0.795826377    7.549307221    3.587646891    6.297328944
    0.803005008    7.543749019    3.585532883    6.292484666
    0.810183639    7.538151443    3.583404126    6.287607044
    0.817362270    7.532514739    3.581260712    6.282696312
    0.824540902    7.526839152    3.579102736    6.277752700
    0.831719533    7.521124927    3.576930290    6.272776443
    0.838898164    7.515372313    3.574743468    6.267767773
    0.846076795    7.509581556    3.572542363    6.262726925
    0.853255426    7.503752905    3.570327069    6.257654134
    0.860434057    7.497886608    3.568097679    6.252549633
    0.867612688    7.491982916    3.565854288    6.247413659
    0.874791319    7.486042079    3.563596989    6.242246448
    0.881969950    7.480064347    3.561325877    6.237048235
    0.889148581    7.474049971    3.559041046    6.231819257
    0.896327212    7.467999204    3.556742591    6.226559752
    0.903505843    7.461912297    3.554430605    6.221269956
    0.910684474    7.455789505    3.552105183    6.215950107
    0.917863105    7.449631079    3.549766421    6.210600444
    0.925041736    7.443437275    3.547414411    6.205221203
    0.932220367    7.437208346    3.545049250    6.199812624
    0.939398998    7.430944546    3.542671032    6.194374946
    0.946577629    7.424646132    3.540279852    6.188908406
    0.953756260    7.418313358    3.537875804    6.183413245
    0.960934891    7.411946480    3.535458984    6.177889701
    0.968113523    7.405545754    3.533029486    6.172338014
    0.975292154    7.399111437    3.530587406    6.166758422
    0.982470785    7.392643785    3.528132838    6.161151166
    0.989649416    7.386143055    3.525665877    6.155516485
    0.996828047    7.379609504    3.523186619    6.149854619
    1.004006678    7.373043390    3.520695158    6.144165808
    1.011185309    7.366444970    3.518191589    6.138450290
    1.018363940    7.359814503    3.515676008    6.132708307
    1.025542571    7.353152245    3.513148509    6.126940097
    1.032721202    7.346458455    3.510609187    6.121145900
    1.039899833    7.339733392    3.508058137    6.115325955
    1.047078464    7.332977312    3.505495455    6.109480503
    1.054257095    7.326190476    3.502921234    6.103609783
    1.061435726    7.319373141    3.500335569    6.097714033
    1.068614357    7.312525565    3.497738557    6.091793493
    1.075792988    7.305648008    3.495130290    6.085848402
    1.082971619    7.298740727    3.492510864    6.079878998
    1.090150250    7.291803982    3.489880373    6.073885521
    1.097328881    7.284838030    3.487238912    6.067868209
    1.104507513    7.277843129    3.484586575    6.061827299
    1.111686144    7.270819540    3.481923457    6.055763030
    1.118864775    7.263767518    3.479249652    6.049675639
    1.126043406    7.256687323    3.476565254    6.043565364
    1.133222037    7.249579213    3.473870357    6.037432442
    1.140400668    7.242443446    3.471165055    6.031277109
    1.147579299    7.235280278    3.468449442    6.025099603
    1.154757930    7.228089968    3.465723612    6.018900158
    1.161936561    7.220872774    3.462987659    6.012679011
    1.169115192    7.213628951    3.460241675    6.006436398
    1.176293823    7.206358758    3.457485755    6.000172552
    1.183472454    7.199062451    3.454719992    5.993887709
    1.190651085    7.191740285    3.451944479    5.987582104
    1.197829716    7.184392519    3.449159309    5.981255968
    1.205008347    7.177019406    3.446364575    5.974909537
    1.212186978    7.169621203    3.443560369    5.968543042
    1.219365609    7.162198165    3.440746785    5.962156715
    1.226544240    7.154750547    3.437923914    5.955750790
    1.233722871    7.147278603    3.435091850    5.949325496
    1.240901503    7.139782588    3.432250683    5.942881066
    1.248080134    7.132262756    3.429400507    5.936417728
    1.255258765    7.124719359    3.426541413    5.929935713
    1.262437396    7.117152651    3.423673492    5.923435249
    1.269616027    7.109562884    3.420796837    5.916916566
    1.276794658    7.101950311    3.417911538    5.910379892
    1.283973289    7.094315183    3.415017686    5.903825453
    1.291151920    7.086657751    3.412115373    5.897253476
    1.298330551    7.078978266    3.409204689    5.890664188
    1.305509182    7.071276979    3.406285724    5.884057814
    1.312687813    7.063554138    3.403358569    5.877434579
    1.319866444    7.055809994    3.400423314    5.870794707
    1.327045075    7.048044795    3.397480049    5.864138421
    1.334223706    7.040258788    3.394528864    5.857465945
    1.341402337    7.032452223    3.391569848    5.850777500
    1.348580968    7.024625344    3.388603090    5.844073308
    1.355759599    7.016778400    3.385628680    5.837353590
    1.362938230    7.008911635    3.382646706    5.830618565
    1.370116861    7.001025295    3.379657256    5.823868454
    1.377295492    6.993119625    3.376660420    5.817103473
    1.384474124    6.985194868    3.373656285    5.810323842
    1.391652755    6.977251267    3.370644939    5.803529776
    1.398831386    6.969289066    3.367626470    5.796721493
    1.406010017    6.961308507    3.364600965    5.789899207
    1.413188648    6.953309830    3.361568512    5.783063134
    1.420367279    6.945293276    3.358529197    5.776213486
    1.427545910    6.937259085    3.355483106    5.769350478
    1.434724541    6.929207496    3.352430327    5.762474321
    1.441903172    6.921138748    3.349370946    5.755585226
    1.449081803    6.913053079    3.346305047    5.748683404
    1.456260434    6.904950724    3.343232718    5.741769065
    1.463439065    6.896831922    3.340154042    5.734842418
    1.470617696    6.888696907    3.337069106    5.727903669
    1.477796327    6.880545914    3.333977994    5.720953028
    1.484974958    6.872379176    3.330880790    5.713990699
    1.492153589    6.864196927    3.327777579    5.707016887
    1.499332220    6.855999400    3.324668445    5.700031799
    1.506510851    6.847786825    3.321553471    5.693035636
    1.513689482    6.839559434    3.318432740    5.686028602
    1.520868114    6.831317457    3.315306337    5.679010897
    1.528046745    6.823061121    3.312174342    5.671982724
    1.535225376    6.814790657    3.309036840    5.664944282
    1.542404007    6.806506290    3.305893912    5.657895769
    1.549582638    6.798208248    3.302745641    5.650837385
    1.556761269    6.789896756    3.299592106    5.643769325
    1.563939900    6.781572039    3.296433391    5.636691786
    1.571118531    6.773234321    3.293269576    5.629604963
    1.578297162    6.764883824    3.290100741    5.622509050
    1.585475793    6.756520771    3.286926967    5.615404241
    1.592654424    6.748145384    3.283748334    5.608290727
    1.599833055    6.739757881    3.280564922    5.601168700
    1.607011686    6.731358484    3.277376810    5.594038351
    1.614190317    6.722947409    3.274184077    5.586899869
    1.621368948    6.714524875    3.270986802    5.579753441
    1.628547579    6.706091099    3.267785063    5.572599256
    1.635726210    6.697646295    3.264578939    5.565437499
    1.642904841    6.689190678    3.261368507    5.558268356
    1.650083472    6.680724463    3.258153845    5.551092012
    1.657262104    6.672247862    3.254935030    5.543908650
    1.664440735    6.663761087    3.251712138    5.536718451
    1.671619366    6.655264348    3.248485246    5.529521598
    1.678797997    6.646757856    3.245254430    5.522318271
    1.685976628    6.638241819    3.242019767    5.515108649
    1.693155259    6.629716445    3.238781331    5.507892909
    1.700333890    6.621181941    3.235539197    5.500671231
    1.707512521    6.612638513    3.232293440    5.493443789
    1.714691152    6.604086366    3.229044136    5.486210759
    1.721869783    6.595525704    3.225791357    5.478972315
    1.729048414    6.586956729    3.222535177    5.471728631
    1.736227045    6.578379644    3.219275671    5.464479877
    1.743405676    6.569794649    3.216012910    5.457226226
    1.750584307    6.561201944    3.212746968    5.449967847
    1.757762938    6.552601727    3.209477916    5.442704910
    1.764941569    6.543994198    3.206205828    5.435437581
    1.772120200    6.535379552    3.202930774    5.428166029
    1.779298831    6.526757985    3.199652825    5.420890419
    1.786477462    6.518129691    3.196372053    5.413610915
    1.793656093    6.509494865    3.193088529    5.406327682
    1.800834725    6.500853698    3.189802322    5.399040882
    1.808013356    6.492206383    3.186513502    5.391750677
    1.815191987    6.483553109    3.183222138    5.384457227
    1.822370618    6.474894067    3.179928301    5.377160692
    1.829549249    6.466229444    3.176632058    5.369861231
    1.836727880    6.457559428    3.173333478    5.362559000
    1.843906511    6.448884205    3.170032628    5.355254156
    1.851085142    6.440203959    3.166729578    5.347946855
    1.858263773    6.431518876    3.163424393    5.340637251
    1.865442404    6.422829139    3.160117141    5.333325497
    1.872621035    6.414134928    3.156807888    5.326011745
    1.879799666    6.405436425    3.153496701    5.318696146
    1.886978297    6.396733810    3.150183645    5.311378850
    1.894156928    6.388027261    3.146868786    5.304060007
    1.901335559    6.379316957    3.143552189    5.296739764
    1.908514190    6.370603073    3.140233919    5.289418269
    1.915692821    6.361885785    3.136914040    5.282095666
    1.922871452    6.353165268    3.133592615    5.274772101
    1.930050083    6.344441694    3.130269709    5.267447718
    1.937228715    6.335715237    3.126945385    5.260122660
    1.944407346    6.326986067    3.123619706    5.252797067
    1.951585977    6.318254354    3.120292734    5.245471081
    1.958764608    6.309520268    3.116964531    5.238144841
    1.965943239    6.300783975    3.113635159    5.230818485
    1.973121870    6.292045644    3.110304680    5.223492152
    1.980300501    6.283305439    3.106973154    5.216165978
    1.987479132    6.274563525    3.103640642    5.208840098
    1.994657763    6.265820067    3.100307204    5.201514646
    2.001836394    6.257075226    3.096972901    5.194189756
    2.009015025    6.248329163    3.093637791    5.186865560
    2.016193656    6.239582039    3.090301934    5.179542189
    2.023372287    6.230834014    3.086965389    5.172219774
    2.030550918    6.222085245    3.083628214    5.164898443
    2.037729549    6.213335889    3.080290468    5.157578326
    2.044908180    6.204586103    3.076952206    5.150259549
    2.052086811    6.195836041    3.073613488    5.142942238
    2.059265442    6.187085856    3.070274370    5.135626518
    2.066444073    6.178335703    3.066934909    5.128312514
    2.073622705    6.169585731    3.063595160    5.121000349
    2.080801336    6.160836093    3.060255179    5.113690144
    2.087979967    6.152086937    3.056915022    5.106382022
    2.095158598    6.143338411    3.053574745    5.099076101
    2.102337229    6.134590663    3.050234401    5.091772500
    2.109515860    6.125843840    3.046894044    5.084471339
    2.116694491    6.117098086    3.043553730    5.077172734
    2.123873122    6.108353545    3.040213511    5.069876801
    2.131051753    6.099610361    3.036873441    5.062583655
    2.138230384    6.090868676    3.033533572    5.055293410
    2.145409015    6.082128629    3.030193958    5.048006180
    2.152587646    6.073390362    3.026854649    5.040722076
    2.159766277    6.064654013    3.023515698    5.033441210
    2.166944908    6.055919719    3.020177156    5.026163691
    2.174123539    6.047187617    3.016839074    5.018889630
    2.181302170    6.038457843    3.013501504    5.011619133
    2.188480801    6.029730531    3.010164494    5.004352309
    2.195659432    6.021005815    3.006828095    4.997089263
    2.202838063    6.012283827    3.003492356    4.989830102
    2.210016694    6.003564699    3.000157328    4.982574928
    2.217195326    5.994848560    2.996823057    4.975323847
    2.224373957    5.986135540    2.993489594    4.968076959
    2.231552588    5.977425768    2.990156985    4.960834367
    2.238731219    5.968719370    2.986825280    4.953596172
    2.245909850    5.960016472    2.983494524    4.946362472
    2.253088481    5.951317200    2.980164766    4.939133367
    2.260267112    5.942621678    2.976836051    4.931908954
    2.267445743    5.933930029    2.973508426    4.924689330
    2.274624374    5.925242374    2.970181937    4.917474591
    2.281803005    5.916558835    2.966856630    4.910264833
    2.288981636    5.907879532    2.963532550    4.903060148
    2.296160267    5.899204584    2.960209741    4.895860630
    2.303338898    5.890534108    2.956888248    4.888666372
    2.310517529    5.881868222    2.953568116    4.881477464
    2.317696160    5.873207041    2.950249387    4.874293998
    2.324874791    5.864550681    2.946932107    4.867116062
    2.332053422    5.855899255    2.943616317    4.859943746
    2.339232053    5.847252877    2.940302060    4.852777136
    2.346410684    5.838611657    2.936989379    4.845616321
    2.353589316    5.829975708    2.933678317    4.838461385
    2.360767947    5.821345138    2.930368914    4.831312415
    2.367946578    5.812720058    2.927061211    4.824169493
    2.375125209    5.804100574    2.923755251    4.817032704
    2.382303840    5.795486794    2.920451074    4.809902131
    2.389482471    5.786878825    2.917148720    4.802777853
    2.396661102    5.778276770    2.913848229    4.795659954
    2.403839733    5.769680734    2.910549640    4.788548512
    2.411018364    5.761090820    2.907252994    4.781443606
    2.418196995    5.752507130    2.903958328    4.774345314
    2.425375626    5.743929766    2.900665683    4.767253715
    2.432554257    5.735358828    2.897375095    4.760168885
    2.439732888    5.726794414    2.894086604    4.753090898
    2.446911519    5.718236624    2.890800246    4.746019831
    2.454090150    5.709685554    2.887516059    4.738955758
    2.461268781    5.701141301    2.884234080    4.731898750
    2.468447412    5.692603961    2.880954346    4.724848882
    2.475626043    5.684073628    2.877676893    4.717806224
    2.482804674    5.675550396    2.874401756    4.710770848
    2.489983306    5.667034358    2.871128973    4.703742823
    2.497161937    5.658525605    2.867858577    4.696722218
    2.504340568    5.650024228    2.864590604    4.689709103
    2.511519199    5.641530317    2.861325089    4.682703545
    2.518697830    5.633043962    2.858062066    4.675705610
    2.525876461    5.624565250    2.854801570    4.668715364
    2.533055092    5.616094269    2.851543633    4.661732874
    2.540233723    5.607631106    2.848288290    4.654758203
