# energy grid [eV]     ieps_x  ieps_y  ieps_z
#
    0.200000000    5.271865786    2.921355098    4.355710741
    0.207178631    5.271065787    2.920922700    4.354908125
    0.214357262    5.270237904    2.920475276    4.354077649
    0.221535893    5.269382170    2.920012849    4.353219358
    0.228714524    5.268498619    2.919535443    4.352333300
    0.235893155    5.267587287    2.919043081    4.351419522
    0.243071786    5.266648210    2.918535790    4.350478075
    0.250250417    5.265681426    2.918013593    4.349509010
    0.257429048    5.264686975    2.917476519    4.348512378
    0.264607679    5.263664896    2.916924594    4.347488236
    0.271786311    5.262615231    2.916357846    4.346436637
    0.278964942    5.261538021    2.915776304    4.345357640
    0.286143573    5.260433309    2.915179997    4.344251302
    0.293322204    5.259301140    2.914568955    4.343117683
    0.300500835    5.258141560    2.913943208    4.341956845
    0.307679466    5.256954614    2.913302789    4.340768850
    0.314858097    5.255740350    2.912647729    4.339553762
    0.322036728    5.254498816    2.911978062    4.338311647
    0.329215359    5.253230063    2.911293820    4.337042571
    0.336393990    5.251934140    2.910595039    4.335746602
    0.343572621    5.250611099    2.909881752    4.334423810
    0.350751252    5.249260993    2.909153996    4.333074266
    0.357929883    5.247883876    2.908411807    4.331698040
    0.365108514    5.246479802    2.907655222    4.330295208
    0.372287145    5.245048826    2.906884278    4.328865844
    0.379465776    5.243591006    2.906099013    4.327410023
    0.386644407    5.242106399    2.905299467    4.325927823
    0.393823038    5.240595064    2.904485679    4.324419323
    0.401001669    5.239057060    2.903657689    4.322884602
    0.408180301    5.237492449    2.902815539    4.321323741
    0.415358932    5.235901291    2.901959269    4.319736823
    0.422537563    5.234283650    2.901088921    4.318123931
    0.429716194    5.232639588    2.900204539    4.316485149
    0.436894825    5.230969171    2.899306166    4.314820565
    0.444073456    5.229272463    2.898393845    4.313130265
    0.451252087    5.227549532    2.897467622    4.311414336
    0.458430718    5.225800445    2.896527541    4.309672870
    0.465609349    5.224025269    2.895573648    4.307905956
    0.472787980    5.222224074    2.894605990    4.306113686
    0.479966611    5.220396931    2.893624612    4.304296153
    0.487145242    5.218543910    2.892629564    4.302453452
    0.494323873    5.216665082    2.891620893    4.300585676
    0.501502504    5.214760522    2.890598647    4.298692923
    0.508681135    5.212830303    2.889562876    4.296775290
    0.515859766    5.210874498    2.888513630    4.294832875
    0.523038397    5.208893185    2.887450958    4.292865778
    0.530217028    5.206886438    2.886374912    4.290874098
    0.537395659    5.204854336    2.885285544    4.288857939
    0.544574290    5.202796956    2.884182904    4.286817401
    0.551752922    5.200714378    2.883067045    4.284752589
    0.558931553    5.198606680    2.881938021    4.282663607
    0.566110184    5.196473944    2.880795884    4.280550561
    0.573288815    5.194316251    2.879640689    4.278413557
    0.580467446    5.192133684    2.878472490    4.276252702
    0.587646077    5.189926324    2.877291343    4.274068105
    0.594824708    5.187694257    2.876097302    4.271859875
    0.602003339    5.185437566    2.874890423    4.269628123
    0.609181970    5.183156337    2.873670763    4.267372959
    0.616360601    5.180850656    2.872438378    4.265094494
    0.623539232    5.178520611    2.871193327    4.262792843
    0.630717863    5.176166288    2.869935666    4.260468119
    0.637896494    5.173787777    2.868665454    4.258120435
    0.645075125    5.171385166    2.867382749    4.255749908
    0.652253756    5.168958546    2.866087611    4.253356654
    0.659432387    5.166508006    2.864780099    4.250940789
    0.666611018    5.164033640    2.863460273    4.248502431
    0.673789649    5.161535538    2.862128193    4.246041699
    0.680968280    5.159013793    2.860783920    4.243558711
    0.688146912    5.156468499    2.859427514    4.241053589
    0.695325543    5.153899750    2.858059039    4.238526451
    0.702504174    5.151307641    2.856678554    4.235977420
    0.709682805    5.148692267    2.855286124    4.233406619
    0.716861436    5.146053725    2.853881809    4.230814168
    0.724040067    5.143392112    2.852465674    4.228200193
    0.731218698    5.140707524    2.851037781    4.225564817
    0.738397329    5.138000060    2.849598195    4.222908164
    0.745575960    5.135269819    2.848146979    4.220230360
    0.752754591    5.132516900    2.846684197    4.217531532
    0.759933222    5.129741403    2.845209915    4.214811804
    0.767111853    5.126943428    2.843724197    4.212071306
    0.774290484    5.124123077    2.842227109    4.209310163
    0.781469115    5.121280452    2.840718716    4.206528506
    0.788647746    5.118415654    2.839199085    4.203726461
    0.795826377    5.115528787    2.837668281    4.200904158
    0.803005008    5.112619954    2.836126370    4.198061728
    0.810183639    5.109689259    2.834573421    4.195199301
    0.817362270    5.106736806    2.833009500    4.192317006
    0.824540902    5.103762701    2.831434673    4.189414976
    0.831719533    5.100767049    2.829849009    4.186493343
    0.838898164    5.097749956    2.828252576    4.183552237
    0.846076795    5.094711529    2.826645442    4.180591792
    0.853255426    5.091651874    2.825027674    4.177612141
    0.860434057    5.088571100    2.823399342    4.174613416
    0.867612688    5.085469313    2.821760515    4.171595753
    0.874791319    5.082346624    2.820111260    4.168559284
    0.881969950    5.079203140    2.818451648    4.165504144
    0.889148581    5.076038972    2.816781748    4.162430468
    0.896327212    5.072854228    2.815101630    4.159338391
    0.903505843    5.069649019    2.813411363    4.156228048
    0.910684474    5.066423456    2.811711016    4.153099576
    0.917863105    5.063177650    2.810000662    4.149953109
    0.925041736    5.059911712    2.808280369    4.146788785
    0.932220367    5.056625755    2.806550208    4.143606739
    0.939398998    5.053319890    2.804810250    4.140407109
    0.946577629    5.049994230    2.803060566    4.137190032
    0.953756260    5.046648889    2.801301226    4.133955644
    0.960934891    5.043283979    2.799532302    4.130704083
    0.968113523    5.039899614    2.797753864    4.127435487
    0.975292154    5.036495909    2.795965985    4.124149993
    0.982470785    5.033072978    2.794168736    4.120847740
    0.989649416    5.029630935    2.792362187    4.117528865
    0.996828047    5.026169895    2.790546411    4.114193506
    1.004006678    5.022689975    2.788721480    4.110841803
    1.011185309    5.019191288    2.786887465    4.107473893
    1.018363940    5.015673953    2.785044439    4.104089915
    1.025542571    5.012138084    2.783192473    4.100690007
    1.032721202    5.008583798    2.781331639    4.097274309
    1.039899833    5.005011212    2.779462010    4.093842959
    1.047078464    5.001420442    2.777583658    4.090396096
    1.054257095    4.997811607    2.775696654    4.086933859
    1.061435726    4.994184824    2.773801073    4.083456386
    1.068614357    4.990540210    2.771896984    4.079963818
    1.075792988    4.986877883    2.769984462    4.076456291
    1.082971619    4.983197961    2.768063579    4.072933947
    1.090150250    4.979500563    2.766134406    4.069396922
    1.097328881    4.975785808    2.764197017    4.065845357
    1.104507513    4.972053813    2.762251484    4.062279391
    1.111686144    4.968304698    2.760297880    4.058699161
    1.118864775    4.964538582    2.758336276    4.055104806
    1.126043406    4.960755585    2.756366746    4.051496466
    1.133222037    4.956955825    2.754389362    4.047874279
    1.140400668    4.953139422    2.752404196    4.044238383
    1.147579299    4.949306495    2.750411321    4.040588916
    1.154757930    4.945457166    2.748410809    4.036926018
    1.161936561    4.941591553    2.746402733    4.033249825
    1.169115192    4.937709776    2.744387165    4.029560476
    1.176293823    4.933811956    2.742364177    4.025858109
    1.183472454    4.929898212    2.740333842    4.022142862
    1.190651085    4.925968666    2.738296232    4.018414871
    1.197829716    4.922023438    2.736251418    4.014674274
    1.205008347    4.918062647    2.734199474    4.010921209
    1.212186978    4.914086415    2.732140470    4.007155811
    1.219365609    4.910094862    2.730074480    4.003378219
    1.226544240    4.906088109    2.728001574    3.999588568
    1.233722871    4.902066276    2.725921825    3.995786994
    1.240901503    4.898029485    2.723835305    3.991973635
    1.248080134    4.893977855    2.721742084    3.988148624
    1.255258765    4.889911508    2.719642235    3.984312099
    1.262437396    4.885830565    2.717535829    3.980464194
    1.269616027    4.881735145    2.715422937    3.976605044
    1.276794658    4.877625371    2.713303631    3.972734784
    1.283973289    4.873501362    2.711177980    3.968853548
    1.291151920    4.869363239    2.709046058    3.964961471
    1.298330551    4.865211124    2.706907933    3.961058686
    1.305509182    4.861045137    2.704763678    3.957145327
    1.312687813    4.856865398    2.702613361    3.953221527
    1.319866444    4.852672028    2.700457055    3.949287419
    1.327045075    4.848465147    2.698294829    3.945343135
    1.334223706    4.844244877    2.696126754    3.941388807
    1.341402337    4.840011337    2.693952899    3.937424568
    1.348580968    4.835764648    2.691773334    3.933450548
    1.355759599    4.831504930    2.689588129    3.929466880
    1.362938230    4.827232303    2.687397353    3.925473692
    1.370116861    4.822946888    2.685201076    3.921471117
    1.377295492    4.818648803    2.682999367    3.917459283
    1.384474124    4.814338170    2.680792295    3.913438321
    1.391652755    4.810015108    2.678579928    3.909408359
    1.398831386    4.805679736    2.676362336    3.905369526
    1.406010017    4.801332173    2.674139587    3.901321951
    1.413188648    4.796972541    2.671911749    3.897265761
    1.420367279    4.792600956    2.669678890    3.893201083
    1.427545910    4.788217540    2.667441078    3.889128046
    1.434724541    4.783822409    2.665198382    3.885046775
    1.441903172    4.779415684    2.662950867    3.880957396
    1.449081803    4.774997483    2.660698602    3.876860036
    1.456260434    4.770567924    2.658441653    3.872754819
    1.463439065    4.766127126    2.656180088    3.868641870
    1.470617696    4.761675206    2.653913973    3.864521313
    1.477796327    4.757212283    2.651643375    3.860393273
    1.484974958    4.752738474    2.649368360    3.856257872
    1.492153589    4.748253896    2.647088993    3.852115233
    1.499332220    4.743758667    2.644805340    3.847965479
    1.506510851    4.739252904    2.642517468    3.843808732
    1.513689482    4.734736724    2.640225441    3.839645112
    1.520868114    4.730210244    2.637929325    3.835474742
    1.528046745    4.725673579    2.635629183    3.831297740
    1.535225376    4.721126846    2.633325081    3.827114227
    1.542404007    4.716570161    2.631017084    3.822924322
    1.549582638    4.712003640    2.628705255    3.818728145
    1.556761269    4.707427398    2.626389657    3.814525812
    1.563939900    4.702841550    2.624070355    3.810317442
    1.571118531    4.698246211    2.621747413    3.806103153
    1.578297162    4.693641496    2.619420892    3.801883060
    1.585475793    4.689027518    2.617090856    3.797657280
    1.592654424    4.684404394    2.614757367    3.793425928
    1.599833055    4.679772235    2.612420489    3.789189119
    1.607011686    4.675131156    2.610080282    3.784946968
    1.614190317    4.670481270    2.607736808    3.780699589
    1.621368948    4.665822690    2.605390130    3.776447095
    1.628547579    4.661155528    2.603040307    3.772189599
    1.635726210    4.656479898    2.600687402    3.767927212
    1.642904841    4.651795910    2.598331475    3.763660047
    1.650083472    4.647103678    2.595972586    3.759388214
    1.657262104    4.642403311    2.593610796    3.755111825
    1.664440735    4.637694922    2.591246163    3.750830988
    1.671619366    4.632978621    2.588878749    3.746545814
    1.678797997    4.628254519    2.586508612    3.742256411
    1.685976628    4.623522726    2.584135811    3.737962887
    1.693155259    4.618783351    2.581760405    3.733665349
    1.700333890    4.614036504    2.579382452    3.729363905
    1.707512521    4.609282295    2.577002010    3.725058661
    1.714691152    4.604520832    2.574619138    3.720749723
    1.721869783    4.599752223    2.572233892    3.716437196
    1.729048414    4.594976577    2.569846331    3.712121184
    1.736227045    4.590194001    2.567456510    3.707801791
    1.743405676    4.585404603    2.565064488    3.703479122
    1.750584307    4.580608490    2.562670319    3.699153278
    1.757762938    4.575805768    2.560274060    3.694824362
    1.764941569    4.570996543    2.557875768    3.690492476
    1.772120200    4.566180922    2.555475497    3.686157719
    1.779298831    4.561359010    2.553073302    3.681820194
    1.786477462    4.556530913    2.550669239    3.677479998
    1.793656093    4.551696734    2.548263362    3.673137233
    1.800834725    4.546856578    2.545855725    3.668791995
    1.808013356    4.542010550    2.543446382    3.664444383
    1.815191987    4.537158753    2.541035388    3.660094494
    1.822370618    4.532301289    2.538622794    3.655742425
    1.829549249    4.527438263    2.536208655    3.651388272
    1.836727880    4.522569776    2.533793023    3.647032131
    1.843906511    4.517695930    2.531375950    3.642674095
    1.851085142    4.512816826    2.528957489    3.638314260
    1.858263773    4.507932567    2.526537691    3.633952719
    1.865442404    4.503043253    2.524116608    3.629589564
    1.872621035    4.498148983    2.521694291    3.625224889
    1.879799666    4.493249859    2.519270791    3.620858784
    1.886978297    4.488345979    2.516846158    3.616491342
    1.894156928    4.483437443    2.514420443    3.612122652
    1.901335559    4.478524349    2.511993696    3.607752804
    1.908514190    4.473606796    2.509565966    3.603381888
    1.915692821    4.468684881    2.507137303    3.599009992
    1.922871452    4.463758701    2.504707755    3.594637204
    1.930050083    4.458828355    2.502277371    3.590263611
    1.937228715    4.453893938    2.499846200    3.585889301
    1.944407346    4.448955546    2.497414289    3.581514359
    1.951585977    4.444013274    2.494981687    3.577138872
    1.958764608    4.439067219    2.492548440    3.572762923
    1.965943239    4.434117475    2.490114597    3.568386597
    1.973121870    4.429164137    2.487680203    3.564009977
    1.980300501    4.424207297    2.485245305    3.559633148
    1.987479132    4.419247050    2.482809950    3.555256191
    1.994657763    4.414283488    2.480374183    3.550879188
    2.001836394    4.409316705    2.477938049    3.546502220
    2.009015025    4.404346791    2.475501595    3.542125368
    2.016193656    4.399373840    2.473064864    3.537748711
    2.023372287    4.394397941    2.470627901    3.533372330
    2.030550918    4.389419186    2.468190752    3.528996303
    2.037729549    4.384437665    2.465753459    3.524620707
    2.044908180    4.379453468    2.463316066    3.520245622
    2.052086811    4.374466684    2.460878617    3.515871122
    2.059265442    4.369477402    2.458441154    3.511497286
    2.066444073    4.364485710    2.456003721    3.507124188
    2.073622705    4.359491696    2.453566359    3.502751903
    2.080801336    4.354495449    2.451129112    3.498380506
    2.087979967    4.349497054    2.448692019    3.494010072
    2.095158598    4.344496599    2.446255124    3.489640672
    2.102337229    4.339494169    2.443818467    3.485272381
    2.109515860    4.334489851    2.441382090    3.480905270
    2.116694491    4.329483729    2.438946031    3.476539410
    2.123873122    4.324475888    2.436510333    3.472174872
    2.131051753    4.319466412    2.434075034    3.467811727
    2.138230384    4.314455386    2.431640175    3.463450045
    2.145409015    4.309442892    2.429205794    3.459089894
    2.152587646    4.304429013    2.426771930    3.454731343
    2.159766277    4.299413832    2.424338623    3.450374461
    2.166944908    4.294397430    2.421905911    3.446019313
    2.174123539    4.289379889    2.419473831    3.441665968
    2.181302170    4.284361289    2.417042422    3.437314491
    2.188480801    4.279341712    2.414611721    3.432964949
    2.195659432    4.274321238    2.412181764    3.428617405
    2.202838063    4.269299945    2.409752590    3.424271924
    2.210016694    4.264277912    2.407324234    3.419928572
    2.217195326    4.259255219    2.404896733    3.415587409
    2.224373957    4.254231944    2.402470123    3.411248500
    2.231552588    4.249208163    2.400044439    3.406911907
    2.238731219    4.244183955    2.397619717    3.402577691
    2.245909850    4.239159396    2.395195991    3.398245913
    2.253088481    4.234134562    2.392773297    3.393916634
    2.260267112    4.229109528    2.390351670    3.389589914
    2.267445743    4.224084370    2.387931142    3.385265812
    2.274624374    4.219059164    2.385511748    3.380944386
    2.281803005    4.214033982    2.383093522    3.376625696
    2.288981636    4.209008899    2.380676497    3.372309798
    2.296160267    4.203983988    2.378260706    3.367996750
    2.303338898    4.198959323    2.375846181    3.363686609
    2.310517529    4.193934975    2.373432956    3.359379430
    2.317696160    4.188911016    2.371021062    3.355075270
    2.324874791    4.183887518    2.368610530    3.350774182
    2.332053422    4.178864553    2.366201394    3.346476222
    2.339232053    4.173842189    2.363793683    3.342181444
    2.346410684    4.168820498    2.361387429    3.337889900
    2.353589316    4.163799549    2.358982663    3.333601644
    2.360767947    4.158779410    2.356579415    3.329316727
    2.367946578    4.153760152    2.354177714    3.325035203
    2.375125209    4.148741841    2.351777592    3.320757121
    2.382303840    4.143724546    2.349379078    3.316482533
    2.389482471    4.138708333    2.346982200    3.312211489
    2.396661102    4.133693270    2.344586988    3.307944039
    2.403839733    4.128679422    2.342193471    3.303680231
    2.411018364    4.123666856    2.339801677    3.299420115
    2.418196995    4.118655637    2.337411634    3.295163739
    2.425375626    4.113645830    2.335023371    3.290911149
    2.432554257    4.108637499    2.332636915    3.286662394
    2.439732888    4.103630707    2.330252293    3.282417521
    2.446911519    4.098625520    2.327869532    3.278176574
    2.454090150    4.093621998    2.325488660    3.273939601
    2.461268781    4.088620206    2.323109702    3.269706645
    2.468447412    4.083620206    2.320732686    3.265477752
    2.475626043    4.078622058    2.318357638    3.261252966
    2.482804674    4.073625824    2.315984582    3.257032331
    2.489983306    4.068631565    2.313613545    3.252815889
    2.497161937    4.063639340    2.311244552    3.248603684
    2.504340568    4.058649211    2.308877627    3.244395758
    2.511519199    4.053661236    2.306512797    3.240192152
    2.518697830    4.048675474    2.304150084    3.235992908
    2.525876461    4.043691983    2.301789514    3.231798067
    2.533055092    4.038710822    2.299431111    3.227607669
    2.540233723    4.033732048    2.297074897    3.223421754
