# energy grid [eV]     epsr_x  epsr_y  epsr_z
#
    0.200000000   15.208171100   16.312166107    7.763545109
    0.207178631   15.211662941   16.315889944    7.764793432
    0.214357262   15.215279913   16.319747105    7.766086290
    0.221535893   15.219022229   16.323737801    7.767423736
    0.228714524   15.222890105   16.327862252    7.768805827
    0.235893155   15.226883767   16.332120683    7.770232621
    0.243071786   15.231003450   16.336513330    7.771704177
    0.250250417   15.235249393   16.341040435    7.773220557
    0.257429048   15.239621847   16.345702247    7.774781826
    0.264607679   15.244121067   16.350499023    7.776388048
    0.271786311   15.248747318   16.355431029    7.778039292
    0.278964942   15.253500871   16.360498538    7.779735627
    0.286143573   15.258382006   16.365701830    7.781477126
    0.293322204   15.263391012   16.371041194    7.783263860
    0.300500835   15.268528184   16.376516925    7.785095907
    0.307679466   15.273793825   16.382129330    7.786973343
    0.314858097   15.279188248   16.387878719    7.788896248
    0.322036728   15.284711772   16.393765414    7.790864704
    0.329215359   15.290364725   16.399789742    7.792878794
    0.336393990   15.296147443   16.405952041    7.794938604
    0.343572621   15.302060271   16.412252654    7.797044221
    0.350751252   15.308103561   16.418691936    7.799195735
    0.357929883   15.314277675   16.425270246    7.801393238
    0.365108514   15.320582982   16.431987956    7.803636824
    0.372287145   15.327019860   16.438845442    7.805926588
    0.379465776   15.333588695   16.445843092    7.808262629
    0.386644407   15.340289883   16.452981299    7.810645046
    0.393823038   15.347123828   16.460260468    7.813073941
    0.401001669   15.354090943   16.467681011    7.815549420
    0.408180301   15.361191648   16.475243348    7.818071588
    0.415358932   15.368426375   16.482947909    7.820640554
    0.422537563   15.375795563   16.490795133    7.823256429
    0.429716194   15.383299659   16.498785466    7.825919325
    0.436894825   15.390939122   16.506919365    7.828629358
    0.444073456   15.398714419   16.515197294    7.831386644
    0.451252087   15.406626026   16.523619729    7.834191305
    0.458430718   15.414674428   16.532187153    7.837043460
    0.465609349   15.422860119   16.540900058    7.839943234
    0.472787980   15.431183605   16.549758946    7.842890754
    0.479966611   15.439645400   16.558764329    7.845886147
    0.487145242   15.448246028   16.567916728    7.848929545
    0.494323873   15.456986021   16.577216673    7.852021081
    0.501502504   15.465865925   16.586664704    7.855160890
    0.508681135   15.474886292   16.596261371    7.858349109
    0.515859766   15.484047686   16.606007234    7.861585879
    0.523038397   15.493350681   16.615902862    7.864871343
    0.530217028   15.502795862   16.625948835    7.868205645
    0.537395659   15.512383824   16.636145742    7.871588931
    0.544574290   15.522115171   16.646494183    7.875021353
    0.551752922   15.531990519   16.656994768    7.878503062
    0.558931553   15.542010496   16.667648118    7.882034213
    0.566110184   15.552175739   16.678454863    7.885614961
    0.573288815   15.562486897   16.689415645    7.889245468
    0.580467446   15.572944628   16.700531116    7.892925895
    0.587646077   15.583549605   16.711801939    7.896656407
    0.594824708   15.594302510   16.723228788    7.900437170
    0.602003339   15.605204036   16.734812347    7.904268355
    0.609181970   15.616254889   16.746553313    7.908150133
    0.616360601   15.627455787   16.758452393    7.912082680
    0.623539232   15.638807459   16.770510305    7.916066173
    0.630717863   15.650310645   16.782727779    7.920100792
    0.637896494   15.661966100   16.795105557    7.924186720
    0.645075125   15.673774589   16.807644393    7.928324142
    0.652253756   15.685736890   16.820345051    7.932513247
    0.659432387   15.697853795   16.833208309    7.936754227
    0.666611018   15.710126108   16.846234955    7.941047274
    0.673789649   15.722554645   16.859425791    7.945392585
    0.680968280   15.735140235   16.872781632    7.949790360
    0.688146912   15.747883723   16.886303303    7.954240801
    0.695325543   15.760785965   16.899991644    7.958744114
    0.702504174   15.773847831   16.913847506    7.963300506
    0.709682805   15.787070205   16.927871755    7.967910188
    0.716861436   15.800453986   16.942065267    7.972573374
    0.724040067   15.814000086   16.956428935    7.977290282
    0.731218698   15.827709432   16.970963663    7.982061130
    0.738397329   15.841582965   16.985670369    7.986886143
    0.745575960   15.855621641   17.000549985    7.991765547
    0.752754591   15.869826432   17.015603457    7.996699569
    0.759933222   15.884198324   17.030831744    8.001688444
    0.767111853   15.898738320   17.046235821    8.006732406
    0.774290484   15.913447437   17.061816677    8.011831693
    0.781469115   15.928326708   17.077575315    8.016986548
    0.788647746   15.943377185   17.093512752    8.022197217
    0.795826377   15.958599933   17.109630021    8.027463947
    0.803005008   15.973996031   17.125928172    8.032786989
    0.810183639   15.989566561   17.142408266    8.038166601
    0.817362270   16.005312577   17.159071384    8.043603039
    0.824540902   16.021235117   17.175918620    8.049096566
    0.831719533   16.037335468   17.192951085    8.054647447
    0.838898164   16.053615001   17.210169906    8.060255951
    0.846076795   16.070074830   17.227576226    8.065922350
    0.853255426   16.086716083   17.245171205    8.071646922
    0.860434057   16.103539961   17.262956020    8.077429944
    0.867612688   16.120547699   17.280931865    8.083271702
    0.874791319   16.137740560   17.299099951    8.089172481
    0.881969950   16.155119825   17.317461506    8.095132572
    0.889148581   16.172686794   17.336017778    8.101152270
    0.896327212   16.190442789   17.354770031    8.107231874
    0.903505843   16.208389152   17.373719547    8.113371684
    0.910684474   16.226527243   17.392867627    8.119572009
    0.917863105   16.244858445   17.412215593    8.125833157
    0.925041736   16.263384162   17.431764782    8.132155442
    0.932220367   16.282105820   17.451516553    8.138539184
    0.939398998   16.301024866   17.471472285    8.144984703
    0.946577629   16.320142770   17.491633374    8.151492327
    0.953756260   16.339461025   17.512001240    8.158062385
    0.960934891   16.358981148   17.532577321    8.164695213
    0.968113523   16.378704677   17.553363076    8.171391149
    0.975292154   16.398633175   17.574359985    8.178150537
    0.982470785   16.418768232   17.595569550    8.184973725
    0.989649416   16.439111459   17.616993294    8.191861064
    0.996828047   16.459664494   17.638632763    8.198812912
    1.004006678   16.480429001   17.660489525    8.205829629
    1.011185309   16.501406669   17.682565170    8.212911581
    1.018363940   16.522599215   17.704861311    8.220059140
    1.025542571   16.544008382   17.727379586    8.227272679
    1.032721202   16.565635940   17.750121654    8.234552579
    1.039899833   16.587483689   17.773089202    8.241899225
    1.047078464   16.609553454   17.796283937    8.249313007
    1.054257095   16.631847094   17.819707594    8.256794318
    1.061435726   16.654366492   17.843361933    8.264343559
    1.068614357   16.677113566   17.867248738    8.271961134
    1.075792988   16.700090261   17.891369820    8.279647453
    1.082971619   16.723298556   17.915727017    8.287402931
    1.090150250   16.746740459   17.940322191    8.295227989
    1.097328881   16.770418012   17.965157226    8.303123051
    1.104507513   16.794333291   17.990234039    8.311088550
    1.111686144   16.818488403   18.015554595    8.319124922
    1.118864775   16.842885492   18.041120877    8.327232608
    1.126043406   16.867526733   18.066934883    8.335412058
    1.133222037   16.892414342   18.092998644    8.343663724
    1.140400668   16.917550567   18.119314225    8.351988065
    1.147579299   16.942937694   18.145883720    8.360385547
    1.154757930   16.968578047   18.172709258    8.368856641
    1.161936561   16.994473989   18.199792997    8.377401823
    1.169115192   17.020627921   18.227137128    8.386021577
    1.176293823   17.047042285   18.254743874    8.394716392
    1.183472454   17.073719563   18.282615493    8.403486764
    1.190651085   17.100662279   18.310754275    8.412333195
    1.197829716   17.127873000   18.339162546    8.421256194
    1.205008347   17.155354335   18.367842666    8.430256274
    1.212186978   17.183108939   18.396797030    8.439333959
    1.219365609   17.211139510   18.426028072    8.448489775
    1.226544240   17.239448793   18.455538259    8.457724259
    1.233722871   17.268039581   18.485330100    8.467037952
    1.240901503   17.296914714   18.515406139    8.476431403
    1.248080134   17.326077082   18.545768960    8.485905169
    1.255258765   17.355529623   18.576421186    8.495459812
    1.262437396   17.385275328   18.607365482    8.505095904
    1.269616027   17.415317240   18.638604552    8.514814023
    1.276794658   17.445658455   18.670141143    8.524614754
    1.283973289   17.476302124   18.701978045    8.534498690
    1.291151920   17.507251455   18.734118091    8.544466433
    1.298330551   17.538509709   18.766564156    8.554518592
    1.305509182   17.570080211   18.799319164    8.564655782
    1.312687813   17.601966340   18.832386082    8.574878630
    1.319866444   17.634171541   18.865767924    8.585187769
    1.327045075   17.666699318   18.899467753    8.595583839
    1.334223706   17.699553241   18.933488678    8.606067492
    1.341402337   17.732736944   18.967833861    8.616639386
    1.348580968   17.766254128   19.002506510    8.627300188
    1.355759599   17.800108561   19.037509888    8.638050574
    1.362938230   17.834304074   19.072847308    8.648891230
    1.370116861   17.868844547   19.108522138    8.659822850
    1.377295492   17.903733895   19.144537799    8.670846138
    1.384474124   17.938976217   19.180897767    8.681961808
    1.391652755   17.974575811   19.217605577    8.693170581
    1.398831386   18.010536876   19.254664820    8.704473191
    1.406010017   18.046863646   19.292079144    8.715870380
    1.413188648   18.083560476   19.329852261    8.727362901
    1.420367279   18.120631824   19.367987941    8.738951515
    1.427545910   18.158082239   19.406490017    8.750636996
    1.434724541   18.195916359   19.445362385    8.762420120
    1.441903172   18.234138913   19.484609002    8.774301673
    1.449081803   18.272754725   19.524233899    8.786282465
    1.456260434   18.311768713   19.564241178    8.798363337
    1.463439065   18.351185890   19.604634996    8.810545106
    1.470617696   18.391011376   19.645419583    8.822828599
    1.477796327   18.431250396   19.686599260    8.835214677
    1.484974958   18.471908283   19.728178417    8.847704210
    1.492153589   18.512990471   19.770161504    8.860298067
    1.499332220   18.554502507   19.812553048    8.872997131
    1.506510851   18.596450051   19.855357660    8.885802298
    1.513689482   18.638838878   19.898580030    8.898714480
    1.520868114   18.681674897   19.942224930    8.911734602
    1.528046745   18.724964155   19.986297217    8.924863600
    1.535225376   18.768712806   20.030801832    8.938102427
    1.542404007   18.812927132   20.075743804    8.951452045
    1.549582638   18.857613556   20.121128251    8.964913435
    1.556761269   18.902778643   20.166960381    8.978487586
    1.563939900   18.948429099   20.213245497    8.992175507
    1.571118531   18.994571781   20.259988995    9.005978217
    1.578297162   19.041213695   20.307196371    9.019896753
    1.585475793   19.088362005   20.354873218    9.033932165
    1.592654424   19.136024036   20.403025232    9.048085518
    1.599833055   19.184207278   20.451658215    9.062357894
    1.607011686   19.232919392   20.500778072    9.076750391
    1.614190317   19.282168215   20.550390819    9.091264122
    1.621368948   19.331961763   20.600502585    9.105900217
    1.628547579   19.382308242   20.651119611    9.120659821
    1.635726210   19.433216055   20.702248254    9.135544100
    1.642904841   19.484693797   20.753894990    9.150554233
    1.650083472   19.536750270   20.806066405    9.165691418
    1.657262104   19.589394486   20.858769208    9.180956870
    1.664440735   19.642635675   20.912010287    9.196351827
    1.671619366   19.696483296   20.965796666    9.211877545
    1.678797997   19.750947039   21.020135449    9.227535296
    1.685976628   19.806036832   21.075033881    9.243326369
    1.693155259   19.861762855   21.130499360    9.259252078
    1.700333890   19.918135542   21.186539431    9.275313753
    1.707512521   19.975165583   21.243161790    9.291512748
    1.714691152   20.032863924   21.300374285    9.307850436
    1.721869783   20.091241794   21.358184921    9.324328212
    1.729048414   20.150310816   21.416601861    9.340947492
    1.736227045   20.210082900   21.475633433    9.357709714
    1.743405676   20.270570171   21.535288128    9.374616336
    1.750584307   20.331785106   21.595574621    9.391668844
    1.757762938   20.393740556   21.656501773    9.408868753
    1.764941569   20.456449709   21.718078618    9.426217596
    1.772120200   20.519926101   21.780314370    9.443716927
    1.779298831   20.584183651   21.843218435    9.461368326
    1.786477462   20.649236672   21.906800423    9.479173400
    1.793656093   20.715099884   21.971070143    9.497133783
    1.800834725   20.781788427   22.036037617    9.515251135
    1.808013356   20.849317878   22.101713077    9.533527143
    1.815191987   20.917704270   22.168106978    9.551963522
    1.822370618   20.986964106   22.235230001    9.570562015
    1.829549249   21.057114382   22.303093058    9.589324395
    1.836727880   21.128172602   22.371707303    9.608252463
    1.843906511   21.200156796   22.441084125    9.627348052
    1.851085142   21.273085522   22.511235147    9.646613023
    1.858263773   21.346977827   22.582172159    9.666049272
    1.865442404   21.421853211   22.653907072    9.685658724
    1.872621035   21.497732160   22.726452421    9.705443339
    1.879799666   21.574636357   22.799821565    9.725405107
    1.886978297   21.652587515   22.874027523    9.745546054
    1.894156928   21.731607813   22.949083400    9.765868245
    1.901335559   21.811720328   23.025002753    9.786373778
    1.908514190   21.892948979   23.101799502    9.807064796
    1.915692821   21.975318509   23.179487862    9.827943473
    1.922871452   22.058854523   23.258082462    9.849012017
    1.930050083   22.143583520   23.337598320    9.870272678
    1.937228715   22.229532924   23.418050813    9.891727749
    1.944407346   22.316731121   23.499455626    9.913379563
    1.951585977   22.405207506   23.581828801    9.935230492
    1.958764608   22.494992536   23.665186782    9.957282946
    1.965943239   22.586117758   23.749546389    9.979539345
    1.973121870   22.678615820   23.834924774   10.002002085
    1.980300501   22.772520698   23.921339614   10.024673681
    1.987479132   22.867867981   24.008809389   10.047556969
    1.994657763   22.964694438   24.097352932   10.070654737
    2.001836394   23.063038054   24.186989295   10.093969620
    2.009015025   23.162938373   24.277737971   10.117504282
    2.016193656   23.264436587   24.369619034   10.141261491
    2.023372287   23.367575584   24.462653126   10.165244095
    2.030550918   23.472400014   24.556861442   10.189454991
    2.037729549   23.578956358   24.652265737   10.213897090
    2.044908180   23.687292983   24.748888332   10.238573281
    2.052086811   23.797460522   24.846752186   10.263486657
    2.059265442   23.909512197   24.945880961   10.288640716
    2.066444073   24.023503225   25.046298909   10.314038707
    2.073622705   24.139491123   25.148030908   10.339683762
    2.080801336   24.257536156   25.251102557   10.365579154
    2.087979967   24.377701428   25.355540191   10.391728271
    2.095158598   24.500053028   25.461370899   10.418134584
    2.102337229   24.624660220   25.568622544   10.444801637
    2.109515860   24.751595624   25.677323755   10.471733048
    2.116694491   24.880935361   25.787503821   10.498932507
    2.123873122   25.012759163   25.899192478   10.526403780
    2.131051753   25.147150896   26.012420450   10.554150712
    2.138230384   25.284199424   26.127220596   10.582177236
    2.145409015   25.423998661   26.243627424   10.610487371
    2.152587646   25.566647385   26.361676052   10.639085216
    2.159766277   25.712248961   26.481401209   10.667974955
    2.166944908   25.860912422   26.602838601   10.697160864
    2.174123539   26.012753257   26.726025528   10.726647316
    2.181302170   26.167893754   26.851000682   10.756438776
    2.188480801   26.326463430   26.977804052   10.786539813
    2.195659432   26.488599570   27.106476932   10.816955095
    2.202838063   26.654447828   27.237061940   10.847689397
    2.210016694   26.824162818   27.369602984   10.878747595
    2.217195326   26.997908747   27.504145163   10.910134665
    2.224373957   27.175860755   27.640735387   10.941855692
    2.231552588   27.358206215   27.779423060   10.973915893
    2.238731219   27.545144804   27.920258564   11.006320684
    2.245909850   27.736890387   28.063294475   11.039075612
    2.253088481   27.933671059   28.208585175   11.072186255
    2.260267112   28.135731085   28.356186152   11.105658323
    2.267445743   28.343332986   28.506155065   11.139497685
    2.274624374   28.556759144   28.658551908   11.173710366
    2.281803005   28.776313706   28.813438992   11.208302540
    2.288981636   29.002324782   28.970881018   11.243280535
    2.296160267   29.235146890   29.130945104   11.278650840
    2.303338898   29.475163790   29.293700929   11.314420102
    2.310517529   29.722791701   29.459220919   11.350595143
    2.317696160   29.978482932   29.627580390   11.387182960
    2.324874791   30.242729967   29.798857625   11.424190729
    2.332053422   30.516070194   29.973134073   11.461625815
    2.339232053   30.799091309   30.150494530   11.499495780
    2.346410684   31.092437523   30.331027327   11.537808385
    2.353589316   31.396816703   30.514824517   11.576571603
    2.360767947   31.713008644   30.701982085   11.615793624
    2.367946578   32.041874660   30.892600164   11.655482865
    2.375125209   32.384368745   31.086783252   11.695647978
    2.382303840   32.741550721   31.284640513   11.736297857
    2.389482471   33.114601840   31.486286257   11.777441649
    2.396661102   33.504842666   31.691839984   11.819088755
    2.403839733   33.913754447   31.901426544   11.861248794
    2.411018364   34.343004903   32.115176577   11.903931477
    2.418196995   34.794478906   32.333226785   11.947146391
    2.425375626   35.270316054   32.555721097   11.990903959
    2.432554257   35.772955730   32.782811740   12.035216800
    2.439732888   36.305190122   33.014657540   12.080096525
    2.446911519   36.870231462   33.251424718   12.125553924
    2.454090150   37.471796189   33.493288551   12.171600581
    2.461268781   38.114208101   33.740434025   12.218248793
    2.468447412   38.802525917   33.993056173   12.265511289
    2.475626043   39.542705583   34.251360503   12.313401132
    2.482804674   40.341808742   34.515563985   12.361931796
    2.489983306   41.208268800   34.785895892   12.411117182
    2.497161937   42.152232223   35.062598658   12.460971630
    2.504340568   43.186003883   35.345929538   12.511510065
    2.511519199   44.324692546   35.636161636   12.562748031
    2.518697830   45.587101339   35.933585760   12.614701890
    2.525876461   46.996695248   36.238510994   12.667388470
    2.533055092   48.583110487   36.551264699   12.720824691
    2.540233723   50.384361804   36.872196307   12.775028055
