# energy grid [eV]     epsr_x  epsr_y  epsr_z
#
    0.200000000   11.260985585   12.324998966    5.397595408
    0.207178631   11.263424079   12.327462770    5.398441596
    0.214357262   11.265950114   12.330014881    5.399318119
    0.221535893   11.268563857   12.332655450    5.400225029
    0.228714524   11.271265477   12.335384634    5.401162380
    0.235893155   11.274055153   12.338202598    5.402130230
    0.243071786   11.276933068   12.341109508    5.403128637
    0.250250417   11.279899410   12.344105540    5.404157662
    0.257429048   11.282954376   12.347190873    5.405217368
    0.264607679   11.286098168   12.350365694    5.406307819
    0.271786311   11.289330994   12.353630195    5.407429083
    0.278964942   11.292653070   12.356984575    5.408581228
    0.286143573   11.296064617   12.360429037    5.409764326
    0.293322204   11.299565864   12.363963791    5.410978451
    0.300500835   11.303157045   12.367589055    5.412223677
    0.307679466   11.306838401   12.371305052    5.413500083
    0.314858097   11.310610183   12.375112011    5.414807749
    0.322036728   11.314472644   12.379010168    5.416146758
    0.329215359   11.318426049   12.382999766    5.417517193
    0.336393990   11.322470665   12.387081054    5.418919143
    0.343572621   11.326606771   12.391254288    5.420352696
    0.350751252   11.330834650   12.395519732    5.421817946
    0.357929883   11.335154594   12.399877654    5.423314986
    0.365108514   11.339566902   12.404328332    5.424843913
    0.372287145   11.344071881   12.408872051    5.426404827
    0.379465776   11.348669845   12.413509102    5.427997830
    0.386644407   11.353361117   12.418239785    5.429623028
    0.393823038   11.358146026   12.423064406    5.431280527
    0.401001669   11.363024912   12.427983279    5.432970438
    0.408180301   11.367998121   12.432996728    5.434692874
    0.415358932   11.373066007   12.438105082    5.436447952
    0.422537563   11.378228936   12.443308681    5.438235790
    0.429716194   11.383487278   12.448607871    5.440056510
    0.436894825   11.388841415   12.454003008    5.441910238
    0.444073456   11.394291737   12.459494457    5.443797101
    0.451252087   11.399838645   12.465082590    5.445717231
    0.458430718   11.405482545   12.470767791    5.447670763
    0.465609349   11.411223857   12.476550451    5.449657834
    0.472787980   11.417063010   12.482430971    5.451678587
    0.479966611   11.423000440   12.488409763    5.453733166
    0.487145242   11.429036597   12.494487248    5.455821719
    0.494323873   11.435171939   12.500663857    5.457944400
    0.501502504   11.441406935   12.506940033    5.460101365
    0.508681135   11.447742067   12.513316228    5.462292772
    0.515859766   11.454177825   12.519792907    5.464518788
    0.523038397   11.460714713   12.526370546    5.466779579
    0.530217028   11.467353246   12.533049631    5.469075318
    0.537395659   11.474093950   12.539830663    5.471406182
    0.544574290   11.480937366   12.546714154    5.473772354
    0.551752922   11.487884045   12.553700628    5.476174017
    0.558931553   11.494934553   12.560790625    5.478611365
    0.566110184   11.502089469   12.567984696    5.481084592
    0.573288815   11.509349385   12.575283409    5.483593900
    0.580467446   11.516714909   12.582687345    5.486139496
    0.587646077   11.524186663   12.590197100    5.488721590
    0.594824708   11.531765283   12.597813286    5.491340402
    0.602003339   11.539451424   12.605536534    5.493996154
    0.609181970   11.547245754   12.613367488    5.496689076
    0.616360601   11.555148961   12.621306813    5.499419405
    0.623539232   11.563161747   12.629355192    5.502187384
    0.630717863   11.571284836   12.637513325    5.504993263
    0.637896494   11.579518967   12.645781934    5.507837298
    0.645075125   11.587864903   12.654161762    5.510719755
    0.652253756   11.596323423   12.662653573    5.513640906
    0.659432387   11.604895331   12.671258155    5.516601033
    0.666611018   11.613581451   12.679976319    5.519600424
    0.673789649   11.622382631   12.688808902    5.522639379
    0.680968280   11.631299742   12.697756765    5.525718205
    0.688146912   11.640333681   12.706820801    5.528837221
    0.695325543   11.649485373   12.716001927    5.531996755
    0.702504174   11.658755769   12.725301096    5.535197148
    0.709682805   11.668145850   12.734719288    5.538438750
    0.716861436   11.677656626   12.744257522    5.541721926
    0.724040067   11.687289142   12.753916850    5.545047052
    0.731218698   11.697044475   12.763698364    5.548414518
    0.738397329   11.706923739   12.773603194    5.551824731
    0.745575960   11.716928086   12.783632518    5.555278110
    0.752754591   11.727058708   12.793787554    5.558775092
    0.759933222   11.737316840   12.804069574    5.562316132
    0.767111853   11.747703762   12.814479898    5.565901705
    0.774290484   11.758220803   12.825019904    5.569532302
    0.781469115   11.768869344   12.835691030    5.573208439
    0.788647746   11.779650820   12.846494776    5.576930654
    0.795826377   11.790566726   12.857432713    5.580699509
    0.803005008   11.801618619   12.868506483    5.584515593
    0.810183639   11.812808125   12.879717809    5.588379523
    0.817362270   11.824136944   12.891068502    5.592291948
    0.824540902   11.835606852   12.902560464    5.596253550
    0.831719533   11.847219715   12.914195697    5.600265047
    0.838898164   11.858977487   12.925976315    5.604327196
    0.846076795   11.870882225   12.937904551    5.608440798
    0.853255426   11.882936095   12.949982767    5.612606701
    0.860434057   11.895141381   12.962213471    5.616825803
    0.867612688   11.907500500   12.974599323    5.621099060
    0.874791319   11.920016010   12.987143160    5.625427490
    0.881969950   11.932690628   12.999848005    5.629812179
    0.889148581   11.945527245   13.012717094    5.634254290
    0.896327212   11.958528942   13.025753893    5.638755069
    0.903505843   11.971699016   13.038962129    5.643315859
    0.910684474   11.985041001   13.052345818    5.647938105
    0.917863105   11.998558697   13.065909295    5.652623373
    0.925041736   12.012256200   13.079657264    5.657373361
    0.932220367   12.026137942   13.093594832    5.662189917
    0.939398998   12.040208733   13.107727572    5.667075063
    0.946577629   12.054473812   13.122061582    5.672031013
    0.953756260   12.068938908   13.136603558    5.677060206
    0.960934891   12.083610307   13.151360883    5.682165339
    0.968113523   12.098494941   13.166341730    5.687349407
    0.975292154   12.113600481   13.181555187    5.692615752
    0.982470785   12.128935467   13.197011404    5.697968124
    0.989649416   12.144509443   13.212721777    5.703410748
    0.996828047   12.160333145   13.228699166    5.708948422
    1.004006678   12.176418714   13.244958169    5.714586619
    1.011185309   12.192779966   13.261515455    5.720331631
    1.018363940   12.209432735   13.278390189    5.726190739
    1.025542571   12.226395299   13.295604561    5.732172443
    1.032721202   12.243688924   13.313184467    5.738286742
    1.039899833   12.261338573   13.331160381    5.744545511
    1.047078464   12.279373818   13.349568508    5.750962997
    1.054257095   12.297830058   13.368452287    5.757556476
    1.061435726   12.316750143   13.387864422    5.764347146
    1.068614357   12.336186572   13.407869629    5.771361349
    1.075792988   12.356204517   13.428548406    5.778632257
    1.082971619   12.376885998   13.450002254    5.786202241
    1.090150250   12.398335682   13.472360932    5.794126165
    1.097328881   12.420688838   13.495792396    5.802475939
    1.104507513   12.444121672   13.520515741    5.811346441
    1.111686144   12.468862535   13.546815189    5.820861837
    1.118864775   12.495194842   13.575043659    5.831176650
    1.126043406   12.523412403   13.605566429    5.842447391
    1.133222037   12.553567726   13.638444450    5.854676859
    1.140400668   12.584384969   13.672067185    5.867045498
    1.147579299   12.609282565   13.698151034    5.875468999
    1.154757930   12.609153888   13.692661108    5.868166092
    1.161936561   12.577556003   13.647483030    5.841106134
    1.169115192   12.566789184   13.628362641    5.826270428
    1.176293823   12.592053539   13.654390096    5.832846391
    1.183472454   12.632233250   13.698983886    5.847695850
    1.190651085   12.677591752   13.749860673    5.864598850
    1.197829716   12.726573044   13.805011437    5.882280394
    1.205008347   12.780018971   13.865434480    5.900888830
    1.212186978   12.838796582   13.932184096    5.920735827
    1.219365609   12.900578769   14.002469478    5.941217947
    1.226544240   12.948633881   14.056144803    5.957515387
    1.233722871   12.919279667   14.016500534    5.951089234
    1.240901503   12.710734467   13.760926904    5.892267719
    1.248080134   12.459992758   13.454466582    5.821067135
    1.255258765   12.388039327   13.363344520    5.802013543
    1.262437396   12.423655927   13.401767906    5.814336696
    1.269616027   12.483704762   13.469584086    5.833783922
    1.276794658   12.542600307   13.535973513    5.852899355
    1.283973289   12.595578483   13.595200223    5.870303181
    1.291151920   12.642903888   13.647586407    5.886082358
    1.298330551   12.685719732   13.694512924    5.900579643
    1.305509182   12.725100901   13.737278632    5.914117491
    1.312687813   12.761894324   13.776908177    5.926951725
    1.319866444   12.796738298   13.814175384    5.939277394
    1.327045075   12.830110843   13.849661617    5.951243100
    1.334223706   12.862372763   13.883807802    5.962963764
    1.341402337   12.893800180   13.916953768    5.974530329
    1.348580968   12.924607951   13.949366641    5.986016817
    1.355759599   12.954966342   13.981261157    5.997485444
    1.362938230   12.985012962   14.012814306    6.008990382
    1.370116861   13.014861409   14.044176081    6.020580619
    1.377295492   13.044607677   14.075477607    6.032302231
    1.384474124   13.074335006   14.106837508    6.044200281
    1.391652755   13.104117706   14.138367172    6.056320547
    1.398831386   13.134024306   14.170175389    6.068711197
    1.406010017   13.164120321   14.202372786    6.081424561
    1.413188648   13.194470868   14.235076418    6.094519132
    1.420367279   13.225143367   14.268414944    6.108061961
    1.427545910   13.256210585   14.302534859    6.122131659
    1.434724541   13.287754306   14.337608421    6.136822278
    1.441903172   13.319870043   14.373844136    6.152248467
    1.449081803   13.352673267   14.411500892    6.168552423
    1.456260434   13.386307736   14.450907074    6.185913344
    1.463439065   13.420956103   14.492485355    6.204560069
    1.470617696   13.456851105   14.536780119    6.224786927
    1.477796327   13.494277264   14.584467965    6.246968967
    1.484974958   13.533520062   14.636265710    6.271556529
    1.492153589   13.574588041   14.692386428    6.298962957
    1.499332220   13.616023620   14.750170333    6.329000728
    1.506510851   13.650668144   14.795602477    6.358782063
    1.513689482   13.659317218   14.790582020    6.379522174
    1.520868114   13.640958082   14.733566774    6.391638934
    1.528046745   13.647063058   14.728019979    6.421117479
    1.535225376   13.684615684   14.785898917    6.466411557
    1.542404007   13.729644817   14.848198527    6.490181073
    1.549582638   13.762693075   14.843846540    6.409233341
    1.556761269   13.777817354   14.748833516    6.192737305
    1.563939900   13.803996317   14.707923947    6.053531116
    1.571118531   13.848126332   14.756081874    6.052376166
    1.578297162   13.888677859   14.791918607    6.083500873
    1.585475793   13.899321599   14.698520004    6.067831738
    1.592654424   13.890721238   14.518171815    6.014665048
    1.599833055   13.913637923   14.462933135    6.008713603
    1.607011686   13.963959243   14.514211758    6.043051090
    1.614190317   14.022753734   14.593647707    6.086750830
    1.621368948   14.080248211   14.673601940    6.129014790
    1.628547579   14.122227121   14.748391360    6.166860133
    1.635726210   14.125989892   14.816389044    6.197407173
    1.642904841   14.110065197   14.871795067    6.217118597
    1.650083472   14.105089472   14.903564343    6.219087406
    1.657262104   14.114451321   14.926131624    6.214920379
    1.664440735   14.154128393   14.965212620    6.226309244
    1.671619366   14.209963215   15.012191445    6.244852707
    1.678797997   14.268936860   15.062874023    6.266859251
    1.685976628   14.323544684   15.113172530    6.290553913
    1.693155259   14.359196035   15.144633537    6.305872568
    1.700333890   14.364133517   15.142707928    6.305359540
    1.707512521   14.375255007   15.147595534    6.307672794
    1.714691152   14.415663851   15.184631837    6.324705435
    1.721869783   14.468800069   15.235496187    6.348033069
    1.729048414   14.524349007   15.288792130    6.372462456
    1.736227045   14.579757588   15.341700861    6.396802848
    1.743405676   14.634854214   15.394039361    6.421101139
    1.750584307   14.689999261   15.446215494    6.445682094
    1.757762938   14.745540608   15.498614308    6.470801602
    1.764941569   14.801320391   15.551000525    6.496086864
    1.772120200   14.855108027   15.600583286    6.518525972
    1.779298831   14.898395351   15.636819591    6.527044417
    1.786477462   14.920032755   15.645904642    6.507182360
    1.793656093   14.941230237   15.654012087    6.486183619
    1.800834725   14.985163001   15.689741600    6.493830131
    1.808013356   15.041359765   15.740120729    6.516555264
    1.815191987   15.100815612   15.793983039    6.542679247
    1.822370618   15.161029789   15.848189606    6.568895681
    1.829549249   15.221697197   15.902302831    6.594715614
    1.836727880   15.283051612   15.956535149    6.620326917
    1.843906511   15.345448452   16.011227417    6.646048825
    1.851085142   15.409283820   16.066740411    6.672217069
    1.858263773   15.474999379   16.123449736    6.699176614
    1.865442404   15.543108473   16.181765981    6.727300792
    1.872621035   15.614215596   16.242155819    6.757013292
    1.879799666   15.688969514   16.305134224    6.788789455
    1.886978297   15.767717711   16.371119563    6.823054479
    1.894156928   15.848948109   16.439723711    6.859651911
    1.901335559   15.923636661   16.507125261    6.895844748
    1.908514190   15.966357341   16.561937729    6.923075700
    1.915692821   15.973619197   16.603347285    6.940040394
    1.922871452   16.006428304   16.661333851    6.965682835
    1.930050083   16.047115731   16.728381903    6.981998023
    1.937228715   16.024783376   16.754779403    6.938060647
    1.944407346   15.979458770   16.692246186    6.839023342
    1.951585977   15.996075733   16.605896350    6.763419271
    1.958764608   16.072144273   16.619843615    6.767081135
    1.965943239   16.172810522   16.703530662    6.816342059
    1.973121870   16.279088126   16.808172079    6.877972751
    1.980300501   16.386641926   16.918782470    6.942494821
    1.987479132   16.495573823   17.033227574    7.008834856
    1.994657763   16.605545055   17.149961857    7.075943404
    2.001836394   16.709934148   17.256009309    7.133969659
    2.009015025   16.781907161   17.299578362    7.143775290
    2.016193656   16.783407686   17.200866213    7.046649559
    2.023372287   16.780185161   17.072913300    6.931010089
    2.030550918   16.853187402   17.089656674    6.924406720
    2.037729549   16.964494744   17.181220249    6.976774352
    2.044908180   17.070441145   17.244806217    7.021009714
    2.052086811   17.158542213   17.269898512    7.039191968
    2.059265442   17.226879146   17.282786778    7.030271373
    2.066444073   17.302947656   17.302634026    7.018333859
    2.073622705   17.425697837   17.334634190    7.024748966
    2.080801336   17.570669600   17.305530532    7.002095600
    2.087979967   17.696381439   17.282871591    6.988494137
    2.095158598   17.762005043   17.301803785    7.003177369
    2.102337229   17.806865410   17.326554796    7.011605052
    2.109515860   17.895864664   17.386651075    7.022923963
    2.116694491   18.000441521   17.475095912    7.037242237
    2.123873122   18.102608146   17.556154802    7.048206037
    2.131051753   18.199234325   17.621034847    7.055497746
    2.138230384   18.253599450   17.703416394    7.054262323
    2.145409015   18.231154862   17.800295739    7.034534365
    2.152587646   18.287166746   17.903563145    7.047560131
    2.159766277   18.497253755   18.021859975    7.105815364
    2.166944908   18.762944986   18.143156830    7.178521040
    2.174123539   18.908342069   18.228228548    7.235477290
    2.181302170   18.584258331   18.204014174    7.229381049
    2.188480801   17.736131143   18.090597964    7.151319269
    2.195659432   17.219526495   18.051697317    7.110643736
    2.202838063   17.218196390   18.101028547    7.130435275
    2.210016694   17.431609955   18.183325533    7.169842489
    2.217195326   17.695277789   18.261390642    7.202559695
    2.224373957   17.949271021   18.347107389    7.242108984
    2.231552588   18.176460985   18.438866220    7.287079040
    2.238731219   18.378050203   18.528941232    7.319924505
    2.245909850   18.563865267   18.629804921    7.333981827
    2.253088481   18.744579605   18.736715203    7.349764448
    2.260267112   18.921341023   18.835753398    7.379479270
    2.267445743   19.076110391   18.911402819    7.393424804
    2.274624374   19.226607140   18.983131082    7.406095484
    2.281803005   19.391503653   19.068970966    7.439410267
    2.288981636   19.540306952   19.139179451    7.461753209
    2.296160267   19.666305583   19.189035115    7.459524008
    2.303338898   19.817053059   19.262763458    7.473851455
    2.310517529   20.001831363   19.364643117    7.517259601
    2.317696160   20.201917837   19.475396898    7.569735628
    2.324874791   20.409007134   19.584275196    7.617256280
    2.332053422   20.622611405   19.690598757    7.658937807
    2.339232053   20.845040205   19.802436753    7.706982050
    2.346410684   21.078620570   19.920792241    7.762511901
    2.353589316   21.324136372   20.042692404    7.821310880
    2.360767947   21.575035102   20.162987548    7.879702106
    2.367946578   21.798246243   20.265166318    7.928153015
    2.375125209   21.914015571   20.324603845    7.949552054
    2.382303840   21.853604085   20.360443468    7.943985644
    2.389482471   21.736333486   20.412062754    7.939146849
    2.396661102   21.801820370   20.496721990    7.966745236
    2.403839733   22.028713758   20.610346635    8.018463046
    2.411018364   22.331075755   20.738354889    8.067264971
    2.418196995   22.657727619   20.860833635    8.085336131
    2.425375626   22.992681633   20.977611835    8.098334219
    2.432554257   23.334400145   21.098665570    8.140626350
    2.439732888   23.682109556   21.233717607    8.208650581
    2.446911519   24.020508917   21.377992767    8.288698386
    2.454090150   24.354334966   21.525243306    8.368254790
    2.461268781   24.688117230   21.672445148    8.428680055
    2.468447412   24.962542323   21.806777927    8.439094813
    2.475626043   25.183870055   21.933313749    8.402765943
    2.482804674   25.394783284   22.077369704    8.369082445
    2.489983306   25.570469473   22.242576315    8.373414066
    2.497161937   25.762267590   22.381623431    8.385699820
    2.504340568   26.111601899   22.451381070    8.387703000
    2.511519199   26.568079501   22.507209501    8.392157551
    2.518697830   27.126084925   22.651004219    8.450241206
    2.525876461   27.646095680   22.856426753    8.547560603
    2.533055092   27.926423889   23.036071372    8.643689175
    2.540233723   28.067020700   23.114298184    8.720888376
