# energy grid [eV]     epsr_x  epsr_y  epsr_z
#
    0.200000000   10.233278021    3.609136007   10.162828528
    0.207178631   10.235012308    3.609592073   10.164909240
    0.214357262   10.236808470    3.610064423   10.167064456
    0.221535893   10.238666584    3.610553079   10.169294296
    0.228714524   10.240586727    3.611058061   10.171598883
    0.235893155   10.242568981    3.611579395   10.173978346
    0.243071786   10.244613430    3.612117102   10.176432816
    0.250250417   10.246720160    3.612671207   10.178962430
    0.257429048   10.248889260    3.613241735   10.181567329
    0.264607679   10.251120823    3.613828712   10.184247658
    0.271786311   10.253414942    3.614432165   10.187003566
    0.278964942   10.255771716    3.615052121   10.189835208
    0.286143573   10.258191244    3.615688607   10.192742742
    0.293322204   10.260673629    3.616341654   10.195726330
    0.300500835   10.263218977    3.617011291   10.198786141
    0.307679466   10.265827396    3.617697548   10.201922346
    0.314858097   10.268498997    3.618400456   10.205135121
    0.322036728   10.271233894    3.619120049   10.208424647
    0.329215359   10.274032205    3.619856357   10.211791110
    0.336393990   10.276894049    3.620609416   10.215234700
    0.343572621   10.279819547    3.621379260   10.218755612
    0.350751252   10.282808827    3.622165923   10.222354045
    0.357929883   10.285862015    3.622969443   10.226030204
    0.365108514   10.288979243    3.623789856   10.229784296
    0.372287145   10.292160646    3.624627200   10.233616537
    0.379465776   10.295406359    3.625481513   10.237527144
    0.386644407   10.298716522    3.626352835   10.241516342
    0.393823038   10.302091280    3.627241207   10.245584357
    0.401001669   10.305530776    3.628146669   10.249731424
    0.408180301   10.309035161    3.629069263   10.253957781
    0.415358932   10.312604586    3.630009033   10.258263670
    0.422537563   10.316239205    3.630966021   10.262649340
    0.429716194   10.319939176    3.631940274   10.267115044
    0.436894825   10.323704661    3.632931835   10.271661041
    0.444073456   10.327535823    3.633940751   10.276287594
    0.451252087   10.331432829    3.634967070   10.280994973
    0.458430718   10.335395849    3.636010840   10.285783450
    0.465609349   10.339425057    3.637072109   10.290653305
    0.472787980   10.343520629    3.638150928   10.295604824
    0.479966611   10.347682745    3.639247348   10.300638296
    0.487145242   10.351911586    3.640361420   10.305754017
    0.494323873   10.356207341    3.641493197   10.310952287
    0.501502504   10.360570196    3.642642732   10.316233414
    0.508681135   10.365000346    3.643810081   10.321597709
    0.515859766   10.369497986    3.644995298   10.327045491
    0.523038397   10.374063314    3.646198440   10.332577083
    0.530217028   10.378696534    3.647419565   10.338192815
    0.537395659   10.383397851    3.648658731   10.343893021
    0.544574290   10.388167474    3.649915997   10.349678043
    0.551752922   10.393005615    3.651191425   10.355548227
    0.558931553   10.397912492    3.652485074   10.361503927
    0.566110184   10.402888322    3.653797008   10.367545502
    0.573288815   10.407933330    3.655127290   10.373673317
    0.580467446   10.413047741    3.656475984   10.379887743
    0.587646077   10.418231785    3.657843156   10.386189158
    0.594824708   10.423485696    3.659228872   10.392577946
    0.602003339   10.428809711    3.660633200   10.399054498
    0.609181970   10.434204071    3.662056209   10.405619209
    0.616360601   10.439669020    3.663497968   10.412272485
    0.623539232   10.445204806    3.664958548   10.419014734
    0.630717863   10.450811681    3.666438020   10.425846374
    0.637896494   10.456489901    3.667936458   10.432767827
    0.645075125   10.462239724    3.669453936   10.439779525
    0.652253756   10.468061414    3.670990529   10.446881904
    0.659432387   10.473955238    3.672546314   10.454075410
    0.666611018   10.479921466    3.674121367   10.461360492
    0.673789649   10.485960374    3.675715767   10.468737610
    0.680968280   10.492072240    3.677329595   10.476207230
    0.688146912   10.498257347    3.678962930   10.483769824
    0.695325543   10.504515981    3.680615856   10.491425874
    0.702504174   10.510848433    3.682288455   10.499175867
    0.709682805   10.517254998    3.683980813   10.507020300
    0.716861436   10.523735976    3.685693014   10.514959675
    0.724040067   10.530291668    3.687425147   10.522994504
    0.731218698   10.536922382    3.689177299   10.531125307
    0.738397329   10.543628430    3.690949559   10.539352610
    0.745575960   10.550410129    3.692742019   10.547676950
    0.752754591   10.557267797    3.694554771   10.556098868
    0.759933222   10.564201759    3.696387908   10.564618919
    0.767111853   10.571212345    3.698241525   10.573237662
    0.774290484   10.578299889    3.700115718   10.581955666
    0.781469115   10.585464726    3.702010584   10.590773508
    0.788647746   10.592707202    3.703926223   10.599691777
    0.795826377   10.600027661    3.705862734   10.608711065
    0.803005008   10.607426457    3.707820219   10.617831980
    0.810183639   10.614903946    3.709798781   10.627055133
    0.817362270   10.622460488    3.711798525   10.636381148
    0.824540902   10.630096449    3.713819556   10.645810658
    0.831719533   10.637812201    3.715861982   10.655344303
    0.838898164   10.645608119    3.717925911   10.664982737
    0.846076795   10.653484584    3.720011454   10.674726620
    0.853255426   10.661441980    3.722118722   10.684576624
    0.860434057   10.669480700    3.724247830   10.694533431
    0.867612688   10.677601138    3.726398891   10.704597732
    0.874791319   10.685803695    3.728572023   10.714770230
    0.881969950   10.694088777    3.730767344   10.725051638
    0.889148581   10.702456796    3.732984972   10.735442679
    0.896327212   10.710908169    3.735225030   10.745944088
    0.903505843   10.719443317    3.737487640   10.756556611
    0.910684474   10.728062667    3.739772927   10.767281004
    0.917863105   10.736766654    3.742081018   10.778118036
    0.925041736   10.745555715    3.744412040   10.789068486
    0.932220367   10.754430295    3.746766123   10.800133146
    0.939398998   10.763390843    3.749143399   10.811312820
    0.946577629   10.772437815    3.751544000   10.822608323
    0.953756260   10.781571673    3.753968063   10.834020484
    0.960934891   10.790792884    3.756415724   10.845550143
    0.968113523   10.800101921    3.758887121   10.857198152
    0.975292154   10.809499264    3.761382396   10.868965379
    0.982470785   10.818985398    3.763901691   10.880852702
    0.989649416   10.828560815    3.766445150   10.892861015
    0.996828047   10.838226013    3.769012919   10.904991223
    1.004006678   10.847981495    3.771605148   10.917244246
    1.011185309   10.857827773    3.774221986   10.929621019
    1.018363940   10.867765364    3.776863586   10.942122489
    1.025542571   10.877794791    3.779530103   10.954749620
    1.032721202   10.887916585    3.782221692   10.967503388
    1.039899833   10.898131282    3.784938513   10.980384786
    1.047078464   10.908439428    3.787680726   10.993394822
    1.054257095   10.918841571    3.790448495   11.006534519
    1.061435726   10.929338271    3.793241984   11.019804916
    1.068614357   10.939930091    3.796061360   11.033207068
    1.075792988   10.950617604    3.798906794   11.046742045
    1.082971619   10.961401389    3.801778458   11.060410936
    1.090150250   10.972282033    3.804676525   11.074214845
    1.097328881   10.983260130    3.807601172   11.088154894
    1.104507513   10.994336280    3.810552579   11.102232223
    1.111686144   11.005511093    3.813530926   11.116447988
    1.118864775   11.016785187    3.816536398   11.130803365
    1.126043406   11.028159185    3.819569181   11.145299548
    1.133222037   11.039633721    3.822629464   11.159937748
    1.140400668   11.051209434    3.825717438   11.174719198
    1.147579299   11.062886975    3.828833298   11.189645149
    1.154757930   11.074666999    3.831977241   11.204716871
    1.161936561   11.086550173    3.835149465   11.219935655
    1.169115192   11.098537170    3.838350174   11.235302814
    1.176293823   11.110628672    3.841579571   11.250819678
    1.183472454   11.122825372    3.844837865   11.266487604
    1.190651085   11.135127968    3.848125267   11.282307965
    1.197829716   11.147537171    3.851441989   11.298282161
    1.205008347   11.160053697    3.854788249   11.314411611
    1.212186978   11.172678275    3.858164266   11.330697759
    1.219365609   11.185411640    3.861570262   11.347142072
    1.226544240   11.198254540    3.865006463   11.363746040
    1.233722871   11.211207729    3.868473098   11.380511180
    1.240901503   11.224271972    3.871970398   11.397439030
    1.248080134   11.237448046    3.875498599   11.414531158
    1.255258765   11.250736736    3.879057939   11.431789153
    1.262437396   11.264138836    3.882648660   11.449214634
    1.269616027   11.277655152    3.886271006   11.466809246
    1.276794658   11.291286501    3.889925227   11.484574660
    1.283973289   11.305033710    3.893611574   11.502512578
    1.291151920   11.318897615    3.897330304   11.520624727
    1.298330551   11.332879065    3.901081674   11.538912866
    1.305509182   11.346978919    3.904865949   11.557378782
    1.312687813   11.361198049    3.908683394   11.576024294
    1.319866444   11.375537336    3.912534280   11.594851251
    1.327045075   11.389997674    3.916418882   11.613861535
    1.334223706   11.404579968    3.920337477   11.633057057
    1.341402337   11.419285136    3.924290348   11.652439765
    1.348580968   11.434114106    3.928277780   11.672011639
    1.355759599   11.449067822    3.932300065   11.691774693
    1.362938230   11.464147236    3.936357496   11.711730977
    1.370116861   11.479353315    3.940450373   11.731882577
    1.377295492   11.494687040    3.944578997   11.752231616
    1.384474124   11.510149403    3.948743678   11.772780254
    1.391652755   11.525741410    3.952944726   11.793530689
    1.398831386   11.541464080    3.957182459   11.814485159
    1.406010017   11.557318446    3.961457197   11.835645943
    1.413188648   11.573305556    3.965769267   11.857015359
    1.420367279   11.589426470    3.970118999   11.878595769
    1.427545910   11.605682264    3.974506728   11.900389577
    1.434724541   11.622074028    3.978932795   11.922399229
    1.441903172   11.638602867    3.983397545   11.944627221
    1.449081803   11.655269900    3.987901331   11.967076089
    1.456260434   11.672076263    3.992444506   11.989748420
    1.463439065   11.689023105    3.997027433   12.012646848
    1.470617696   11.706111595    4.001650479   12.035774056
    1.477796327   11.723342912    4.006314015   12.059132778
    1.484974958   11.740718258    4.011018420   12.082725798
    1.492153589   11.758238846    4.015764077   12.106555956
    1.499332220   11.775905909    4.020551375   12.130626142
    1.506510851   11.793720696    4.025380711   12.154939306
    1.513689482   11.811684474    4.030252485   12.179498450
    1.520868114   11.829798527    4.035167106   12.204306639
    1.528046745   11.848064157    4.040124986   12.229366994
    1.535225376   11.866482685    4.045126548   12.254682698
    1.542404007   11.885055450    4.050172216   12.280256997
    1.549582638   11.903783810    4.055262426   12.306093202
    1.556761269   11.922669143    4.060397616   12.332194688
    1.563939900   11.941712845    4.065578235   12.358564899
    1.571118531   11.960916334    4.070804737   12.385207347
    1.578297162   11.980281047    4.076077583   12.412125616
    1.585475793   11.999808441    4.081397242   12.439323363
    1.592654424   12.019499996    4.086764190   12.466804318
    1.599833055   12.039357211    4.092178910   12.494572288
    1.607011686   12.059381608    4.097641895   12.522631162
    1.614190317   12.079574732    4.103153644   12.550984905
    1.621368948   12.099938150    4.108714665   12.579637568
    1.628547579   12.120473449    4.114325472   12.608593287
    1.635726210   12.141182245    4.119986591   12.637856283
    1.642904841   12.162066172    4.125698553   12.667430871
    1.650083472   12.183126893    4.131461902   12.697321456
    1.657262104   12.204366093    4.137277185   12.727532537
    1.664440735   12.225785481    4.143144965   12.758068712
    1.671619366   12.247386795    4.149065808   12.788934679
    1.678797997   12.269171797    4.155040293   12.820135236
    1.685976628   12.291142273    4.161069008   12.851675276
    1.693155259   12.313300034    4.167152549   12.883559771
    1.700333890   12.335646916    4.173291523   12.915793785
    1.707512521   12.358184803    4.179486550   12.948382668
    1.714691152   12.380915610    4.185738261   12.981331906
    1.721869783   12.403841260    4.192047296   13.014646928
    1.729048414   12.426963706    4.198414302   13.048333293
    1.736227045   12.450284935    4.204839941   13.082396725
    1.743405676   12.473806966    4.211324885   13.116843094
    1.750584307   12.497531851    4.217869820   13.151678406
    1.757762938   12.521461674    4.224475441   13.186908814
    1.764941569   12.545598550    4.231142458   13.222540614
    1.772120200   12.569944630    4.237871591   13.258580251
    1.779298831   12.594502097    4.244663575   13.295034328
    1.786477462   12.619273169    4.251519155   13.331909605
    1.793656093   12.644260101    4.258439093   13.369213008
    1.800834725   12.669465182    4.265424162   13.406951632
    1.808013356   12.694890739    4.272475149   13.445132748
    1.815191987   12.720539135    4.279592857   13.483763803
    1.822370618   12.746412768    4.286778101   13.522852419
    1.829549249   12.772514063    4.294031709   13.562406369
    1.836727880   12.798845491    4.301354527   13.602433609
    1.843906511   12.825409608    4.308747421   13.642942477
    1.851085142   12.852209010    4.316211275   13.683941595
    1.858263773   12.879246289    4.323746981   13.725439592
    1.865442404   12.906524080    4.331355446   13.767445289
    1.872621035   12.934045073    4.339037598   13.809967786
    1.879799666   12.961812008    4.346794383   13.853016449
    1.886978297   12.989827670    4.354626764   13.896600899
    1.894156928   13.018094894    4.362535722   13.940731018
    1.901335559   13.046616561    4.370522258   13.985416957
    1.908514190   13.075395601    4.378587391   14.030669146
    1.915692821   13.104434998    4.386732162   14.076498301
    1.922871452   13.133737784    4.394957628   14.122915438
    1.930050083   13.163307044    4.403264870   14.169931884
    1.937228715   13.193145920    4.411654989   14.217559284
    1.944407346   13.223257604    4.420129109   14.265809615
    1.951585977   13.253645350    4.428688373   14.314695198
    1.958764608   13.284312464    4.437333950   14.364228693
    1.965943239   13.315262311    4.446067031   14.414423080
    1.973121870   13.346498315    4.454888830   14.465291695
    1.980300501   13.378023973    4.463800587   14.516848531
    1.987479132   13.409842846    4.472803568   14.569108052
    1.994657763   13.441958547    4.481899063   14.622084860
    2.001836394   13.474374758    4.491088389   14.675794003
    2.009015025   13.507095227    4.500372890   14.730251055
    2.016193656   13.540123777    4.509753937   14.785472093
    2.023372287   13.573464297    4.519232933   14.841473704
    2.030550918   13.607120752    4.528811306   14.898273000
    2.037729549   13.641097180    4.538490517   14.955887641
    2.044908180   13.675397697    4.548272057   15.014335855
    2.052086811   13.710026495    4.558157448   15.073636462
    2.059265442   13.744987847    4.568148248   15.133808901
    2.066444073   13.780286108    4.578246043   15.194873256
    2.073622705   13.815925716    4.588452459   15.256850281
    2.080801336   13.851911197    4.598769154   15.319761432
    2.087979967   13.888247164    4.609197823   15.383628897
    2.095158598   13.924938321    4.619740200   15.448475629
    2.102337229   13.961989465    4.630398056   15.514325376
    2.109515860   13.999405489    4.641173201   15.581202725
    2.116694491   14.037191382    4.652067487   15.649133131
    2.123873122   14.075352235    4.663082809   15.718142965
    2.131051753   14.113893241    4.674221102   15.788259550
    2.138230384   14.152819699    4.685484347   15.859511205
    2.145409015   14.192137014    4.696874567   15.931927290
    2.152587646   14.231850700    4.708393819   16.005538243
    2.159766277   14.271966382    4.720044173   16.080375699
    2.166944908   14.312489810    4.731827750   16.156472541
    2.174123539   14.353426879    4.743746909   16.233862851
    2.181302170   14.394783598    4.755804014   16.312582024
    2.188480801   14.436566077    4.768001332   16.392666863
    2.195659432   14.478780564    4.780341204   16.474155646
    2.202838063   14.521433445    4.792826063   16.557088194
    2.210016694   14.564531248    4.805458407   16.641505951
    2.217195326   14.608080642    4.818240799   16.727452069
    2.224373957   14.652088445    4.831175866   16.814971500
    2.231552588   14.696561624    4.844266298   16.904111090
    2.238731219   14.741507301    4.857514855   16.994919686
    2.245909850   14.786932760    4.870924364   17.087448243
    2.253088481   14.832845448    4.884497723   17.181749935
    2.260267112   14.879252980    4.898237906   17.277880276
    2.267445743   14.926163147    4.912147961   17.375897240
    2.274624374   14.973583919    4.926231015   17.475861505
    2.281803005   15.021523451    4.940490278   17.577836605
    2.288981636   15.069990074    4.954929043   17.681888882
    2.296160267   15.118992325    4.969550689   17.788087791
    2.303338898   15.168538987    4.984358682   17.896506221
    2.310517529   15.218639028    4.999356571   18.007220543
    2.317696160   15.269301592    5.014547974   18.120310805
    2.324874791   15.320536055    5.029936606   18.235861049
    2.332053422   15.372352053    5.045526371   18.353959554
    2.339232053   15.424759468    5.061321298   18.474699110
    2.346410684   15.477768424    5.077325530   18.598177304
    2.353589316   15.531389277    5.093543227   18.724496815
    2.360767947   15.585632636    5.109978644   18.853765709
    2.367946578   15.640509389    5.126636186   18.986097717
    2.375125209   15.696030703    5.143520404   19.121613017
    2.382303840   15.752208051    5.160635992   19.260439254
    2.389482471   15.809053203    5.177987775   19.402710676
    2.396661102   15.866578221    5.195580707   19.548568744
    2.403839733   15.924795473    5.213419893   19.698163312
    2.411018364   15.983717671    5.231510589   19.851653207
    2.418196995   16.043357946    5.249858212   20.009206873
    2.425375626   16.103729742    5.268468336   20.171002999
    2.432554257   16.164846821    5.287346708   20.337231301
    2.439732888   16.226723331    5.306499243   20.508093433
    2.446911519   16.289373846    5.325932050   20.683803971
    2.454090150   16.352813392    5.345651434   20.864591331
    2.461268781   16.417057389    5.365663881   21.050698659
    2.468447412   16.482121679    5.385976085   21.242386398
    2.475626043   16.548022571    5.406594947   21.439934218
    2.482804674   16.614776836    5.427527553   21.643639629
    2.489983306   16.682401735    5.448781168   21.853820796
    2.497161937   16.750915125    5.470363471   22.070819467
    2.504340568   16.820335434    5.492282533   22.295002880
    2.511519199   16.890681545    5.514546430   22.526765889
    2.518697830   16.961972904    5.537163460   22.766533457
    2.525876461   17.034229558    5.560142249   23.014763376
    2.533055092   17.107472240    5.583491758   23.271951318
    2.540233723   17.181722473    5.607221316   23.538636082
