# energy grid [eV]     epsr_x  epsr_y  epsr_z
#
    0.200000000   15.096076103   18.742740427   18.413577376
    0.207178631   15.099482437   18.747369950   18.418045222
    0.214357262   15.103010729   18.752165412   18.422673155
    0.221535893   15.106661173   18.757127098   18.427461443
    0.228714524   15.110433970   18.762255302   18.432410363
    0.235893155   15.114329328   18.767550326   18.437520202
    0.243071786   15.118347462   18.773012486   18.442791255
    0.250250417   15.122488592   18.778642104   18.448223828
    0.257429048   15.126752949   18.784439516   18.453818237
    0.264607679   15.131140768   18.790405065   18.459574807
    0.271786311   15.135652291   18.796539109   18.465493874
    0.278964942   15.140287769   18.802842011   18.471575781
    0.286143573   15.145047458   18.809314148   18.477820883
    0.293322204   15.149931624   18.815955908   18.484229546
    0.300500835   15.154940537   18.822767686   18.490802144
    0.307679466   15.160074476   18.829749892   18.497539062
    0.314858097   15.165333728   18.836902944   18.504440695
    0.322036728   15.170718586   18.844227272   18.511507448
    0.329215359   15.176229351   18.851723316   18.518739736
    0.336393990   15.181866331   18.859391528   18.526137985
    0.343572621   15.187629843   18.867232371   18.533702631
    0.350751252   15.193520209   18.875246318   18.541434120
    0.357929883   15.199537760   18.883433854   18.549332911
    0.365108514   15.205682836   18.891795476   18.557399469
    0.372287145   15.211955782   18.900331690   18.565634274
    0.379465776   15.218356953   18.909043016   18.574037815
    0.386644407   15.224886711   18.917929984   18.582610592
    0.393823038   15.231545424   18.926993137   18.591353115
    0.401001669   15.238333471   18.936233028   18.600265905
    0.408180301   15.245251238   18.945650222   18.609349497
    0.415358932   15.252299117   18.955245298   18.618604434
    0.422537563   15.259477511   18.965018844   18.628031271
    0.429716194   15.266786829   18.974971463   18.637630574
    0.436894825   15.274227490   18.985103767   18.647402922
    0.444073456   15.281799920   18.995416383   18.657348904
    0.451252087   15.289504553   19.005909948   18.667469122
    0.458430718   15.297341833   19.016585115   18.677764187
    0.465609349   15.305312211   19.027442546   18.688234725
    0.472787980   15.313416148   19.038482918   18.698881372
    0.479966611   15.321654111   19.049706919   18.709704776
    0.487145242   15.330026579   19.061115250   18.720705599
    0.494323873   15.338534037   19.072708629   18.731884512
    0.501502504   15.347176981   19.084487781   18.743242202
    0.508681135   15.355955915   19.096453449   18.754779366
    0.515859766   15.364871351   19.108606387   18.766496714
    0.523038397   15.373923812   19.120947364   18.778394969
    0.530217028   15.383113828   19.133477162   18.790474867
    0.537395659   15.392441942   19.146196577   18.802737156
    0.544574290   15.401908701   19.159106419   18.815182598
    0.551752922   15.411514666   19.172207512   18.827811968
    0.558931553   15.421260405   19.185500693   18.840626054
    0.566110184   15.431146497   19.198986816   18.853625658
    0.573288815   15.441173530   19.212666748   18.866811595
    0.580467446   15.451342102   19.226541371   18.880184695
    0.587646077   15.461652821   19.240611581   18.893745799
    0.594824708   15.472106304   19.254878290   18.907495766
    0.602003339   15.482703179   19.269342426   18.921435467
    0.609181970   15.493444085   19.284004930   18.935565786
    0.616360601   15.504329671   19.298866760   18.949887626
    0.623539232   15.515360594   19.313928890   18.964401899
    0.630717863   15.526537526   19.329192309   18.979109537
    0.637896494   15.537861145   19.344658023   18.994011483
    0.645075125   15.549332142   19.360327053   19.009108694
    0.652253756   15.560951220   19.376200436   19.024402128
    0.659432387   15.572719091   19.392279226   19.039892723
    0.666611018   15.584636479   19.408564491   19.055581453
    0.673789649   15.596704120   19.425057326   19.071469474
    0.680968280   15.608922760   19.441758841   19.087557890
    0.688146912   15.621293156   19.458670155   19.103847693
    0.695325543   15.633816080   19.475792408   19.120339921
    0.702504174   15.646492311   19.493126757   19.137035650
    0.709682805   15.659322645   19.510674381   19.153935982
    0.716861436   15.672307885   19.528436473   19.171042040
    0.724040067   15.685448850   19.546414247   19.188354960
    0.731218698   15.698746370   19.564608935   19.205875898
    0.738397329   15.712201288   19.583021789   19.223606028
    0.745575960   15.725814457   19.601654080   19.241546541
    0.752754591   15.739586747   19.620507096   19.259698645
    0.759933222   15.753519039   19.639582149   19.278063567
    0.767111853   15.767612226   19.658880567   19.296642553
    0.774290484   15.781867215   19.678403696   19.315436868
    0.781469115   15.796284928   19.698152897   19.334447794
    0.788647746   15.810866299   19.718129556   19.353676634
    0.795826377   15.825612275   19.738335111   19.373124710
    0.803005008   15.840523820   19.758771009   19.392793365
    0.810183639   15.855601910   19.779438693   19.412683960
    0.817362270   15.870847534   19.800339633   19.432797878
    0.824540902   15.886261699   19.821475328   19.453136521
    0.831719533   15.901845424   19.842847299   19.473701314
    0.838898164   15.917599744   19.864457092   19.494493701
    0.846076795   15.933525709   19.886306276   19.515515149
    0.853255426   15.949624384   19.908396441   19.536767145
    0.860434057   15.965896849   19.930729203   19.558251188
    0.867612688   15.982344200   19.953306201   19.579968780
    0.874791319   15.998967549   19.976129096   19.601921447
    0.881969950   16.015768027   19.999199584   19.624110848
    0.889148581   16.032746779   20.022519383   19.646538640
    0.896327212   16.049904967   20.046090231   19.669206411
    0.903505843   16.067243768   20.069913892   19.692115783
    0.910684474   16.084764378   20.093992160   19.715268424
    0.917863105   16.102468010   20.118326854   19.738666030
    0.925041736   16.120355893   20.142919821   19.762310325
    0.932220367   16.138429274   20.167772932   19.786203056
    0.939398998   16.156689412   20.192888083   19.810345997
    0.946577629   16.175137582   20.218267195   19.834740948
    0.953756260   16.193775106   20.243912246   19.859389739
    0.960934891   16.212603323   20.269825247   19.884294226
    0.968113523   16.231623568   20.296008209   19.909456291
    0.975292154   16.250837193   20.322463171   19.934877838
    0.982470785   16.270245575   20.349192213   19.960560802
    0.989649416   16.289850111   20.376197444   19.986507132
    0.996828047   16.309652219   20.403481008   20.012718818
    1.004006678   16.329653344   20.431045078   20.039197923
    1.011185309   16.349854943   20.458891853   20.065946517
    1.018363940   16.370258492   20.487023572   20.092966667
    1.025542571   16.390865524   20.515442534   20.120260479
    1.032721202   16.411677577   20.544151059   20.147830099
    1.039899833   16.432696184   20.573151479   20.175677708
    1.047078464   16.453922912   20.602446169   20.203805522
    1.054257095   16.475359353   20.632037544   20.232215782
    1.061435726   16.497007130   20.661928056   20.260910761
    1.068614357   16.518867885   20.692120190   20.289892764
    1.075792988   16.540943282   20.722616485   20.319164153
    1.082971619   16.563235013   20.753419518   20.348727326
    1.090150250   16.585744793   20.784531891   20.378584693
    1.097328881   16.608474363   20.815956246   20.408738704
    1.104507513   16.631425490   20.847695262   20.439191849
    1.111686144   16.654599967   20.879751651   20.469946654
    1.118864775   16.677999613   20.912128176   20.501005687
    1.126043406   16.701626276   20.944827698   20.532371558
    1.133222037   16.725481827   20.977853085   20.564046912
    1.140400668   16.749568170   21.011207217   20.596034431
    1.147579299   16.773887234   21.044893042   20.628336857
    1.154757930   16.798440979   21.078913553   20.660956964
    1.161936561   16.823231387   21.113271784   20.693897556
    1.169115192   16.848260469   21.147970820   20.727161483
    1.176293823   16.873530281   21.183013796   20.760751645
    1.183472454   16.899042920   21.218403899   20.794670992
    1.190651085   16.924800491   21.254144363   20.828922512
    1.197829716   16.950805133   21.290238476   20.863509240
    1.205008347   16.977059017   21.326689574   20.898434258
    1.212186978   17.003564352   21.363501051   20.933700697
    1.219365609   17.030323379   21.400676351   20.969311736
    1.226544240   17.057338376   21.438218976   21.005270606
    1.233722871   17.084611652   21.476132482   21.041580584
    1.240901503   17.112145556   21.514420483   21.078245000
    1.248080134   17.139942469   21.553086653   21.115267247
    1.255258765   17.168004812   21.592134722   21.152650765
    1.262437396   17.196335042   21.631568483   21.190399046
    1.269616027   17.224935653   21.671391791   21.228515637
    1.276794658   17.253809181   21.711608562   21.267004141
    1.283973289   17.282958198   21.752222778   21.305868221
    1.291151920   17.312385319   21.793238485   21.345111601
    1.298330551   17.342093199   21.834659796   21.384738061
    1.305509182   17.372084535   21.876490893   21.424751446
    1.312687813   17.402362065   21.918736026   21.465155659
    1.319866444   17.432928574   21.961399517   21.505954671
    1.327045075   17.463786889   22.004485760   21.547152514
    1.334223706   17.494939882   22.047999223   21.588753289
    1.341402337   17.526390472   22.091944448   21.630761163
    1.348580968   17.558141623   22.136326054   21.673180371
    1.355759599   17.590196349   22.181148738   21.716015217
    1.362938230   17.622557712   22.226417278   21.759270078
    1.370116861   17.655228823   22.272136534   21.802949408
    1.377295492   17.688212844   22.318311447   21.847057734
    1.384474124   17.721512989   22.364947046   21.891599652
    1.391652755   17.755132524   22.412048444   21.936579843
    1.398831386   17.789074771   22.459620845   21.982003064
    1.406010017   17.823343103   22.507669540   22.027874151
    1.413188648   17.857940951   22.556199917   22.074198022
    1.420367279   17.892871805   22.605217455   22.120979684
    1.427545910   17.928139210   22.654727733   22.168224230
    1.434724541   17.963746772   22.704736424   22.215936838
    1.441903172   17.999698157   22.755249306   22.264122773
    1.449081803   18.035997095   22.806272258   22.312787394
    1.456260434   18.072647376   22.857811264   22.361936155
    1.463439065   18.109652857   22.909872416   22.411574603
    1.470617696   18.147017460   22.962461918   22.461708384
    1.477796327   18.184745175   23.015586084   22.512343242
    1.484974958   18.222840060   23.069251344   22.563485026
    1.492153589   18.261306244   23.123464246   22.615139686
    1.499332220   18.300147927   23.178231457   22.667313280
    1.506510851   18.339369383   23.233559769   22.720011974
    1.513689482   18.378974962   23.289456099   22.773242046
    1.520868114   18.418969086   23.345927494   22.827009888
    1.528046745   18.459356256   23.402981131   22.881322007
    1.535225376   18.500141035   23.460624323   22.936185028
    1.542404007   18.541328051   23.518864523   22.991605700
    1.549582638   18.582922075   23.577709322   23.047590896
    1.556761269   18.624928034   23.637166460   23.104147618
    1.563939900   18.667350841   23.697243824   23.161282999
    1.571118531   18.710195471   23.757949452   23.219004299
    1.578297162   18.753467013   23.819291538   23.277318921
    1.585475793   18.797170662   23.881278436   23.336234404
    1.592654424   18.841311708   23.943918665   23.395758432
    1.599833055   18.885895541   24.007220909   23.455898837
    1.607011686   18.930927651   24.071194027   23.516663598
    1.614190317   18.976413631   24.135847053   23.578060852
    1.621368948   19.022359179   24.201189202   23.640098891
    1.628547579   19.068770100   24.267229876   23.702786171
    1.635726210   19.115652309   24.333978666   23.766131314
    1.642904841   19.163011835   24.401445361   23.830143110
    1.650083472   19.210854821   24.469639945   23.894830524
    1.657262104   19.259187526   24.538572593   23.960202686
    1.664440735   19.308016325   24.608253621   24.026268870
    1.671619366   19.357347692   24.678693371   24.093038439
    1.678797997   19.407188225   24.749902315   24.160520872
    1.685976628   19.457544766   24.821892132   24.228726327
    1.693155259   19.508424297   24.894674903   24.297665429
    1.700333890   19.559833814   24.968261836   24.367348240
    1.707512521   19.611780447   25.042664284   24.437784799
    1.714691152   19.664271461   25.117894126   24.508986021
    1.721869783   19.717314222   25.193963403   24.580962980
    1.729048414   19.770916411   25.270884833   24.653726806
    1.736227045   19.825086043   25.348672049   24.727289356
    1.743405676   19.879831025   25.427337993   24.801661945
    1.750584307   19.935159359   25.506895738   24.876856144
    1.757762938   19.991079302   25.587359089   24.952884698
    1.764941569   20.047599294   25.668741969   25.029760211
    1.772120200   20.104727921   25.751058012   25.107494802
    1.779298831   20.162473949   25.834320800   25.186100947
    1.786477462   20.220846404   25.918546272   25.265592292
    1.793656093   20.279854553   26.003752233   25.345983520
    1.800834725   20.339507759   26.089953945   25.427288307
    1.808013356   20.399815572   26.177166511   25.509520381
    1.815191987   20.460787773   26.265406018   25.592694085
    1.822370618   20.522434367   26.354689164   25.676824211
    1.829549249   20.584765580   26.445033080   25.761925924
    1.836727880   20.647791886   26.536455545   25.848014781
    1.843906511   20.711523992   26.628974840   25.935106692
    1.851085142   20.775972827   26.722609327   26.023217873
    1.858263773   20.841149542   26.817377601   26.112364838
    1.865442404   20.907065514   26.913298496   26.202564302
    1.872621035   20.973732332   27.010391772   26.293833378
    1.879799666   21.041161594   27.108678385   26.386190157
    1.886978297   21.109364978   27.208179493   26.479653253
    1.894156928   21.178356044   27.308917492   26.574242133
    1.901335559   21.248148874   27.410914557   26.669976076
    1.908514190   21.318756064   27.514192490   26.766874243
    1.915692821   21.390190504   27.618774002   26.864956496
    1.922871452   21.462465585   27.724682600   26.964243325
    1.930050083   21.535594835   27.831942258   27.064755668
    1.937228715   21.609592906   27.940578069   27.166515271
    1.944407346   21.684475971   28.050616534   27.269544806
    1.951585977   21.760259022   28.162083917   27.373866885
    1.958764608   21.836956682   28.275006775   27.479504723
    1.965943239   21.914584368   28.389412641   27.586482350
    1.973121870   21.993159548   28.505330395   27.694824583
    1.980300501   22.072699706   28.622789551   27.804556771
    1.987479132   22.153221477   28.741820213   27.915705168
    1.994657763   22.234742011   28.862453283   28.028296540
    2.001836394   22.317278815   28.984720294   28.142357815
    2.009015025   22.400850099   29.108653650   28.257916854
    2.016193656   22.485476305   29.234287361   28.375003075
    2.023372287   22.571177714   29.361656827   28.493646446
    2.030550918   22.657973825   29.490797764   28.613877242
    2.037729549   22.745885032   29.621746976   28.735726952
    2.044908180   22.834932535   29.754542424   28.859228030
    2.052086811   22.925138115   29.889222888   28.984413616
    2.059265442   23.016524172   30.025828364   29.111317754
    2.066444073   23.109113699   30.164400261   29.239975614
    2.073622705   23.202930250   30.304981394   29.370423507
    2.080801336   23.297998027   30.447615608   29.502698593
    2.087979967   23.394342210   30.592348300   29.636839836
    2.095158598   23.491989392   30.739227136   29.772887570
    2.102337229   23.590966214   30.888300866   29.910882198
    2.109515860   23.691299407   31.039619246   30.050865272
    2.116694491   23.793017270   31.193233716   30.192880611
    2.123873122   23.896149089   31.349197414   30.336973593
    2.131051753   24.000724073   31.507565219   30.483189923
    2.138230384   24.106773123   31.668394162   30.631577042
    2.145409015   24.214328636   31.831743366   30.782184384
    2.152587646   24.323423996   31.997674376   30.935063469
    2.159766277   24.434092912   32.166250629   31.090266998
    2.166944908   24.546370380   32.337537264   31.247849527
    2.174123539   24.660293039   32.511601937   31.407868030
    2.181302170   24.775897652   32.688514490   31.570380280
    2.188480801   24.893221987   32.868347451   31.735446124
    2.195659432   25.012305175   33.051176072   31.903127898
    2.202838063   25.133189283   33.237079001   32.073490472
    2.210016694   25.255918088   33.426137838   32.246600653
    2.217195326   25.380534983   33.618436482   32.422527217
    2.224373957   25.507084756   33.814062154   32.601341526
    2.231552588   25.635614390   34.013105696   32.783118286
    2.238731219   25.766173369   34.215661773   32.967936064
    2.245909850   25.898812903   34.421828818   33.155876247
    2.253088481   26.033585118   34.631708972   33.347021614
    2.260267112   26.170544141   34.845408579   33.541458291
    2.267445743   26.309746300   35.063038448   33.739276213
    2.274624374   26.451250016   35.284714009   33.940568954
    2.281803005   26.595115909   35.510555549   34.145433753
    2.288981636   26.741407397   35.740688764   34.353972072
    2.296160267   26.890190492   35.975245048   34.566290279
    2.303338898   27.041533323   36.214361427   34.782499358
    2.310517529   27.195506678   36.458180772   35.002714021
    2.317696160   27.352184227   36.706852559   35.227053993
    2.324874791   27.511642479   36.960533169   35.455644662
    2.332053422   27.673961558   37.219386413   35.688616916
    2.339232053   27.839226009   37.483584470   35.926107568
    2.346410684   28.007522796   37.753306989   36.168259501
    2.353589316   28.178941850   38.028741889   36.415221967
    2.360767947   28.353577670   38.310087178   36.667151821
    2.367946578   28.531530123   38.597551552   36.924214683
    2.375125209   28.712904275   38.891354667   37.186584984
    2.382303840   28.897808393   39.191726919   37.454443920
    2.389482471   29.086355307   39.498910339   37.727981374
    2.396661102   29.278663656   39.813159965   38.007397560
    2.403839733   29.474858024   40.134745064   38.292903512
    2.411018364   29.675069157   40.463950031   38.584721662
    2.418196995   29.879434322   40.801075391   38.883086617
    2.425375626   30.088097725   41.146438940   39.188246040
    2.432554257   30.301210984   41.500377040   39.500461644
    2.439732888   30.518933637   41.863246543   39.820010295
    2.446911519   30.741433690   42.235426310   40.147185177
    2.454090150   30.968888158   42.617318070   40.482296972
    2.461268781   31.201483632   43.009348700   40.825675224
    2.468447412   31.439417325   43.411973178   41.177670617
    2.475626043   31.682898145   43.825677058   41.538657065
    2.482804674   31.932146842   44.250977587   41.909031876
    2.489983306   32.187397264   44.688427782   42.289219351
    2.497161937   32.448897140   45.138619685   42.679673275
    2.504340568   32.716909245   45.602187135   43.080879734
    2.511519199   32.991713519   46.079811898   43.493360009
    2.518697830   33.273608644   46.572228001   43.917672698
    2.525876461   33.562910973   47.080222648   44.354418320
    2.533055092   33.859956963   47.604643557   44.804244153
    2.540233723   34.165107509   48.146409820   45.267850607
