# energy grid [eV]     ieps_x  ieps_y  ieps_z
#
    0.200000000    3.611570647    5.324561333    7.039578366
    0.207178631    3.611037732    5.323562304    7.038296705
    0.214357262    3.610486267    5.322528555    7.036970446
    0.221535893    3.609916277    5.321460136    7.035599652
    0.228714524    3.609327789    5.320357102    7.034184385
    0.235893155    3.608720829    5.319219508    7.032724711
    0.243071786    3.608095424    5.318047412    7.031220697
    0.250250417    3.607451602    5.316840872    7.029672413
    0.257429048    3.606789392    5.315599948    7.028079930
    0.264607679    3.606108824    5.314324704    7.026443321
    0.271786311    3.605409929    5.313015202    7.024762662
    0.278964942    3.604692738    5.311671508    7.023038029
    0.286143573    3.603957283    5.310293690    7.021269502
    0.293322204    3.603203597    5.308881816    7.019457163
    0.300500835    3.602431714    5.307435957    7.017601094
    0.307679466    3.601641668    5.305956184    7.015701379
    0.314858097    3.600833495    5.304442571    7.013758107
    0.322036728    3.600007230    5.302895193    7.011771366
    0.329215359    3.599162911    5.301314127    7.009741246
    0.336393990    3.598300575    5.299699452    7.007667839
    0.343572621    3.597420259    5.298051247    7.005551242
    0.350751252    3.596522005    5.296369595    7.003391548
    0.357929883    3.595605850    5.294654577    7.001188858
    0.365108514    3.594671837    5.292906278    6.998943270
    0.372287145    3.593720005    5.291124785    6.996654886
    0.379465776    3.592750398    5.289310186    6.994323810
    0.386644407    3.591763057    5.287462568    6.991950148
    0.393823038    3.590758027    5.285582024    6.989534006
    0.401001669    3.589735352    5.283668644    6.987075493
    0.408180301    3.588695076    5.281722523    6.984574720
    0.415358932    3.587637246    5.279743755    6.982031799
    0.422537563    3.586561907    5.277732438    6.979446845
    0.429716194    3.585469107    5.275688668    6.976819974
    0.436894825    3.584358894    5.273612546    6.974151302
    0.444073456    3.583231315    5.271504171    6.971440949
    0.451252087    3.582086421    5.269363647    6.968689037
    0.458430718    3.580924260    5.267191076    6.965895687
    0.465609349    3.579744884    5.264986563    6.963061025
    0.472787980    3.578548343    5.262750215    6.960185175
    0.479966611    3.577334689    5.260482139    6.957268266
    0.487145242    3.576103975    5.258182445    6.954310427
    0.494323873    3.574856254    5.255851242    6.951311788
    0.501502504    3.573591580    5.253488641    6.948272481
    0.508681135    3.572310006    5.251094757    6.945192641
    0.515859766    3.571011589    5.248669702    6.942072403
    0.523038397    3.569696383    5.246213593    6.938911904
    0.530217028    3.568364445    5.243726545    6.935711283
    0.537395659    3.567015832    5.241208677    6.932470679
    0.544574290    3.565650601    5.238660108    6.929190234
    0.551752922    3.564268811    5.236080958    6.925870091
    0.558931553    3.562870519    5.233471349    6.922510394
    0.566110184    3.561455786    5.230831403    6.919111290
    0.573288815    3.560024672    5.228161245    6.915672925
    0.580467446    3.558577236    5.225460998    6.912195449
    0.587646077    3.557113539    5.222730790    6.908679010
    0.594824708    3.555633644    5.219970747    6.905123762
    0.602003339    3.554137612    5.217180999    6.901529857
    0.609181970    3.552625506    5.214361674    6.897897448
    0.616360601    3.551097389    5.211512902    6.894226692
    0.623539232    3.549553326    5.208634817    6.890517745
    0.630717863    3.547993379    5.205727550    6.886770766
    0.637896494    3.546417615    5.202791235    6.882985913
    0.645075125    3.544826098    5.199826006    6.879163348
    0.652253756    3.543218894    5.196832000    6.875303233
    0.659432387    3.541596070    5.193809353    6.871405731
    0.666611018    3.539957692    5.190758204    6.867471006
    0.673789649    3.538303827    5.187678689    6.863499223
    0.680968280    3.536634545    5.184570950    6.859490550
    0.688146912    3.534949912    5.181435126    6.855445154
    0.695325543    3.533249997    5.178271360    6.851363205
    0.702504174    3.531534870    5.175079793    6.847244873
    0.709682805    3.529804601    5.171860569    6.843090329
    0.716861436    3.528059259    5.168613831    6.838899745
    0.724040067    3.526298915    5.165339725    6.834673295
    0.731218698    3.524523640    5.162038396    6.830411154
    0.738397329    3.522733506    5.158709992    6.826113497
    0.745575960    3.520928584    5.155354659    6.821780500
    0.752754591    3.519108946    5.151972545    6.817412342
    0.759933222    3.517274666    5.148563801    6.813009201
    0.767111853    3.515425815    5.145128574    6.808571257
    0.774290484    3.513562469    5.141667016    6.804098690
    0.781469115    3.511684700    5.138179278    6.799591681
    0.788647746    3.509792582    5.134665512    6.795050413
    0.795826377    3.507886191    5.131125871    6.790475070
    0.803005008    3.505965601    5.127560507    6.785865835
    0.810183639    3.504030887    5.123969574    6.781222894
    0.817362270    3.502082126    5.120353228    6.776546432
    0.824540902    3.500119392    5.116711624    6.771836637
    0.831719533    3.498142763    5.113044916    6.767093695
    0.838898164    3.496152315    5.109353262    6.762317795
    0.846076795    3.494148125    5.105636819    6.757509127
    0.853255426    3.492130271    5.101895744    6.752667879
    0.860434057    3.490098829    5.098130196    6.747794244
    0.867612688    3.488053878    5.094340332    6.742888411
    0.874791319    3.485995496    5.090526313    6.737950574
    0.881969950    3.483923761    5.086688298    6.732980924
    0.889148581    3.481838753    5.082826447    6.727979656
    0.896327212    3.479740549    5.078940921    6.722946963
    0.903505843    3.477629230    5.075031881    6.717883041
    0.910684474    3.475504875    5.071099488    6.712788083
    0.917863105    3.473367564    5.067143905    6.707662287
    0.925041736    3.471217376    5.063165294    6.702505850
    0.932220367    3.469054393    5.059163818    6.697318967
    0.939398998    3.466878694    5.055139640    6.692101836
    0.946577629    3.464690360    5.051092924    6.686854657
    0.953756260    3.462489473    5.047023833    6.681577627
    0.960934891    3.460276113    5.042932532    6.676270946
    0.968113523    3.458050361    5.038819186    6.670934813
    0.975292154    3.455812300    5.034683959    6.665569428
    0.982470785    3.453562010    5.030527016    6.660174993
    0.989649416    3.451299575    5.026348524    6.654751708
    0.996828047    3.449025075    5.022148648    6.649299775
    1.004006678    3.446738593    5.017927554    6.643819395
    1.011185309    3.444440212    5.013685408    6.638310770
    1.018363940    3.442130014    5.009422377    6.632774104
    1.025542571    3.439808082    5.005138627    6.627209599
    1.032721202    3.437474499    5.000834325    6.621617459
    1.039899833    3.435129347    4.996509639    6.615997886
    1.047078464    3.432772710    4.992164735    6.610351085
    1.054257095    3.430404671    4.987799781    6.604677261
    1.061435726    3.428025313    4.983414945    6.598976616
    1.068614357    3.425634720    4.979010394    6.593249357
    1.075792988    3.423232976    4.974586295    6.587495688
    1.082971619    3.420820163    4.970142818    6.581715814
    1.090150250    3.418396367    4.965680129    6.575909940
    1.097328881    3.415961670    4.961198397    6.570078273
    1.104507513    3.413516156    4.956697790    6.564221017
    1.111686144    3.411059910    4.952178475    6.558338379
    1.118864775    3.408593015    4.947640622    6.552430564
    1.126043406    3.406115557    4.943084398    6.546497778
    1.133222037    3.403627617    4.938509972    6.540540229
    1.140400668    3.401129282    4.933917511    6.534558121
    1.147579299    3.398620635    4.929307183    6.528551663
    1.154757930    3.396101760    4.924679158    6.522521059
    1.161936561    3.393572742    4.920033603    6.516466516
    1.169115192    3.391033666    4.915370685    6.510388241
    1.176293823    3.388484614    4.910690573    6.504286441
    1.183472454    3.385925672    4.905993435    6.498161322
    1.190651085    3.383356925    4.901279439    6.492013091
    1.197829716    3.380778455    4.896548752    6.485841953
    1.205008347    3.378190349    4.891801541    6.479648116
    1.212186978    3.375592689    4.887037974    6.473431787
    1.219365609    3.372985561    4.882258219    6.467193170
    1.226544240    3.370369048    4.877462442    6.460932474
    1.233722871    3.367743235    4.872650810    6.454649903
    1.240901503    3.365108207    4.867823491    6.448345664
    1.248080134    3.362464046    4.862980650    6.442019962
    1.255258765    3.359810838    4.858122454    6.435673005
    1.262437396    3.357148666    4.853249070    6.429304997
    1.269616027    3.354477615    4.848360662    6.422916143
    1.276794658    3.351797768    4.843457398    6.416506650
    1.283973289    3.349109210    4.838539442    6.410076722
    1.291151920    3.346412023    4.833606959    6.403626564
    1.298330551    3.343706292    4.828660115    6.397156382
    1.305509182    3.340992101    4.823699074    6.390666379
    1.312687813    3.338269533    4.818724000    6.384156759
    1.319866444    3.335538671    4.813735058    6.377627727
    1.327045075    3.332799599    4.808732412    6.371079487
    1.334223706    3.330052399    4.803716224    6.364512242
    1.341402337    3.327297157    4.798686659    6.357926194
    1.348580968    3.324533953    4.793643878    6.351321548
    1.355759599    3.321762872    4.788588045    6.344698506
    1.362938230    3.318983995    4.783519321    6.338057269
    1.370116861    3.316197406    4.778437869    6.331398040
    1.377295492    3.313403188    4.773343849    6.324721020
    1.384474124    3.310601422    4.768237422    6.318026411
    1.391652755    3.307792191    4.763118750    6.311314413
    1.398831386    3.304975576    4.757987992    6.304585227
    1.406010017    3.302151661    4.752845309    6.297839053
    1.413188648    3.299320527    4.747690859    6.291076090
    1.420367279    3.296482255    4.742524801    6.284296538
    1.427545910    3.293636926    4.737347295    6.277500596
    1.434724541    3.290784624    4.732158498    6.270688462
    1.441903172    3.287925427    4.726958568    6.263860334
    1.449081803    3.285059418    4.721747662    6.257016409
    1.456260434    3.282186677    4.716525937    6.250156885
    1.463439065    3.279307285    4.711293550    6.243281958
    1.470617696    3.276421322    4.706050655    6.236391824
    1.477796327    3.273528868    4.700797408    6.229486680
    1.484974958    3.270630004    4.695533964    6.222566719
    1.492153589    3.267724810    4.690260477    6.215632136
    1.499332220    3.264813364    4.684977102    6.208683126
    1.506510851    3.261895747    4.679683991    6.201719883
    1.513689482    3.258972037    4.674381297    6.194742598
    1.520868114    3.256042315    4.669069173    6.187751465
    1.528046745    3.253106658    4.663747769    6.180746676
    1.535225376    3.250165145    4.658417238    6.173728421
    1.542404007    3.247217854    4.653077730    6.166696892
    1.549582638    3.244264864    4.647729395    6.159652279
    1.556761269    3.241306253    4.642372382    6.152594771
    1.563939900    3.238342098    4.637006840    6.145524558
    1.571118531    3.235372477    4.631632918    6.138441828
    1.578297162    3.232397466    4.626250763    6.131346768
    1.585475793    3.229417143    4.620860524    6.124239566
    1.592654424    3.226431585    4.615462345    6.117120408
    1.599833055    3.223440868    4.610056374    6.109989480
    1.607011686    3.220445068    4.604642755    6.102846968
    1.614190317    3.217444261    4.599221635    6.095693057
    1.621368948    3.214438523    4.593793155    6.088527929
    1.628547579    3.211427929    4.588357461    6.081351769
    1.635726210    3.208412555    4.582914696    6.074164759
    1.642904841    3.205392476    4.577465001    6.066967081
    1.650083472    3.202367765    4.572008518    6.059758916
    1.657262104    3.199338498    4.566545389    6.052540445
    1.664440735    3.196304749    4.561075754    6.045311848
    1.671619366    3.193266591    4.555599752    6.038073304
    1.678797997    3.190224097    4.550117524    6.030824992
    1.685976628    3.187177343    4.544629206    6.023567089
    1.693155259    3.184126399    4.539134938    6.016299772
    1.700333890    3.181071339    4.533634857    6.009023218
    1.707512521    3.178012236    4.528129098    6.001737602
    1.714691152    3.174949161    4.522617798    5.994443100
    1.721869783    3.171882186    4.517101092    5.987139885
    1.729048414    3.168811384    4.511579115    5.979828131
    1.736227045    3.165736824    4.506052000    5.972508011
    1.743405676    3.162658579    4.500519881    5.965179695
    1.750584307    3.159576718    4.494982889    5.957843357
    1.757762938    3.156491313    4.489441158    5.950499165
    1.764941569    3.153402432    4.483894818    5.943147289
    1.772120200    3.150310147    4.478343999    5.935787899
    1.779298831    3.147214525    4.472788831    5.928421163
    1.786477462    3.144115638    4.467229443    5.921047247
    1.793656093    3.141013552    4.461665964    5.913666318
    1.800834725    3.137908338    4.456098522    5.906278543
    1.808013356    3.134800062    4.450527242    5.898884085
    1.815191987    3.131688793    4.444952252    5.891483109
    1.822370618    3.128574599    4.439373676    5.884075778
    1.829549249    3.125457547    4.433791640    5.876662255
    1.836727880    3.122337703    4.428206268    5.869242701
    1.843906511    3.119215134    4.422617684    5.861817278
    1.851085142    3.116089907    4.417026009    5.854386146
    1.858263773    3.112962087    4.411431366    5.846949463
    1.865442404    3.109831740    4.405833876    5.839507389
    1.872621035    3.106698932    4.400233659    5.832060080
    1.879799666    3.103563727    4.394630836    5.824607694
    1.886978297    3.100426191    4.389025525    5.817150387
    1.894156928    3.097286386    4.383417845    5.809688314
    1.901335559    3.094144378    4.377807914    5.802221629
    1.908514190    3.091000231    4.372195847    5.794750485
    1.915692821    3.087854006    4.366581762    5.787275036
    1.922871452    3.084705768    4.360965774    5.779795432
    1.930050083    3.081555579    4.355347998    5.772311826
    1.937228715    3.078403502    4.349728547    5.764824367
    1.944407346    3.075249597    4.344107535    5.757333205
    1.951585977    3.072093928    4.338485074    5.749838487
    1.958764608    3.068936555    4.332861276    5.742340362
    1.965943239    3.065777540    4.327236253    5.734838977
    1.973121870    3.062616942    4.321610114    5.727334476
    1.980300501    3.059454823    4.315982969    5.719827006
    1.987479132    3.056291242    4.310354926    5.712316709
    1.994657763    3.053126259    4.304726095    5.704803731
    2.001836394    3.049959934    4.299096582    5.697288213
    2.009015025    3.046792324    4.293466494    5.689770296
    2.016193656    3.043623489    4.287835937    5.682250122
    2.023372287    3.040453487    4.282205016    5.674727831
    2.030550918    3.037282376    4.276573836    5.667203560
    2.037729549    3.034110213    4.270942499    5.659677450
    2.044908180    3.030937056    4.265311110    5.652149636
    2.052086811    3.027762962    4.259679770    5.644620256
    2.059265442    3.024587987    4.254048582    5.637089444
    2.066444073    3.021412187    4.248417645    5.629557336
    2.073622705    3.018235618    4.242787059    5.622024066
    2.080801336    3.015058336    4.237156925    5.614489766
    2.087979967    3.011880396    4.231527340    5.606954569
    2.095158598    3.008701852    4.225898403    5.599418606
    2.102337229    3.005522760    4.220270210    5.591882007
    2.109515860    3.002343173    4.214642859    5.584344902
    2.116694491    2.999163145    4.209016443    5.576807419
    2.123873122    2.995982729    4.203391060    5.569269687
    2.131051753    2.992801979    4.197766802    5.561731832
    2.138230384    2.989620947    4.192143764    5.554193980
    2.145409015    2.986439686    4.186522037    5.546656257
    2.152587646    2.983258247    4.180901715    5.539118787
    2.159766277    2.980076684    4.175282888    5.531581693
    2.166944908    2.976895045    4.169665646    5.524045099
    2.174123539    2.973713384    4.164050081    5.516509125
    2.181302170    2.970531751    4.158436281    5.508973893
    2.188480801    2.967350195    4.152824334    5.501439522
    2.195659432    2.964168767    4.147214328    5.493906133
    2.202838063    2.960987517    4.141606351    5.486373843
    2.210016694    2.957806493    4.136000488    5.478842770
    2.217195326    2.954625745    4.130396825    5.471313030
    2.224373957    2.951445322    4.124795447    5.463784740
    2.231552588    2.948265271    4.119196439    5.456258014
    2.238731219    2.945085641    4.113599883    5.448732966
    2.245909850    2.941906479    4.108005862    5.441209709
    2.253088481    2.938727833    4.102414459    5.433688357
    2.260267112    2.935549749    4.096825755    5.426169019
    2.267445743    2.932372274    4.091239830    5.418651808
    2.274624374    2.929195454    4.085656765    5.411136833
    2.281803005    2.926019335    4.080076639    5.403624202
    2.288981636    2.922843963    4.074499530    5.396114025
    2.296160267    2.919669382    4.068925517    5.388606408
    2.303338898    2.916495639    4.063354676    5.381101458
    2.310517529    2.913322777    4.057787084    5.373599280
    2.317696160    2.910150840    4.052222817    5.366099979
    2.324874791    2.906979872    4.046661950    5.358603660
    2.332053422    2.903809918    4.041104558    5.351110425
    2.339232053    2.900641020    4.035550715    5.343620377
    2.346410684    2.897473220    4.030000492    5.336133617
    2.353589316    2.894306563    4.024453964    5.328650246
    2.360767947    2.891141089    4.018911202    5.321170363
    2.367946578    2.887976840    4.013372277    5.313694068
    2.375125209    2.884813859    4.007837259    5.306221459
    2.382303840    2.881652187    4.002306218    5.298752634
    2.389482471    2.878491863    3.996779224    5.291287688
    2.396661102    2.875332930    3.991256344    5.283826718
    2.403839733    2.872175427    3.985737648    5.276369818
    2.411018364    2.869019393    3.980223201    5.268917084
    2.418196995    2.865864870    3.974713070    5.261468607
    2.425375626    2.862711895    3.969207322    5.254024481
    2.432554257    2.859560509    3.963706022    5.246584797
    2.439732888    2.856410748    3.958209233    5.239149646
    2.446911519    2.853262653    3.952717021    5.231719119
    2.454090150    2.850116260    3.947229448    5.224293304
    2.461268781    2.846971608    3.941746577    5.216872291
    2.468447412    2.843828734    3.936268470    5.209456167
    2.475626043    2.840687675    3.930795189    5.202045019
    2.482804674    2.837548467    3.925326794    5.194638934
    2.489983306    2.834411147    3.919863346    5.187237996
    2.497161937    2.831275751    3.914404904    5.179842290
    2.504340568    2.828142315    3.908951527    5.172451901
    2.511519199    2.825010874    3.903503273    5.165066911
    2.518697830    2.821881463    3.898060200    5.157687403
    2.525876461    2.818754118    3.892622366    5.150313459
    2.533055092    2.815628873    3.887189826    5.142945158
    2.540233723    2.812505761    3.881762636    5.135582582
