# energy grid [eV]     ieps_x  ieps_y  ieps_z
#
    0.200000000    8.260120998    7.175768425    5.986544308
    0.207178631    8.258336896    7.174257042    5.985413786
    0.214357262    8.256491025    7.172693352    5.984244080
    0.221535893    8.254583502    7.171077454    5.983035258
    0.228714524    8.252614447    7.169409453    5.981787391
    0.235893155    8.250583982    7.167689454    5.980500554
    0.243071786    8.248492235    7.165917567    5.979174821
    0.250250417    8.246339335    7.164093903    5.977810271
    0.257429048    8.244125417    7.162218580    5.976406982
    0.264607679    8.241850618    7.160291714    5.974965037
    0.271786311    8.239515078    7.158313426    5.973484519
    0.278964942    8.237118942    7.156283841    5.971965514
    0.286143573    8.234662356    7.154203086    5.970408111
    0.293322204    8.232145471    7.152071289    5.968812397
    0.300500835    8.229568440    7.149888584    5.967178466
    0.307679466    8.226931422    7.147655105    5.965506410
    0.314858097    8.224234575    7.145370989    5.963796325
    0.322036728    8.221478062    7.143036378    5.962048309
    0.329215359    8.218662051    7.140651414    5.960262459
    0.336393990    8.215786711    7.138216242    5.958438879
    0.343572621    8.212852213    7.135731011    5.956577669
    0.350751252    8.209858733    7.133195871    5.954678935
    0.357929883    8.206806449    7.130610975    5.952742783
    0.365108514    8.203695542    7.127976479    5.950769321
    0.372287145    8.200526196    7.125292540    5.948758658
    0.379465776    8.197298598    7.122559318    5.946710907
    0.386644407    8.194012937    7.119776977    5.944626180
    0.393823038    8.190669406    7.116945680    5.942504592
    0.401001669    8.187268199    7.114065595    5.940346259
    0.408180301    8.183809513    7.111136891    5.938151299
    0.415358932    8.180293549    7.108159740    5.935919832
    0.422537563    8.176720510    7.105134315    5.933651980
    0.429716194    8.173090601    7.102060792    5.931347863
    0.436894825    8.169404030    7.098939349    5.929007608
    0.444073456    8.165661006    7.095770166    5.926631338
    0.451252087    8.161861742    7.092553424    5.924219182
    0.458430718    8.158006453    7.089289308    5.921771268
    0.465609349    8.154095358    7.085978003    5.919287726
    0.472787980    8.150128674    7.082619698    5.916768687
    0.479966611    8.146106624    7.079214580    5.914214284
    0.487145242    8.142029433    7.075762844    5.911624650
    0.494323873    8.137897326    7.072264680    5.908999923
    0.501502504    8.133710532    7.068720286    5.906340237
    0.508681135    8.129469281    7.065129856    5.903645732
    0.515859766    8.125173807    7.061493591    5.900916546
    0.523038397    8.120824343    7.057811691    5.898152819
    0.530217028    8.116421127    7.054084356    5.895354695
    0.537395659    8.111964397    7.050311792    5.892522316
    0.544574290    8.107454395    7.046494202    5.889655825
    0.551752922    8.102891361    7.042631795    5.886755369
    0.558931553    8.098275541    7.038724777    5.883821093
    0.566110184    8.093607182    7.034773360    5.880853146
    0.573288815    8.088886530    7.030777753    5.877851676
    0.580467446    8.084113837    7.026738171    5.874816832
    0.587646077    8.079289352    7.022654827    5.871748767
    0.594824708    8.074413331    7.018527936    5.868647631
    0.602003339    8.069486027    7.014357717    5.865513578
    0.609181970    8.064507697    7.010144386    5.862346761
    0.616360601    8.059478600    7.005888163    5.859147336
    0.623539232    8.054398994    7.001589270    5.855915458
    0.630717863    8.049269142    6.997247929    5.852651285
    0.637896494    8.044089305    6.992864362    5.849354974
    0.645075125    8.038859749    6.988438795    5.846026683
    0.652253756    8.033580739    6.983971452    5.842666573
    0.659432387    8.028252542    6.979462562    5.839274805
    0.666611018    8.022875426    6.974912352    5.835851538
    0.673789649    8.017449661    6.970321051    5.832396936
    0.680968280    8.011975518    6.965688889    5.828911162
    0.688146912    8.006453270    6.961016098    5.825394379
    0.695325543    8.000883190    6.956302909    5.821846752
    0.702504174    7.995265554    6.951549556    5.818268446
    0.709682805    7.989600637    6.946756274    5.814659628
    0.716861436    7.983888716    6.941923296    5.811020464
    0.724040067    7.978130070    6.937050860    5.807351122
    0.731218698    7.972324979    6.932139202    5.803651771
    0.738397329    7.966473722    6.927188561    5.799922578
    0.745575960    7.960576582    6.922199174    5.796163715
    0.752754591    7.954633840    6.917171281    5.792375351
    0.759933222    7.948645782    6.912105122    5.788557656
    0.767111853    7.942612690    6.907000939    5.784710804
    0.774290484    7.936534852    6.901858974    5.780834965
    0.781469115    7.930412553    6.896679468    5.776930313
    0.788647746    7.924246080    6.891462665    5.772997020
    0.795826377    7.918035721    6.886208809    5.769035261
    0.803005008    7.911781766    6.880918145    5.765045210
    0.810183639    7.905484505    6.875590917    5.761027042
    0.817362270    7.899144227    6.870227372    5.756980932
    0.824540902    7.892761224    6.864827756    5.752907057
    0.831719533    7.886335788    6.859392316    5.748805591
    0.838898164    7.879868212    6.853921299    5.744676713
    0.846076795    7.873358789    6.848414954    5.740520600
    0.853255426    7.866807812    6.842873529    5.736337429
    0.860434057    7.860215577    6.837297272    5.732127378
    0.867612688    7.853582379    6.831686434    5.727890625
    0.874791319    7.846908513    6.826041265    5.723627350
    0.881969950    7.840194276    6.820362014    5.719337732
    0.889148581    7.833439963    6.814648932    5.715021951
    0.896327212    7.826645874    6.808902271    5.710680185
    0.903505843    7.819812304    6.803122282    5.706312616
    0.910684474    7.812939552    6.797309217    5.701919423
    0.917863105    7.806027918    6.791463327    5.697500789
    0.925041736    7.799077698    6.785584866    5.693056893
    0.932220367    7.792089194    6.779674085    5.688587917
    0.939398998    7.785062703    6.773731238    5.684094043
    0.946577629    7.777998527    6.767756578    5.679575452
    0.953756260    7.770896965    6.761750358    5.675032327
    0.960934891    7.763758318    6.755712831    5.670464849
    0.968113523    7.756582886    6.749644252    5.665873202
    0.975292154    7.749370970    6.743544874    5.661257567
    0.982470785    7.742122871    6.737414951    5.656618127
    0.989649416    7.734838890    6.731254737    5.651955066
    0.996828047    7.727519329    6.725064486    5.647268566
    1.004006678    7.720164488    6.718844453    5.642558810
    1.011185309    7.712774671    6.712594892    5.637825982
    1.018363940    7.705350177    6.706316057    5.633070265
    1.025542571    7.697891309    6.700008203    5.628291843
    1.032721202    7.690398368    6.693671583    5.623490898
    1.039899833    7.682871657    6.687306453    5.618667615
    1.047078464    7.675311475    6.680913066    5.613822177
    1.054257095    7.667718127    6.674491676    5.608954767
    1.061435726    7.660091911    6.668042539    5.604065570
    1.068614357    7.652433131    6.661565907    5.599154768
    1.075792988    7.644742088    6.655062035    5.594222546
    1.082971619    7.637019082    6.648531177    5.589269087
    1.090150250    7.629264414    6.641973586    5.584294574
    1.097328881    7.621478387    6.635389516    5.579299192
    1.104507513    7.613661299    6.628779221    5.574283123
    1.111686144    7.605813453    6.622142952    5.569246550
    1.118864775    7.597935147    6.615480964    5.564189658
    1.126043406    7.590026683    6.608793509    5.559112629
    1.133222037    7.582088359    6.602080839    5.554015646
    1.140400668    7.574120475    6.595343206    5.548898893
    1.147579299    7.566123330    6.588580863    5.543762552
    1.154757930    7.558097223    6.581794062    5.538606805
    1.161936561    7.550042453    6.574983052    5.533431836
    1.169115192    7.541959317    6.568148086    5.528237826
    1.176293823    7.533848114    6.561289414    5.523024959
    1.183472454    7.525709139    6.554407286    5.517793415
    1.190651085    7.517542691    6.547501953    5.512543376
    1.197829716    7.509349065    6.540573663    5.507275025
    1.205008347    7.501128558    6.533622666    5.501988542
    1.212186978    7.492881465    6.526649210    5.496684109
    1.219365609    7.484608081    6.519653545    5.491361906
    1.226544240    7.476308700    6.512635917    5.486022115
    1.233722871    7.467983616    6.505596573    5.480664915
    1.240901503    7.459633123    6.498535762    5.475290486
    1.248080134    7.451257512    6.491453729    5.469899009
    1.255258765    7.442857078    6.484350721    5.464490663
    1.262437396    7.434432110    6.477226981    5.459065627
    1.269616027    7.425982900    6.470082757    5.453624080
    1.276794658    7.417509739    6.462918291    5.448166200
    1.283973289    7.409012916    6.455733827    5.442692166
    1.291151920    7.400492719    6.448529609    5.437202156
    1.298330551    7.391949438    6.441305879    5.431696348
    1.305509182    7.383383360    6.434062880    5.426174917
    1.312687813    7.374794771    6.426800852    5.420638042
    1.319866444    7.366183959    6.419520037    5.415085899
    1.327045075    7.357551208    6.412220674    5.409518664
    1.334223706    7.348896803    6.404903003    5.403936511
    1.341402337    7.340221028    6.397567263    5.398339618
    1.348580968    7.331524167    6.390213693    5.392728158
    1.355759599    7.322806500    6.382842529    5.387102306
    1.362938230    7.314068311    6.375454008    5.381462235
    1.370116861    7.305309880    6.368048367    5.375808121
    1.377295492    7.296531486    6.360625841    5.370140134
    1.384474124    7.287733408    6.353186664    5.364458449
    1.391652755    7.278915925    6.345731071    5.358763237
    1.398831386    7.270079314    6.338259295    5.353054671
    1.406010017    7.261223852    6.330771568    5.347332920
    1.413188648    7.252349812    6.323268122    5.341598157
    1.420367279    7.243457472    6.315749188    5.335850550
    1.427545910    7.234547102    6.308214996    5.330090271
    1.434724541    7.225618978    6.300665775    5.324317488
    1.441903172    7.216673369    6.293101753    5.318532371
    1.449081803    7.207710547    6.285523160    5.312735086
    1.456260434    7.198730782    6.277930220    5.306925802
    1.463439065    7.189734342    6.270323161    5.301104687
    1.470617696    7.180721496    6.262702208    5.295271906
    1.477796327    7.171692509    6.255067584    5.289427625
    1.484974958    7.162647648    6.247419514    5.283572011
    1.492153589    7.153587178    6.239758221    5.277705228
    1.499332220    7.144511361    6.232083925    5.271827440
    1.506510851    7.135420462    6.224396848    5.265938812
    1.513689482    7.126314740    6.216697209    5.260039506
    1.520868114    7.117194458    6.208985229    5.254129686
    1.528046745    7.108059874    6.201261125    5.248209512
    1.535225376    7.098911246    6.193525114    5.242279147
    1.542404007    7.089748833    6.185777413    5.236338752
    1.549582638    7.080572889    6.178018237    5.230388486
    1.556761269    7.071383671    6.170247800    5.224428510
    1.563939900    7.062181432    6.162466317    5.218458981
    1.571118531    7.052966424    6.154674000    5.212480060
    1.578297162    7.043738900    6.146871060    5.206491903
    1.585475793    7.034499110    6.139057708    5.200494667
    1.592654424    7.025247303    6.131234155    5.194488509
    1.599833055    7.015983728    6.123400608    5.188473585
    1.607011686    7.006708632    6.115557275    5.182450050
    1.614190317    6.997422260    6.107704364    5.176418059
    1.621368948    6.988124858    6.099842080    5.170377765
    1.628547579    6.978816668    6.091970627    5.164329321
    1.635726210    6.969497934    6.084090211    5.158272881
    1.642904841    6.960168895    6.076201033    5.152208595
    1.650083472    6.950829793    6.068303295    5.146136616
    1.657262104    6.941480866    6.060397199    5.140057094
    1.664440735    6.932122351    6.052482943    5.133970178
    1.671619366    6.922754485    6.044560727    5.127876017
    1.678797997    6.913377502    6.036630748    5.121774761
    1.685976628    6.903991637    6.028693203    5.115666557
    1.693155259    6.894597123    6.020748288    5.109551552
    1.700333890    6.885194189    6.012796197    5.103429892
    1.707512521    6.875783068    6.004837124    5.097301723
    1.714691152    6.866363987    5.996871262    5.091167190
    1.721869783    6.856937174    5.988898801    5.085026438
    1.729048414    6.847502855    5.980919933    5.078879609
    1.736227045    6.838061256    5.972934846    5.072726847
    1.743405676    6.828612600    5.964943729    5.066568294
    1.750584307    6.819157110    5.956946769    5.060404090
    1.757762938    6.809695008    5.948944152    5.054234378
    1.764941569    6.800226513    5.940936064    5.048059297
    1.772120200    6.790751843    5.932922689    5.041878985
    1.779298831    6.781271217    5.924904208    5.035693582
    1.786477462    6.771784851    5.916880805    5.029503226
    1.793656093    6.762292958    5.908852660    5.023308053
    1.800834725    6.752795754    5.900819953    5.017108199
    1.808013356    6.743293451    5.892782862    5.010903800
    1.815191987    6.733786258    5.884741565    5.004694992
    1.822370618    6.724274387    5.876696238    4.998481907
    1.829549249    6.714758045    5.868647057    4.992264680
    1.836727880    6.705237440    5.860594196    4.986043443
    1.843906511    6.695712777    5.852537829    4.979818327
    1.851085142    6.686184260    5.844478126    4.973589465
    1.858263773    6.676652094    5.836415260    4.967356985
    1.865442404    6.667116480    5.828349401    4.961121019
    1.872621035    6.657577619    5.820280716    4.954881694
    1.879799666    6.648035709    5.812209375    4.948639139
    1.886978297    6.638490949    5.804135542    4.942393480
    1.894156928    6.628943535    5.796059385    4.936144846
    1.901335559    6.619393664    5.787981067    4.929893361
    1.908514190    6.609841528    5.779900752    4.923639150
    1.915692821    6.600287321    5.771818602    4.917382339
    1.922871452    6.590731234    5.763734778    4.911123049
    1.930050083    6.581173457    5.755649440    4.904861405
    1.937228715    6.571614179    5.747562748    4.898597528
    1.944407346    6.562053587    5.739474858    4.892331540
    1.951585977    6.552491868    5.731385929    4.886063560
    1.958764608    6.542929207    5.723296114    4.879793709
    1.965943239    6.533365786    5.715205570    4.873522106
    1.973121870    6.523801789    5.707114449    4.867248869
    1.980300501    6.514237397    5.699022904    4.860974115
    1.987479132    6.504672788    5.690931086    4.854697961
    1.994657763    6.495108141    5.682839145    4.848420524
    2.001836394    6.485543634    5.674747230    4.842141917
    2.009015025    6.475979442    5.666655490    4.835862256
    2.016193656    6.466415739    5.658564071    4.829581655
    2.023372287    6.456852699    5.650473120    4.823300225
    2.030550918    6.447290494    5.642382780    4.817018080
    2.037729549    6.437729293    5.634293196    4.810735331
    2.044908180    6.428169267    5.626204509    4.804452088
    2.052086811    6.418610583    5.618116862    4.798168461
    2.059265442    6.409053407    5.610030396    4.791884559
    2.066444073    6.399497906    5.601945248    4.785600492
    2.073622705    6.389944243    5.593861558    4.779316365
    2.080801336    6.380392581    5.585779462    4.773032286
    2.087979967    6.370843082    5.577699097    4.766748362
    2.095158598    6.361295906    5.569620598    4.760464696
    2.102337229    6.351751211    5.561544098    4.754181395
    2.109515860    6.342209156    5.553469731    4.747898562
    2.116694491    6.332669896    5.545397629    4.741616299
    2.123873122    6.323133588    5.537327921    4.735334710
    2.131051753    6.313600384    5.529260739    4.729053895
    2.138230384    6.304070438    5.521196209    4.722773956
    2.145409015    6.294543901    5.513134461    4.716494993
    2.152587646    6.285020922    5.505075620    4.710217104
    2.159766277    6.275501652    5.497019812    4.703940389
    2.166944908    6.265986236    5.488967161    4.697664945
    2.174123539    6.256474822    5.480917791    4.691390870
    2.181302170    6.246967555    5.472871824    4.685118259
    2.188480801    6.237464578    5.464829381    4.678847209
    2.195659432    6.227966035    5.456790583    4.672577814
    2.202838063    6.218472065    5.448755549    4.666310168
    2.210016694    6.208982811    5.440724396    4.660044365
    2.217195326    6.199498410    5.432697243    4.653780497
    2.224373957    6.190019000    5.424674205    4.647518656
    2.231552588    6.180544718    5.416655397    4.641258934
    2.238731219    6.171075699    5.408640933    4.635001421
    2.245909850    6.161612076    5.400630927    4.628746207
    2.253088481    6.152153984    5.392625490    4.622493381
    2.260267112    6.142701552    5.384624734    4.616243030
    2.267445743    6.133254913    5.376628768    4.609995243
    2.274624374    6.123814194    5.368637702    4.603750106
    2.281803005    6.114379525    5.360651644    4.597507707
    2.288981636    6.104951032    5.352670700    4.591268129
    2.296160267    6.095528840    5.344694977    4.585031457
    2.303338898    6.086113074    5.336724580    4.578797777
    2.310517529    6.076703857    5.328759613    4.572567171
    2.317696160    6.067301312    5.320800178    4.566339721
    2.324874791    6.057905559    5.312846379    4.560115509
    2.332053422    6.048516719    5.304898315    4.553894618
    2.339232053    6.039134910    5.296956088    4.547677126
    2.346410684    6.029760248    5.289019797    4.541463115
    2.353589316    6.020392852    5.281089540    4.535252662
    2.360767947    6.011032836    5.273165413    4.529045847
    2.367946578    6.001680313    5.265247514    4.522842747
    2.375125209    5.992335398    5.257335938    4.516643440
    2.382303840    5.982998201    5.249430779    4.510448000
    2.389482471    5.973668834    5.241532131    4.504256505
    2.396661102    5.964347406    5.233640086    4.498069029
    2.403839733    5.955034026    5.225754736    4.491885647
    2.411018364    5.945728800    5.217876171    4.485706431
    2.418196995    5.936431835    5.210004482    4.479531455
    2.425375626    5.927143237    5.202139757    4.473360792
    2.432554257    5.917863109    5.194282085    4.467194512
    2.439732888    5.908591554    5.186431551    4.461032687
    2.446911519    5.899328674    5.178588243    4.454875387
    2.454090150    5.890074570    5.170752246    4.448722682
    2.461268781    5.880829342    5.162923643    4.442574640
    2.468447412    5.871593088    5.155102518    4.436431330
    2.475626043    5.862365906    5.147288954    4.430292820
    2.482804674    5.853147893    5.139483033    4.424159176
    2.489983306    5.843939143    5.131684834    4.418030466
    2.497161937    5.834739752    5.123894439    4.411906753
    2.504340568    5.825549813    5.116111926    4.405788105
    2.511519199    5.816369418    5.108337372    4.399674584
    2.518697830    5.807198658    5.100570857    4.393566256
    2.525876461    5.798037624    5.092812454    4.387463182
    2.533055092    5.788886405    5.085062242    4.381365426
    2.540233723    5.779745090    5.077320293    4.375273050
