# energy grid [eV]     ieps_x  ieps_y  ieps_z
#
    0.200000000    8.924749585    8.434874491    7.774005507
    0.207178631    8.922816846    8.433090340    7.772463592
    0.214357262    8.920817011    8.431244236    7.770868083
    0.221535893    8.918750187    8.429336277    7.769219062
    0.228714524    8.916616488    8.427366564    7.767516611
    0.235893155    8.914416029    8.425335204    7.765760815
    0.243071786    8.912148928    8.423242303    7.763951762
    0.250250417    8.909815309    8.421087973    7.762089543
    0.257429048    8.907415296    8.418872328    7.760174249
    0.264607679    8.904949020    8.416595487    7.758205977
    0.271786311    8.902416614    8.414257570    7.756184825
    0.278964942    8.899818213    8.411858700    7.754110894
    0.286143573    8.897153957    8.409399005    7.751984286
    0.293322204    8.894423989    8.406878614    7.749805107
    0.300500835    8.891628456    8.404297661    7.747573466
    0.307679466    8.888767508    8.401656281    7.745289472
    0.314858097    8.885841296    8.398954614    7.742953240
    0.322036728    8.882849978    8.396192801    7.740564884
    0.329215359    8.879793714    8.393370988    7.738124522
    0.336393990    8.876672665    8.390489323    7.735632275
    0.343572621    8.873486999    8.387547956    7.733088265
    0.350751252    8.870236883    8.384547041    7.730492618
    0.357929883    8.866922491    8.381486736    7.727845461
    0.365108514    8.863543998    8.378367199    7.725146925
    0.372287145    8.860101583    8.375188593    7.722397141
    0.379465776    8.856595428    8.371951083    7.719596243
    0.386644407    8.853025717    8.368654837    7.716744369
    0.393823038    8.849392638    8.365300027    7.713841659
    0.401001669    8.845696383    8.361886825    7.710888252
    0.408180301    8.841937145    8.358415409    7.707884294
    0.415358932    8.838115120    8.354885956    7.704829929
    0.422537563    8.834230510    8.351298649    7.701725306
    0.429716194    8.830283517    8.347653673    7.698570576
    0.436894825    8.826274346    8.343951213    7.695365890
    0.444073456    8.822203206    8.340191461    7.692111404
    0.451252087    8.818070308    8.336374608    7.688807275
    0.458430718    8.813875866    8.332500848    7.685453661
    0.465609349    8.809620098    8.328570380    7.682050723
    0.472787980    8.805303223    8.324583403    7.678598624
    0.479966611    8.800925464    8.320540119    7.675097530
    0.487145242    8.796487046    8.316440734    7.671547608
    0.494323873    8.791988196    8.312285454    7.667949028
    0.501502504    8.787429145    8.308074489    7.664301959
    0.508681135    8.782810126    8.303808051    7.660606577
    0.515859766    8.778131374    8.299486354    7.656863055
    0.523038397    8.773393128    8.295109616    7.653071572
    0.530217028    8.768595629    8.290678055    7.649232305
    0.537395659    8.763739119    8.286191892    7.645345437
    0.544574290    8.758823844    8.281651352    7.641411150
    0.551752922    8.753850053    8.277056659    7.637429628
    0.558931553    8.748817995    8.272408041    7.633401059
    0.566110184    8.743727923    8.267705729    7.629325630
    0.573288815    8.738580093    8.262949955    7.625203532
    0.580467446    8.733374761    8.258140953    7.621034957
    0.587646077    8.728112188    8.253278959    7.616820098
    0.594824708    8.722792635    8.248364213    7.612559151
    0.602003339    8.717416367    8.243396953    7.608252313
    0.609181970    8.711983649    8.238377423    7.603899782
    0.616360601    8.706494749    8.233305868    7.599501759
    0.623539232    8.700949939    8.228182532    7.595058447
    0.630717863    8.695349491    8.223007665    7.590570048
    0.637896494    8.689693680    8.217781517    7.586036768
    0.645075125    8.683982781    8.212504338    7.581458813
    0.652253756    8.678217074    8.207176384    7.576836393
    0.659432387    8.672396838    8.201797909    7.572169717
    0.666611018    8.666522356    8.196369171    7.567458997
    0.673789649    8.660593913    8.190890429    7.562704444
    0.680968280    8.654611794    8.185361942    7.557906274
    0.688146912    8.648576287    8.179783974    7.553064702
    0.695325543    8.642487682    8.174156788    7.548179945
    0.702504174    8.636346270    8.168480650    7.543252223
    0.709682805    8.630152343    8.162755826    7.538281753
    0.716861436    8.623906197    8.156982586    7.533268758
    0.724040067    8.617608128    8.151161198    7.528213461
    0.731218698    8.611258434    8.145291936    7.523116084
    0.738397329    8.604857413    8.139375071    7.517976853
    0.745575960    8.598405368    8.133410878    7.512795994
    0.752754591    8.591902600    8.127399633    7.507573735
    0.759933222    8.585349413    8.121341613    7.502310304
    0.767111853    8.578746113    8.115237096    7.497005930
    0.774290484    8.572093006    8.109086362    7.491660846
    0.781469115    8.565390400    8.102889691    7.486275282
    0.788647746    8.558638605    8.096647367    7.480849472
    0.795826377    8.551837932    8.090359672    7.475383650
    0.803005008    8.544988691    8.084026890    7.469878051
    0.810183639    8.538091197    8.077649309    7.464332911
    0.817362270    8.531145763    8.071227213    7.458748468
    0.824540902    8.524152705    8.064760892    7.453124960
    0.831719533    8.517112339    8.058250633    7.447462626
    0.838898164    8.510024984    8.051696727    7.441761706
    0.846076795    8.502890957    8.045099464    7.436022441
    0.853255426    8.495710579    8.038459137    7.430245072
    0.860434057    8.488484170    8.031776038    7.424429843
    0.867612688    8.481212052    8.025050461    7.418576997
    0.874791319    8.473894548    8.018282700    7.412686777
    0.881969950    8.466531979    8.011473050    7.406759430
    0.889148581    8.459124672    8.004621808    7.400795200
    0.896327212    8.451672951    7.997729271    7.394794335
    0.903505843    8.444177142    7.990795735    7.388757082
    0.910684474    8.436637572    7.983821500    7.382683688
    0.917863105    8.429054567    7.976806864    7.376574403
    0.925041736    8.421428457    7.969752127    7.370429474
    0.932220367    8.413759569    7.962657589    7.364249153
    0.939398998    8.406048233    7.955523552    7.358033690
    0.946577629    8.398294779    7.948350316    7.351783335
    0.953756260    8.390499537    7.941138184    7.345498340
    0.960934891    8.382662839    7.933887458    7.339178957
    0.968113523    8.374785015    7.926598441    7.332825439
    0.975292154    8.366866398    7.919271436    7.326438039
    0.982470785    8.358907320    7.911906748    7.320017010
    0.989649416    8.350908114    7.904504681    7.313562606
    0.996828047    8.342869113    7.897065538    7.307075081
    1.004006678    8.334790651    7.889589626    7.300554690
    1.011185309    8.326673061    7.882077250    7.294001689
    1.018363940    8.318516678    7.874528715    7.287416331
    1.025542571    8.310321836    7.866944327    7.280798875
    1.032721202    8.302088869    7.859324391    7.274149574
    1.039899833    8.293818112    7.851669215    7.267468686
    1.047078464    8.285509901    7.843979105    7.260756467
    1.054257095    8.277164570    7.836254367    7.254013173
    1.061435726    8.268782454    7.828495309    7.247239063
    1.068614357    8.260363889    7.820702236    7.240434392
    1.075792988    8.251909210    7.812875456    7.233599419
    1.082971619    8.243418753    7.805015277    7.226734401
    1.090150250    8.234892853    7.797122004    7.219839595
    1.097328881    8.226331844    7.789195945    7.212915260
    1.104507513    8.217736063    7.781237406    7.205961652
    1.111686144    8.209105845    7.773246696    7.198979030
    1.118864775    8.200441524    7.765224121    7.191967653
    1.126043406    8.191743435    7.757169986    7.184927777
    1.133222037    8.183011914    7.749084600    7.177859660
    1.140400668    8.174247295    7.740968269    7.170763562
    1.147579299    8.165449911    7.732821299    7.163639739
    1.154757930    8.156620098    7.724643995    7.156488450
    1.161936561    8.147758189    7.716436665    7.149309952
    1.169115192    8.138864518    7.708199613    7.142104503
    1.176293823    8.129939417    7.699933146    7.134872361
    1.183472454    8.120983220    7.691637568    7.127613783
    1.190651085    8.111996260    7.683313184    7.120329026
    1.197829716    8.102978867    7.674960299    7.113018348
    1.205008347    8.093931375    7.666579217    7.105682006
    1.212186978    8.084854114    7.658170241    7.098320256
    1.219365609    8.075747414    7.649733676    7.090933355
    1.226544240    8.066611607    7.641269823    7.083521559
    1.233722871    8.057447023    7.632778986    7.076085125
    1.240901503    8.048253989    7.624261467    7.068624308
    1.248080134    8.039032836    7.615717568    7.061139363
    1.255258765    8.029783891    7.607147588    7.053630547
    1.262437396    8.020507482    7.598551830    7.046098113
    1.269616027    8.011203935    7.589930594    7.038542317
    1.276794658    8.001873577    7.581284178    7.030963412
    1.283973289    7.992516734    7.572612882    7.023361652
    1.291151920    7.983133731    7.563917004    7.015737292
    1.298330551    7.973724891    7.555196842    7.008090583
    1.305509182    7.964290539    7.546452693    7.000421779
    1.312687813    7.954830997    7.537684854    6.992731131
    1.319866444    7.945346587    7.528893620    6.985018892
    1.327045075    7.935837630    7.520079287    6.977285312
    1.334223706    7.926304447    7.511242149    6.969530643
    1.341402337    7.916747357    7.502382499    6.961755135
    1.348580968    7.907166680    7.493500632    6.953959037
    1.355759599    7.897562732    7.484596838    6.946142599
    1.362938230    7.887935832    7.475671410    6.938306070
    1.370116861    7.878286296    7.466724638    6.930449697
    1.377295492    7.868614437    7.457756812    6.922573729
    1.384474124    7.858920572    7.448768221    6.914678412
    1.391652755    7.849205013    7.439759154    6.906763992
    1.398831386    7.839468073    7.430729898    6.898830717
    1.406010017    7.829710064    7.421680739    6.890878830
    1.413188648    7.819931295    7.412611963    6.882908576
    1.420367279    7.810132076    7.403523856    6.874920200
    1.427545910    7.800312716    7.394416700    6.866913944
    1.434724541    7.790473522    7.385290778    6.858890052
    1.441903172    7.780614801    7.376146374    6.850848765
    1.449081803    7.770736857    7.366983768    6.842790323
    1.456260434    7.760839996    7.357803239    6.834714969
    1.463439065    7.750924519    7.348605068    6.826622942
    1.470617696    7.740990730    7.339389532    6.818514480
    1.477796327    7.731038929    7.330156909    6.810389822
    1.484974958    7.721069416    7.320907475    6.802249206
    1.492153589    7.711082490    7.311641505    6.794092868
    1.499332220    7.701078448    7.302359272    6.785921045
    1.506510851    7.691057585    7.293061051    6.777733972
    1.513689482    7.681020199    7.283747113    6.769531882
    1.520868114    7.670966582    7.274417730    6.761315011
    1.528046745    7.660897026    7.265073170    6.753083590
    1.535225376    7.650811825    7.255713703    6.744837853
    1.542404007    7.640711267    7.246339597    6.736578029
    1.549582638    7.630595642    7.236951117    6.728304349
    1.556761269    7.620465238    7.227548531    6.720017043
    1.563939900    7.610320341    7.218132101    6.711716340
    1.571118531    7.600161237    7.208702091    6.703402466
    1.578297162    7.589988209    7.199258764    6.695075650
    1.585475793    7.579801540    7.189802380    6.686736117
    1.592654424    7.569601511    7.180333198    6.678384092
    1.599833055    7.559388403    7.170851478    6.670019800
    1.607011686    7.549162494    7.161357477    6.661643463
    1.614190317    7.538924062    7.151851450    6.653255304
    1.621368948    7.528673383    7.142333654    6.644855544
    1.628547579    7.518410731    7.132804341    6.636444405
    1.635726210    7.508136380    7.123263765    6.628022105
    1.642904841    7.497850602    7.113712176    6.619588863
    1.650083472    7.487553668    7.104149825    6.611144897
    1.657262104    7.477245846    7.094576961    6.602690423
    1.664440735    7.466927406    7.084993831    6.594225658
    1.671619366    7.456598612    7.075400682    6.585750815
    1.678797997    7.446259731    7.065797758    6.577266109
    1.685976628    7.435911026    7.056185304    6.568771753
    1.693155259    7.425552759    7.046563563    6.560267957
    1.700333890    7.415185192    7.036932775    6.551754934
    1.707512521    7.404808583    7.027293181    6.543232893
    1.714691152    7.394423192    7.017645020    6.534702042
    1.721869783    7.384029273    7.007988528    6.526162589
    1.729048414    7.373627084    6.998323942    6.517614741
    1.736227045    7.363216876    6.988651498    6.509058704
    1.743405676    7.352798904    6.978971428    6.500494682
    1.750584307    7.342373417    6.969283965    6.491922880
    1.757762938    7.331940665    6.959589340    6.483343498
    1.764941569    7.321500896    6.949887783    6.474756740
    1.772120200    7.311054356    6.940179522    6.466162805
    1.779298831    7.300601290    6.930464783    6.457561893
    1.786477462    7.290141943    6.920743793    6.448954203
    1.793656093    7.279676555    6.911016776    6.440339931
    1.800834725    7.269205368    6.901283955    6.431719273
    1.808013356    7.258728621    6.891545551    6.423092426
    1.815191987    7.248246551    6.881801785    6.414459583
    1.822370618    7.237759394    6.872052877    6.405820937
    1.829549249    7.227267386    6.862299043    6.397176680
    1.836727880    7.216770759    6.852540500    6.388527003
    1.843906511    7.206269745    6.842777463    6.379872095
    1.851085142    7.195764574    6.833010145    6.371212146
    1.858263773    7.185255475    6.823238759    6.362547343
    1.865442404    7.174742676    6.813463516    6.353877872
    1.872621035    7.164226401    6.803684625    6.345203919
    1.879799666    7.153706875    6.793902295    6.336525668
    1.886978297    7.143184321    6.784116731    6.327843302
    1.894156928    7.132658960    6.774328141    6.319157004
    1.901335559    7.122131011    6.764536727    6.310466953
    1.908514190    7.111600694    6.754742693    6.301773332
    1.915692821    7.101068224    6.744946239    6.293076317
    1.922871452    7.090533817    6.735147567    6.284376087
    1.930050083    7.079997686    6.725346874    6.275672818
    1.937228715    7.069460044    6.715544359    6.266966686
    1.944407346    7.058921102    6.705740216    6.258257864
    1.951585977    7.048381068    6.695934640    6.249546527
    1.958764608    7.037840151    6.686127825    6.240832847
    1.965943239    7.027298556    6.676319963    6.232116994
    1.973121870    7.016756489    6.666511244    6.223399138
    1.980300501    7.006214152    6.656701857    6.214679447
    1.987479132    6.995671747    6.646891989    6.205958091
    1.994657763    6.985129475    6.637081828    6.197235235
    2.001836394    6.974587534    6.627271558    6.188511044
    2.009015025    6.964046121    6.617461363    6.179785683
    2.016193656    6.953505432    6.607651425    6.171059315
    2.023372287    6.942965662    6.597841926    6.162332102
    2.030550918    6.932427003    6.588033045    6.153604206
    2.037729549    6.921889646    6.578224959    6.144875785
    2.044908180    6.911353782    6.568417847    6.136146998
    2.052086811    6.900819598    6.558611883    6.127418004
    2.059265442    6.890287281    6.548807242    6.118688958
    2.066444073    6.879757017    6.539004097    6.109960016
    2.073622705    6.869228989    6.529202619    6.101231333
    2.080801336    6.858703381    6.519402978    6.092503061
    2.087979967    6.848180372    6.509605343    6.083775352
    2.095158598    6.837660143    6.499809883    6.075048358
    2.102337229    6.827142872    6.490016762    6.066322227
    2.109515860    6.816628734    6.480226145    6.057597110
    2.116694491    6.806117905    6.470438198    6.048873153
    2.123873122    6.795610559    6.460653080    6.040150502
    2.131051753    6.785106868    6.450870954    6.031429304
    2.138230384    6.774607003    6.441091978    6.022709703
    2.145409015    6.764111133    6.431316312    6.013991841
    2.152587646    6.753619425    6.421544111    6.005275861
    2.159766277    6.743132047    6.411775532    5.996561903
    2.166944908    6.732649163    6.402010729    5.987850109
    2.174123539    6.722170936    6.392249854    5.979140615
    2.181302170    6.711697530    6.382493060    5.970433561
    2.188480801    6.701229104    6.372740497    5.961729083
    2.195659432    6.690765819    6.362992314    5.953027316
    2.202838063    6.680307831    6.353248658    5.944328394
    2.210016694    6.669855298    6.343509677    5.935632452
    2.217195326    6.659408374    6.333775515    5.926939621
    2.224373957    6.648967213    6.324046316    5.918250032
    2.231552588    6.638531968    6.314322223    5.909563816
    2.238731219    6.628102789    6.304603378    5.900881102
    2.245909850    6.617679826    6.294889921    5.892202017
    2.253088481    6.607263227    6.285181989    5.883526689
    2.260267112    6.596853139    6.275479722    5.874855243
    2.267445743    6.586449707    6.265783255    5.866187805
    2.274624374    6.576053075    6.256092724    5.857524498
    2.281803005    6.565663387    6.246408261    5.848865444
    2.288981636    6.555280782    6.236730001    5.840210765
    2.296160267    6.544905402    6.227058074    5.831560582
    2.303338898    6.534537385    6.217392610    5.822915015
    2.310517529    6.524176867    6.207733739    5.814274181
    2.317696160    6.513823986    6.198081588    5.805638198
    2.324874791    6.503478876    6.188436283    5.797007183
    2.332053422    6.493141669    6.178797950    5.788381251
    2.339232053    6.482812499    6.169166712    5.779760517
    2.346410684    6.472491495    6.159542693    5.771145093
    2.353589316    6.462178787    6.149926015    5.762535092
    2.360767947    6.451874503    6.140316797    5.753930625
    2.367946578    6.441578771    6.130715159    5.745331802
    2.375125209    6.431291714    6.121121218    5.736738734
    2.382303840    6.421013458    6.111535093    5.728151527
    2.389482471    6.410744126    6.101956898    5.719570289
    2.396661102    6.400483838    6.092386749    5.710995126
    2.403839733    6.390232716    6.082824757    5.702426145
    2.411018364    6.379990879    6.073271037    5.693863447
    2.418196995    6.369758444    6.063725698    5.685307138
    2.425375626    6.359535528    6.054188851    5.676757319
    2.432554257    6.349322247    6.044660604    5.668214092
    2.439732888    6.339118714    6.035141065    5.659677557
    2.446911519    6.328925042    6.025630341    5.651147812
    2.454090150    6.318741344    6.016128537    5.642624957
    2.461268781    6.308567729    6.006635757    5.634109089
    2.468447412    6.298404307    5.997152104    5.625600305
    2.475626043    6.288251186    5.987677680    5.617098699
    2.482804674    6.278108472    5.978212587    5.608604366
    2.489983306    6.267976272    5.968756923    5.600117400
    2.497161937    6.257854690    5.959310788    5.591637893
    2.504340568    6.247743829    5.949874280    5.583165937
    2.511519199    6.237643791    5.940447495    5.574701623
    2.518697830    6.227554677    5.931030527    5.566245041
    2.525876461    6.217476587    5.921623473    5.557796279
    2.533055092    6.207409619    5.912226425    5.549355425
    2.540233723    6.197353871    5.902839475    5.540922567
