# energy grid [eV]     epsr_x  epsr_y  epsr_z
#
    0.200000000   11.978835307   15.608020127   14.541410748
    0.207178631   11.981629116   15.611957996   14.544845697
    0.214357262   11.984523581   15.616037817   14.548404052
    0.221535893   11.987518928   15.620259919   14.552086055
    0.228714524   11.990615397   15.624624649   14.555891958
    0.235893155   11.993813234   15.629132364   14.559822021
    0.243071786   11.997112695   15.633783434   14.563876513
    0.250250417   12.000514043   15.638578245   14.568055712
    0.257429048   12.004017555   15.643517194   14.572359909
    0.264607679   12.007623512   15.648600695   14.576789398
    0.271786311   12.011332210   15.653829174   14.581344489
    0.278964942   12.015143950   15.659203073   14.586025498
    0.286143573   12.019059046   15.664722847   14.590832750
    0.293322204   12.023077822   15.670388969   14.595766584
    0.300500835   12.027200610   15.676201924   14.600827345
    0.307679466   12.031427756   15.682162216   14.606015390
    0.314858097   12.035759613   15.688270362   14.611331087
    0.322036728   12.040196548   15.694526899   14.616774812
    0.329215359   12.044738938   15.700932379   14.622346955
    0.336393990   12.049387171   15.707487370   14.628047914
    0.343572621   12.054141646   15.714192459   14.633878098
    0.350751252   12.059002776   15.721048253   14.639837929
    0.357929883   12.063970985   15.728055376   14.645927840
    0.365108514   12.069046709   15.735214470   14.652148273
    0.372287145   12.074230397   15.742526198   14.658499685
    0.379465776   12.079522512   15.749991245   14.664982543
    0.386644407   12.084923529   15.757610314   14.671597326
    0.393823038   12.090433938   15.765384131   14.678344527
    0.401001669   12.096054243   15.773313446   14.685224649
    0.408180301   12.101784961   15.781399030   14.692238211
    0.415358932   12.107626625   15.789641678   14.699385743
    0.422537563   12.113579785   15.798042210   14.706667789
    0.429716194   12.119645004   15.806601473   14.714084906
    0.436894825   12.125822863   15.815320341   14.721637667
    0.444073456   12.132113959   15.824199712   14.729326659
    0.451252087   12.138518908   15.833240518   14.737152482
    0.458430718   12.145038342   15.842443717   14.745115752
    0.465609349   12.151672913   15.851810302   14.753217103
    0.472787980   12.158423291   15.861341296   14.761457181
    0.479966611   12.165290169   15.871037757   14.769836651
    0.487145242   12.172274256   15.880900781   14.778356195
    0.494323873   12.179376287   15.890931500   14.787016513
    0.501502504   12.186597017   15.901131086   14.795818321
    0.508681135   12.193937226   15.911500754   14.804762356
    0.515859766   12.201397715   15.922041761   14.813849373
    0.523038397   12.208979315   15.932755413   14.823080148
    0.530217028   12.216682880   15.943643065   14.832455477
    0.537395659   12.224509293   15.954706122   14.841976178
    0.544574290   12.232459466   15.965946046   14.851643094
    0.551752922   12.240534342   15.977364359   14.861457087
    0.558931553   12.248734895   15.988962645   14.871419047
    0.566110184   12.257062132   16.000742555   14.881529888
    0.573288815   12.265517098   16.012705811   14.891790553
    0.580467446   12.274100874   16.024854214   14.902202012
    0.587646077   12.282814579   16.037189646   14.912765264
    0.594824708   12.291659375   16.049714078   14.923481341
    0.602003339   12.300636469   16.062429577   14.934351308
    0.609181970   12.309747114   16.075338316   14.945376264
    0.616360601   12.318992612   16.088442577   14.956557346
    0.623539232   12.328374322   16.101744768   14.967895731
    0.630717863   12.337893655   16.115247428   14.979392639
    0.637896494   12.347552087   16.128953241   14.991049334
    0.645075125   12.357351157   16.142865053   15.002867130
    0.652253756   12.367292476   16.156985884   15.014847393
    0.659432387   12.377377728   16.171318946   15.026991545
    0.666611018   12.387608682   16.185867667   15.039301071
    0.673789649   12.397987195   16.200635711   15.051777522
    0.680968280   12.408515220   16.215627003   15.064422522
    0.688146912   12.419194815   16.230845766   15.077237775
    0.695325543   12.430028155   16.246296549   15.090225072
    0.702504174   12.441017539   16.261984274   15.103386304
    0.709682805   12.452165407   16.277914280   15.116723466
    0.716861436   12.463474354   16.294092380   15.130238678
    0.724040067   12.474947144   16.310524927   15.143934191
    0.731218698   12.486586733   16.327218892   15.157812410
    0.738397329   12.498396292   16.344181953   15.171875912
    0.745575960   12.510379233   16.361422609   15.186127469
    0.752754591   12.522539239   16.378950308   15.200570077
    0.759933222   12.534880306   16.396775605   15.215206993
    0.767111853   12.547406787   16.414910359   15.230041772
    0.774290484   12.560123443   16.433367962   15.245078320
    0.781469115   12.573035514   16.452163634   15.260320954
    0.788647746   12.586148797   16.471314779   15.275774482
    0.795826377   12.599469747   16.490841433   15.291444293
    0.803005008   12.613005602   16.510766832   15.307336481
    0.810183639   12.626764536   16.531118129   15.323457994
    0.817362270   12.640755863   16.551927319   15.339816830
    0.824540902   12.654990286   16.573232436   15.356422288
    0.831719533   12.669480233   16.595079122   15.373285294
    0.838898164   12.684240292   16.617522709   15.390418844
    0.846076795   12.699287790   16.640631016   15.407838580
    0.853255426   12.714643576   16.664488132   15.425563586
    0.860434057   12.730333095   16.689199635   15.443617473
    0.867612688   12.746387864   16.714899835   15.462029890
    0.874791319   12.762847545   16.741761945   15.480838636
    0.881969950   12.779762855   16.770012433   15.500092654
    0.889148581   12.797199644   16.799951162   15.519856211
    0.896327212   12.815244435   16.831978847   15.540214609
    0.903505843   12.834011274   16.866630979   15.561281236
    0.910684474   12.853647432   16.904605974   15.583203415
    0.917863105   12.874326246   16.946728940   15.606154909
    0.925041736   12.896178764   16.993609268   15.630264881
    0.932220367   12.918970211   17.044021797   15.655282010
    0.939398998   12.940783505   17.088321358   15.679208035
    0.946577629   12.953849925   17.087587953   15.693970414
    0.953756260   12.942941316   16.965583916   15.683753469
    0.960934891   12.920593688   16.784932823   15.661555502
    0.968113523   12.922562180   16.724384867   15.664471413
    0.975292154   12.942712510   16.753157523   15.686118540
    0.982470785   12.967845653   16.805118205   15.712779585
    0.989649416   12.993521708   16.857928817   15.739825168
    0.996828047   13.018872016   16.907093923   15.766328938
    1.004006678   13.043926990   16.952591006   15.792293496
    1.011185309   13.068892349   16.995245146   15.817898304
    1.018363940   13.093982006   17.035886455   15.843325071
    1.025542571   13.119389354   17.075197845   15.868726442
    1.032721202   13.145291122   17.113723059   15.894228021
    1.039899833   13.171857816   17.151904064   15.919936598
    1.047078464   13.199264973   17.190117544   15.945948347
    1.054257095   13.227704669   17.228705755   15.972356064
    1.061435726   13.257398158   17.268003201   15.999255840
    1.068614357   13.288611037   17.308361920   16.026753876
    1.075792988   13.321672750   17.350178430   16.054974257
    1.082971619   13.357002800   17.393925683   16.084068625
    1.090150250   13.395146533   17.440193590   16.114228842
    1.097328881   13.436822992   17.489741082   16.145703549
    1.104507513   13.482982770   17.543557545   16.178817994
    1.111686144   13.534852323   17.602908163   16.213989345
    1.118864775   13.593854568   17.669244106   16.251700673
    1.126043406   13.660952509   17.743488598   16.292282133
    1.133222037   13.733599433   17.822740488   16.334891952
    1.140400668   13.793508466   17.887079783   16.373427506
    1.147579299   13.770411372   17.860493055   16.384406644
    1.154757930   13.548517897   17.617830131   16.329123903
    1.161936561   13.275448341   17.317819155   16.256935308
    1.169115192   13.205935034   17.234902679   16.252905526
    1.176293823   13.261291310   17.285704448   16.290149074
    1.183472454   13.336742401   17.364532515   16.331461053
    1.190651085   13.381312026   17.432955005   16.355126683
    1.197829716   13.400713593   17.488180080   16.365227266
    1.205008347   13.448119441   17.546344861   16.390978667
    1.212186978   13.513636584   17.607343093   16.430067973
    1.219365609   13.549559342   17.664929012   16.469052215
    1.226544240   13.503718279   17.715409976   16.499621880
    1.233722871   13.438226398   17.762740631   16.527659256
    1.240901503   13.454202647   17.813278682   16.563663133
    1.248080134   13.520599429   17.865822347   16.604725758
    1.255258765   13.600858200   17.918749007   16.647330422
    1.262437396   13.682407584   17.971577275   16.690181502
    1.269616027   13.753119809   18.023132197   16.731129868
    1.276794658   13.773816385   18.068477961   16.762400950
    1.283973289   13.680498215   18.099446167   16.771365047
    1.291151920   13.553661272   18.127381299   16.774977457
    1.298330551   13.523112993   18.170802204   16.801178167
    1.305509182   13.548899451   18.224404961   16.841378390
    1.312687813   13.604370687   18.282425596   16.885456647
    1.319866444   13.673886797   18.343322891   16.930351235
    1.327045075   13.745641342   18.407174100   16.975583559
    1.334223706   13.816826403   18.474676655   17.021361550
    1.341402337   13.887493090   18.546177550   17.067919400
    1.348580968   13.955640344   18.619158359   17.114883206
    1.355759599   14.008713561   18.679791872   17.159482800
    1.362938230   14.013150606   18.691654622   17.194221445
    1.370116861   13.972533354   18.657268326   17.220075452
    1.377295492   13.975028772   18.665446512   17.257263858
    1.384474124   14.018604471   18.692516744   17.305641773
    1.391652755   14.049605348   18.640580534   17.353425130
    1.398831386   14.071893050   18.548928928   17.401726817
    1.406010017   14.126497787   18.554082228   17.459179564
    1.413188648   14.195926730   18.625246378   17.517209074
    1.420367279   14.230733604   18.698845326   17.546708003
    1.427545910   14.169177220   18.737452008   17.503101295
    1.434724541   14.077998329   18.762747515   17.437700909
    1.441903172   14.084221168   18.821536022   17.447449045
    1.449081803   14.152213984   18.902173095   17.505306391
    1.456260434   14.229334550   18.988037183   17.573029972
    1.463439065   14.289688665   19.073579480   17.634930436
    1.470617696   14.343285350   19.160503305   17.694051888
    1.477796327   14.417468081   19.252579634   17.761876672
    1.484974958   14.498562391   19.344803515   17.836001128
    1.492153589   14.541831021   19.414718042   17.908510218
    1.499332220   14.471937601   19.416210726   17.967658541
    1.506510851   14.337862256   19.374641333   18.013138081
    1.513689482   14.305429963   19.371400735   18.039543543
    1.520868114   14.337276130   19.341491104   17.989066826
    1.528046745   14.384144753   19.293345647   17.905184862
    1.535225376   14.458858525   19.330788727   17.911863813
    1.542404007   14.550581204   19.427199417   17.982510707
    1.549582638   14.645836211   19.539146740   18.070420099
    1.556761269   14.733067862   19.649352289   18.159033242
    1.563939900   14.778256684   19.739817845   18.239270636
    1.571118531   14.714005886   19.779231944   18.298636915
    1.578297162   14.594093975   19.794884480   18.348820330
    1.585475793   14.580222233   19.866001569   18.422579380
    1.592654424   14.644795908   19.981835568   18.515905192
    1.599833055   14.720542033   20.112203726   18.616164388
    1.607011686   14.785472304   20.237747373   18.715440080
    1.614190317   14.854359380   20.318846594   18.798201752
    1.621368948   14.919430470   20.263529081   18.817603479
    1.628547579   14.949989521   20.048723086   18.744384788
    1.635726210   14.962523370   19.844714635   18.663819496
    1.642904841   15.011218943   19.834191558   18.693959770
    1.650083472   15.075359624   19.943428364   18.777697421
    1.657262104   15.102002890   20.067706366   18.805221164
    1.664440735   15.076093464   20.154375528   18.750826244
    1.671619366   15.072027592   20.219466165   18.742978767
    1.678797997   15.124403171   20.318543496   18.828470997
    1.685976628   15.202156471   20.439359642   18.953919398
    1.693155259   15.277931459   20.546297043   19.074260451
    1.700333890   15.333184487   20.598185627   19.149853193
    1.707512521   15.374293672   20.606672781   19.169222682
    1.714691152   15.429175487   20.641616134   19.175248079
    1.721869783   15.501728715   20.728477082   19.240485351
    1.729048414   15.584879290   20.852364475   19.371770950
    1.736227045   15.673044865   20.990487643   19.532538812
    1.743405676   15.764385100   21.132752514   19.704483104
    1.750584307   15.855734451   21.266044157   19.865764025
    1.757762938   15.933376232   21.345575697   19.941590256
    1.764941569   15.968320752   21.299149906   19.791749285
    1.772120200   15.955774832   21.191918875   19.444130791
    1.779298831   15.945971219   21.155424032   19.145539255
    1.786477462   16.005388126   21.230783353   19.113954205
    1.793656093   16.117529054   21.375951970   19.256968102
    1.800834725   16.249010953   21.541929110   19.446234154
    1.808013356   16.378179224   21.704083084   19.636106116
    1.815191987   16.460307505   21.825637754   19.803043580
    1.822370618   16.421627021   21.847893522   19.907933721
    1.829549249   16.263187677   21.771239562   19.895949891
    1.836727880   16.025380722   21.627878172   19.751098564
    1.843906511   15.912510517   21.584166714   19.689512453
    1.851085142   15.985362837   21.690065490   19.790181899
    1.858263773   16.128212951   21.852179085   19.954877473
    1.865442404   16.284473395   22.024342408   20.132803452
    1.872621035   16.439538308   22.192434061   20.305349358
    1.879799666   16.582151338   22.338814675   20.439324455
    1.886978297   16.675330436   22.419958121   20.445714656
    1.894156928   16.654094131   22.430816435   20.282438802
    1.901335559   16.552775214   22.473388521   20.149952783
    1.908514190   16.527669359   22.568078843   20.185808237
    1.915692821   16.575742744   22.670082698   20.320699992
    1.922871452   16.671585600   22.796680953   20.479524036
    1.930050083   16.773971871   22.933449969   20.633924762
    1.937228715   16.788925269   23.006777193   20.769223752
    1.944407346   16.729299286   23.015224377   20.885193825
    1.951585977   16.738434969   23.045828738   20.993915971
    1.958764608   16.809204064   23.085073886   21.088730042
    1.965943239   16.906180970   23.144914421   21.186133644
    1.973121870   17.025790804   23.272889662   21.316290919
    1.980300501   17.154178560   23.439083406   21.462468853
    1.987479132   17.287200804   23.609337003   21.586879370
    1.994657763   17.412218289   23.748180355   21.627523256
    2.001836394   17.517336157   23.832685351   21.601914588
    2.009015025   17.614941718   23.916263366   21.646912779
    2.016193656   17.721680405   24.045327757   21.781881114
    2.023372287   17.797384646   24.164274021   21.952389858
    2.030550918   17.832083839   24.243349861   22.126229677
    2.037729549   17.885415455   24.343899776   22.284224067
    2.044908180   17.879189853   24.471724790   22.381643634
    2.052086811   17.796069948   24.603064138   22.421884844
    2.059265442   17.807930561   24.766802017   22.492081691
    2.066444073   17.877103831   24.946216021   22.533641423
    2.073622705   17.928868046   25.126965196   22.530156645
    2.080801336   18.016818387   25.335713229   22.595419641
    2.087979967   18.138444894   25.571539899   22.700264003
    2.095158598   18.220178910   25.777775057   22.702372042
    2.102337229   18.293517128   25.823008840   22.646607833
    2.109515860   18.392632156   25.612156620   22.641070456
    2.116694491   18.471479512   25.384758951   22.722954330
    2.123873122   18.482346076   25.330633827   22.860242938
    2.131051753   18.411361315   25.341222113   22.998078971
    2.138230384   18.434546305   25.467551112   23.165702971
    2.145409015   18.574693905   25.695914766   23.360570543
    2.152587646   18.746200838   25.943594444   23.544146158
    2.159766277   18.906746391   26.177325951   23.704397513
    2.166944908   19.059378420   26.408593006   23.876214261
    2.174123539   19.200269786   26.638929446   24.045768517
    2.181302170   19.297206458   26.844140047   24.140646245
    2.188480801   19.388858136   27.028488753   24.142578100
    2.195659432   19.513680713   27.232436658   24.175730797
    2.202838063   19.668879216   27.471464687   24.307168380
    2.210016694   19.856580866   27.736956639   24.503885180
    2.217195326   20.029761717   27.998270596   24.713626800
    2.224373957   20.101248396   28.196959924   24.888684538
    2.231552588   20.062137132   28.297765562   25.012723608
    2.238731219   20.005863946   28.354108872   25.142942044
    2.245909850   19.987756463   28.409072129   25.313357784
    2.253088481   20.082555416   28.549935218   25.508985587
    2.260267112   20.262415546   28.798086446   25.713379492
    2.267445743   20.432650680   29.065482350   25.904983824
    2.274624374   20.581232346   29.350481703   26.112540259
    2.281803005   20.739182486   29.644681104   26.349632388
    2.288981636   20.846257542   29.845370498   26.584127888
    2.296160267   20.920675291   29.907626471   26.780881062
    2.303338898   21.062432267   29.894184885   26.916830887
    2.310517529   21.275942663   29.994922321   27.069651670
    2.317696160   21.474271994   30.235797845   27.267122806
    2.324874791   21.552087182   30.469504942   27.419974300
    2.332053422   21.574785383   30.694108720   27.551885953
    2.339232053   21.661979518   30.971989334   27.751983944
    2.346410684   21.788503255   31.255279938   27.995466361
    2.353589316   21.962468143   31.574210619   28.272651067
    2.360767947   22.183900367   31.952541376   28.580220106
    2.367946578   22.425428500   32.354811503   28.907887658
    2.375125209   22.609630159   32.692298671   29.231005968
    2.382303840   22.727766358   32.956441323   29.545235544
    2.389482471   22.906810209   33.302441723   29.835539978
    2.396661102   23.180799316   33.749973934   30.078012452
    2.403839733   23.504204939   34.267017431   30.372963378
    2.411018364   23.812824895   34.810330307   30.754835150
    2.418196995   23.999382259   35.249831594   31.142900858
    2.425375626   23.778483550   35.300112781   31.337351107
    2.432554257   23.296930026   35.060972598   31.336048610
    2.439732888   23.174700683   35.165024604   31.481790020
    2.446911519   23.368636066   35.689670226   31.914078356
    2.454090150   23.718642628   36.383466060   32.478066925
    2.461268781   24.127600312   36.926737415   32.741074962
    2.468447412   24.470091844   36.907618614   32.065551836
    2.475626043   24.742345470   36.637622762   31.045633075
    2.482804674   24.981174664   36.806622762   30.913708096
    2.489983306   25.167358654   37.263969944   31.343565807
    2.497161937   25.307519652   37.685044180   31.843981434
    2.504340568   25.339722226   37.776124824   32.153486574
    2.511519199   25.402926319   37.903408527   32.472843207
    2.518697830   25.513387688   38.372497701   33.007378904
    2.525876461   25.754508319   39.113549598   33.682432905
    2.533055092   26.155260103   40.061508063   34.427593604
    2.540233723   26.566165140   41.058620331   35.155946381
