# energy grid [eV]     ieps_x  ieps_y  ieps_z
#
    0.200000000    3.740821645   10.485954670   11.045678383
    0.207178631    3.740322734   10.483497268   11.043104863
    0.214357262    3.739806428   10.480954662   11.040442072
    0.221535893    3.739272748   10.478327000   11.037690160
    0.228714524    3.738721714   10.475614435   11.034849285
    0.235893155    3.738153348   10.472817127   11.031919607
    0.243071786    3.737567672   10.469935237   11.028901292
    0.250250417    3.736964710   10.466968935   11.025794513
    0.257429048    3.736344485   10.463918392   11.022599444
    0.264607679    3.735707022   10.460783785   11.019316267
    0.271786311    3.735052345   10.457565297   11.015945167
    0.278964942    3.734380480   10.454263114   11.012486334
    0.286143573    3.733691453   10.450877427   11.008939963
    0.293322204    3.732985292   10.447408433   11.005306255
    0.300500835    3.732262023   10.443856330   11.001585412
    0.307679466    3.731521676   10.440221325   10.997777645
    0.314858097    3.730764279   10.436503626   10.993883166
    0.322036728    3.729989861   10.432703448   10.989902194
    0.329215359    3.729198453   10.428821008   10.985834952
    0.336393990    3.728390085   10.424856528   10.981681666
    0.343572621    3.727564789   10.420810237   10.977442569
    0.350751252    3.726722597   10.416682364   10.973117895
    0.357929883    3.725863542   10.412473147   10.968707887
    0.365108514    3.724987657   10.408182823   10.964212788
    0.372287145    3.724094975   10.403811639   10.959632849
    0.379465776    3.723185531   10.399359840   10.954968321
    0.386644407    3.722259361   10.394827681   10.950219464
    0.393823038    3.721316500   10.390215418   10.945386538
    0.401001669    3.720356985   10.385523310   10.940469811
    0.408180301    3.719380852   10.380751623   10.935469552
    0.415358932    3.718388138   10.375900624   10.930386036
    0.422537563    3.717378883   10.370970588   10.925219542
    0.429716194    3.716353125   10.365961789   10.919970352
    0.436894825    3.715310902   10.360874508   10.914638752
    0.444073456    3.714252256   10.355709030   10.909225033
    0.451252087    3.713177225   10.350465642   10.903729489
    0.458430718    3.712085852   10.345144636   10.898152419
    0.465609349    3.710978179   10.339746307   10.892494124
    0.472787980    3.709854246   10.334270954   10.886754911
    0.479966611    3.708714097   10.328718880   10.880935090
    0.487145242    3.707557775   10.323090391   10.875034973
    0.494323873    3.706385324   10.317385796   10.869054877
    0.501502504    3.705196789   10.311605410   10.862995124
    0.508681135    3.703992214   10.305749548   10.856856037
    0.515859766    3.702771644   10.299818531   10.850637945
    0.523038397    3.701535126   10.293812683   10.844341178
    0.530217028    3.700282707   10.287732329   10.837966071
    0.537395659    3.699014432   10.281577800   10.831512961
    0.544574290    3.697730351   10.275349430   10.824982192
    0.551752922    3.696430511   10.269047553   10.818374107
    0.558931553    3.695114960   10.262672512   10.811689054
    0.566110184    3.693783748   10.256224646   10.804927384
    0.573288815    3.692436924   10.249704304   10.798089453
    0.580467446    3.691074539   10.243111832   10.791175617
    0.587646077    3.689696643   10.236447583   10.784186236
    0.594824708    3.688303287   10.229711911   10.777121676
    0.602003339    3.686894523   10.222905174   10.769982301
    0.609181970    3.685470403   10.216027731   10.762768482
    0.616360601    3.684030979   10.209079946   10.755480592
    0.623539232    3.682576305   10.202062183   10.748119005
    0.630717863    3.681106434   10.194974812   10.740684099
    0.637896494    3.679621420   10.187818204   10.733176255
    0.645075125    3.678121317   10.180592731   10.725595857
    0.652253756    3.676606180   10.173298769   10.717943291
    0.659432387    3.675076065   10.165936697   10.710218946
    0.666611018    3.673531027   10.158506896   10.702423213
    0.673789649    3.671971122   10.151009749   10.694556485
    0.680968280    3.670396408   10.143445641   10.686619160
    0.688146912    3.668806941   10.135814961   10.678611635
    0.695325543    3.667202778   10.128118097   10.670534312
    0.702504174    3.665583978   10.120355443   10.662387594
    0.709682805    3.663950599   10.112527392   10.654171886
    0.716861436    3.662302700   10.104634341   10.645887598
    0.724040067    3.660640339   10.096676688   10.637535137
    0.731218698    3.658963576   10.088654834   10.629114918
    0.738397329    3.657272471   10.080569180   10.620627353
    0.745575960    3.655567085   10.072420132   10.612072859
    0.752754591    3.653847478   10.064208094   10.603451854
    0.759933222    3.652113710   10.055933476   10.594764758
    0.767111853    3.650365845   10.047596685   10.586011993
    0.774290484    3.648603942   10.039198134   10.577193983
    0.781469115    3.646828065   10.030738235   10.568311154
    0.788647746    3.645038276   10.022217403   10.559363932
    0.795826377    3.643234637   10.013636054   10.550352747
    0.803005008    3.641417213   10.004994604   10.541278028
    0.810183639    3.639586065    9.996293474   10.532140210
    0.817362270    3.637741259    9.987533083   10.522939724
    0.824540902    3.635882859    9.978713852   10.513677006
    0.831719533    3.634010929    9.969836206   10.504352493
    0.838898164    3.632125533    9.960900567   10.494966623
    0.846076795    3.630226737    9.951907362   10.485519835
    0.853255426    3.628314607    9.942857017   10.476012569
    0.860434057    3.626389208    9.933749960   10.466445268
    0.867612688    3.624450606    9.924586619   10.456818375
    0.874791319    3.622498868    9.915367424   10.447132334
    0.881969950    3.620534060    9.906092806   10.437387589
    0.889148581    3.618556248    9.896763197   10.427584589
    0.896327212    3.616565501    9.887379029   10.417723779
    0.903505843    3.614561886    9.877940736   10.407805608
    0.910684474    3.612545470    9.868448752   10.397830526
    0.917863105    3.610516321    9.858903511   10.387798983
    0.925041736    3.608474508    9.849305450   10.377711430
    0.932220367    3.606420099    9.839655004   10.367568318
    0.939398998    3.604353162    9.829952612   10.357370100
    0.946577629    3.602273767    9.820198709   10.347117230
    0.953756260    3.600181983    9.810393734   10.336810160
    0.960934891    3.598077879    9.800538126   10.326449346
    0.968113523    3.595961525    9.790632324   10.316035243
    0.975292154    3.593832991    9.780676767   10.305568305
    0.982470785    3.591692346    9.770671895   10.295048990
    0.989649416    3.589539661    9.760618147   10.284477753
    0.996828047    3.587375007    9.750515964   10.273855051
    1.004006678    3.585198453    9.740365787   10.263181342
    1.011185309    3.583010072    9.730168057   10.252457083
    1.018363940    3.580809933    9.719923213   10.241682731
    1.025542571    3.578598109    9.709631698   10.230858745
    1.032721202    3.576374670    9.699293952   10.219985583
    1.039899833    3.574139688    9.688910416   10.209063703
    1.047078464    3.571893235    9.678481531   10.198093563
    1.054257095    3.569635382    9.668007739   10.187075621
    1.061435726    3.567366202    9.657489480   10.176010337
    1.068614357    3.565085766    9.646927195   10.164898169
    1.075792988    3.562794148    9.636321325   10.153739574
    1.082971619    3.560491419    9.625672311   10.142535011
    1.090150250    3.558177652    9.614980591   10.131284938
    1.097328881    3.555852920    9.604246607   10.119989813
    1.104507513    3.553517295    9.593470798   10.108650094
    1.111686144    3.551170851    9.582653603   10.097266238
    1.118864775    3.548813660    9.571795461   10.085838702
    1.126043406    3.546445796    9.560896810   10.074367944
    1.133222037    3.544067332    9.549958089   10.062854418
    1.140400668    3.541678342    9.538979735   10.051298582
    1.147579299    3.539278898    9.527962186   10.039700891
    1.154757930    3.536869074    9.516905876   10.028061800
    1.161936561    3.534448944    9.505811243   10.016381764
    1.169115192    3.532018582    9.494678721   10.004661236
    1.176293823    3.529578061    9.483508745    9.992900671
    1.183472454    3.527127455    9.472301749    9.981100520
    1.190651085    3.524666838    9.461058166    9.969261237
    1.197829716    3.522196284    9.449778428    9.957383272
    1.205008347    3.519715867    9.438462967    9.945467077
    1.212186978    3.517225661    9.427112215    9.933513102
    1.219365609    3.514725740    9.415726599    9.921521795
    1.226544240    3.512216178    9.404306551    9.909493605
    1.233722871    3.509697050    9.392852497    9.897428981
    1.240901503    3.507168429    9.381364866    9.885328368
    1.248080134    3.504630390    9.369844083    9.873192212
    1.255258765    3.502083008    9.358290573    9.861020959
    1.262437396    3.499526355    9.346704762    9.848815052
    1.269616027    3.496960507    9.335087072    9.836574935
    1.276794658    3.494385538    9.323437925    9.824301049
    1.283973289    3.491801522    9.311757742    9.811993835
    1.291151920    3.489208533    9.300046943    9.799653733
    1.298330551    3.486606646    9.288305948    9.787281182
    1.305509182    3.483995935    9.276535173    9.774876618
    1.312687813    3.481376474    9.264735035    9.762440480
    1.319866444    3.478748337    9.252905949    9.749973202
    1.327045075    3.476111599    9.241048328    9.737475217
    1.334223706    3.473466333    9.229162587    9.724946959
    1.341402337    3.470812615    9.217249135    9.712388860
    1.348580968    3.468150517    9.205308384    9.699801349
    1.355759599    3.465480114    9.193340741    9.687184856
    1.362938230    3.462801480    9.181346614    9.674539807
    1.370116861    3.460114690    9.169326408    9.661866630
    1.377295492    3.457419816    9.157280529    9.649165749
    1.384474124    3.454716932    9.145209380    9.636437588
    1.391652755    3.452006114    9.133113361    9.623682569
    1.398831386    3.449287433    9.120992874    9.610901111
    1.406010017    3.446560964    9.108848317    9.598093636
    1.413188648    3.443826781    9.096680086    9.585260559
    1.420367279    3.441084957    9.084488578    9.572402297
    1.427545910    3.438335565    9.072274187    9.559519265
    1.434724541    3.435578679    9.060037305    9.546611876
    1.441903172    3.432814372    9.047778324    9.533680541
    1.449081803    3.430042717    9.035497632    9.520725670
    1.456260434    3.427263787    9.023195617    9.507747672
    1.463439065    3.424477656    9.010872665    9.494746952
    1.470617696    3.421684395    8.998529161    9.481723917
    1.477796327    3.418884078    8.986165488    9.468678969
    1.484974958    3.416076778    8.973782027    9.455612510
    1.492153589    3.413262567    8.961379156    9.442524940
    1.499332220    3.410441517    8.948957255    9.429416657
    1.506510851    3.407613701    8.936516698    9.416288058
    1.513689482    3.404779190    8.924057859    9.403139537
    1.520868114    3.401938058    8.911581113    9.389971488
    1.528046745    3.399090375    8.899086828    9.376784302
    1.535225376    3.396236214    8.886575375    9.363578367
    1.542404007    3.393375647    8.874047119    9.350354073
    1.549582638    3.390508744    8.861502428    9.337111804
    1.556761269    3.387635577    8.848941663    9.323851945
    1.563939900    3.384756218    8.836365187    9.310574878
    1.571118531    3.381870737    8.823773359    9.297280983
    1.578297162    3.378979205    8.811166538    9.283970638
    1.585475793    3.376081694    8.798545080    9.270644221
    1.592654424    3.373178273    8.785909339    9.257302105
    1.599833055    3.370269013    8.773259667    9.243944663
    1.607011686    3.367353985    8.760596415    9.230572267
    1.614190317    3.364433259    8.747919932    9.217185285
    1.621368948    3.361506904    8.735230564    9.203784084
    1.628547579    3.358574990    8.722528655    9.190369029
    1.635726210    3.355637587    8.709814550    9.176940483
    1.642904841    3.352694764    8.697088588    9.163498808
    1.650083472    3.349746591    8.684351110    9.150044361
    1.657262104    3.346793136    8.671602450    9.136577502
    1.664440735    3.343834469    8.658842946    9.123098584
    1.671619366    3.340870657    8.646072930    9.109607961
    1.678797997    3.337901771    8.633292733    9.096105983
    1.685976628    3.334927877    8.620502685    9.082593001
    1.693155259    3.331949044    8.607703112    9.069069361
    1.700333890    3.328965340    8.594894340    9.055535408
    1.707512521    3.325976832    8.582076692    9.041991485
    1.714691152    3.322983589    8.569250489    9.028437934
    1.721869783    3.319985676    8.556416051    9.014875092
    1.729048414    3.316983163    8.543573694    9.001303298
    1.736227045    3.313976114    8.530723735    8.987722885
    1.743405676    3.310964597    8.517866486    8.974134186
    1.750584307    3.307948679    8.505002258    8.960537533
    1.757762938    3.304928425    8.492131361    8.946933254
    1.764941569    3.301903902    8.479254102    8.933321675
    1.772120200    3.298875175    8.466370786    8.919703121
    1.779298831    3.295842310    8.453481716    8.906077914
    1.786477462    3.292805372    8.440587193    8.892446375
    1.793656093    3.289764427    8.427687517    8.878808821
    1.800834725    3.286719539    8.414782983    8.865165569
    1.808013356    3.283670773    8.401873888    8.851516933
    1.815191987    3.280618193    8.388960525    8.837863224
    1.822370618    3.277561863    8.376043183    8.824204752
    1.829549249    3.274501848    8.363122153    8.810541826
    1.836727880    3.271438211    8.350197720    8.796874750
    1.843906511    3.268371015    8.337270170    8.783203828
    1.851085142    3.265300325    8.324339786    8.769529362
    1.858263773    3.262226202    8.311406848    8.755851650
    1.865442404    3.259148709    8.298471635    8.742170990
    1.872621035    3.256067910    8.285534424    8.728487677
    1.879799666    3.252983866    8.272595489    8.714802004
    1.886978297    3.249896639    8.259655102    8.701114261
    1.894156928    3.246806291    8.246713536    8.687424737
    1.901335559    3.243712884    8.233771057    8.673733720
    1.908514190    3.240616478    8.220827932    8.660041492
    1.915692821    3.237517135    8.207884427    8.646348337
    1.922871452    3.234414915    8.194940803    8.632654536
    1.930050083    3.231309879    8.181997320    8.618960365
    1.937228715    3.228202088    8.169054238    8.605266101
    1.944407346    3.225091600    8.156111812    8.591572019
    1.951585977    3.221978476    8.143170297    8.577878389
    1.958764608    3.218862775    8.130229945    8.564185482
    1.965943239    3.215744557    8.117291007    8.550493565
    1.973121870    3.212623879    8.104353731    8.536802904
    1.980300501    3.209500802    8.091418362    8.523113763
    1.987479132    3.206375383    8.078485147    8.509426402
    1.994657763    3.203247679    8.065554326    8.495741081
    2.001836394    3.200117750    8.052626140    8.482058057
    2.009015025    3.196985653    8.039700827    8.468377585
    2.016193656    3.193851444    8.026778624    8.454699919
    2.023372287    3.190715182    8.013859765    8.441025309
    2.030550918    3.187576922    8.000944483    8.427354004
    2.037729549    3.184436721    7.988033007    8.413686252
    2.044908180    3.181294635    7.975125567    8.400022296
    2.052086811    3.178150721    7.962222389    8.386362380
    2.059265442    3.175005033    7.949323696    8.372706744
    2.066444073    3.171857628    7.936429713    8.359055626
    2.073622705    3.168708560    7.923540659    8.345409265
    2.080801336    3.165557884    7.910656753    8.331767893
    2.087979967    3.162405654    7.897778212    8.318131744
    2.095158598    3.159251926    7.884905250    8.304501047
    2.102337229    3.156096752    7.872038081    8.290876033
    2.109515860    3.152940187    7.859176915    8.277256926
    2.116694491    3.149782283    7.846321962    8.263643951
    2.123873122    3.146623094    7.833473428    8.250037332
    2.131051753    3.143462674    7.820631519    8.236437287
    2.138230384    3.140301073    7.807796438    8.222844036
    2.145409015    3.137138345    7.794968386    8.209257796
    2.152587646    3.133974542    7.782147564    8.195678780
    2.159766277    3.130809715    7.769334168    8.182107201
    2.166944908    3.127643916    7.756528395    8.168543270
    2.174123539    3.124477196    7.743730438    8.154987195
    2.181302170    3.121309605    7.730940490    8.141439183
    2.188480801    3.118141194    7.718158741    8.127899438
    2.195659432    3.114972014    7.705385379    8.114368164
    2.202838063    3.111802115    7.692620590    8.100845561
    2.210016694    3.108631546    7.679864561    8.087331827
    2.217195326    3.105460356    7.667117472    8.073827161
    2.224373957    3.102288595    7.654379506    8.060331757
    2.231552588    3.099116311    7.641650842    8.046845807
    2.238731219    3.095943554    7.628931657    8.033369504
    2.245909850    3.092770371    7.616222127    8.019903037
    2.253088481    3.089596810    7.603522426    8.006446592
    2.260267112    3.086422919    7.590832726    7.993000357
    2.267445743    3.083248746    7.578153198    7.979564513
    2.274624374    3.080074337    7.565484009    7.966139244
    2.281803005    3.076899739    7.552825328    7.952724730
    2.288981636    3.073725000    7.540177318    7.939321147
    2.296160267    3.070550164    7.527540144    7.925928674
    2.303338898    3.067375279    7.514913967    7.912547483
    2.310517529    3.064200389    7.502298947    7.899177749
    2.317696160    3.061025540    7.489695242    7.885819642
    2.324874791    3.057850778    7.477103009    7.872473330
    2.332053422    3.054676146    7.464522403    7.859138981
    2.339232053    3.051501691    7.451953577    7.845816762
    2.346410684    3.048327455    7.439396682    7.832506834
    2.353589316    3.045153482    7.426851868    7.819209361
    2.360767947    3.041979817    7.414319283    7.805924502
    2.367946578    3.038806503    7.401799074    7.792652417
    2.375125209    3.035633583    7.389291385    7.779393261
    2.382303840    3.032461099    7.376796360    7.766147189
    2.389482471    3.029289095    7.364314141    7.752914355
    2.396661102    3.026117612    7.351844867    7.739694911
    2.403839733    3.022946692    7.339388677    7.726489005
    2.411018364    3.019776378    7.326945707    7.713296787
    2.418196995    3.016606710    7.314516093    7.700118402
    2.425375626    3.013437729    7.302099968    7.686953996
    2.432554257    3.010269477    7.289697465    7.673803711
    2.439732888    3.007101993    7.277308713    7.660667688
    2.446911519    3.003935319    7.264933842    7.647546069
    2.454090150    3.000769494    7.252572979    7.634438990
    2.461268781    2.997604557    7.240226250    7.621346588
    2.468447412    2.994440549    7.227893779    7.608268997
    2.475626043    2.991277508    7.215575689    7.595206352
    2.482804674    2.988115473    7.203272101    7.582158784
    2.489983306    2.984954482    7.190983135    7.569126423
    2.497161937    2.981794575    7.178708909    7.556109396
    2.504340568    2.978635788    7.166449540    7.543107832
    2.511519199    2.975478161    7.154205143    7.530121855
    2.518697830    2.972321729    7.141975833    7.517151588
    2.525876461    2.969166531    7.129761721    7.504197155
    2.533055092    2.966012603    7.117562919    7.491258676
    2.540233723    2.962859981    7.105379535    7.478336270
