# energy grid [eV]     ieps_x  ieps_y  ieps_z
#
    0.200000000   12.840491419   13.001965024    9.552461137
    0.207178631   12.836498135   12.997968771    9.549157130
    0.214357262   12.832372370   12.993839113    9.545748798
    0.221535893   12.828114884   12.989576743    9.542237222
    0.228714524   12.823726448   12.985182364    9.538623501
    0.235893155   12.819207840   12.980656691    9.534908737
    0.243071786   12.814559849   12.976000446    9.531094042
    0.250250417   12.809783271   12.971214360    9.527180535
    0.257429048   12.804878910   12.966299175    9.523169336
    0.264607679   12.799847574   12.961255634    9.519061572
    0.271786311   12.794690077   12.956084492    9.514858367
    0.278964942   12.789407238   12.950786506    9.510560848
    0.286143573   12.783999879   12.945362438    9.506170140
    0.293322204   12.778468825   12.939813057    9.501687364
    0.300500835   12.772814903   12.934139132    9.497113639
    0.307679466   12.767038941   12.928341439    9.492450080
    0.314858097   12.761141770   12.922420753    9.487697794
    0.322036728   12.755124221   12.916377853    9.482857882
    0.329215359   12.748987122   12.910213520    9.477931438
    0.336393990   12.742731305   12.903928536    9.472919549
    0.343572621   12.736357598   12.897523682    9.467823288
    0.350751252   12.729866829   12.890999741    9.462643724
    0.357929883   12.723259822   12.884357497    9.457381911
    0.365108514   12.716537403   12.877597732    9.452038895
    0.372287145   12.709700391   12.870721227    9.446615708
    0.379465776   12.702749606   12.863728765    9.441113372
    0.386644407   12.695685863   12.856621124    9.435532894
    0.393823038   12.688509974   12.849399084    9.429875271
    0.401001669   12.681222750   12.842063422    9.424141485
    0.408180301   12.673824994   12.834614914    9.418332504
    0.415358932   12.666317509   12.827054333    9.412449285
    0.422537563   12.658701093   12.819382450    9.406492769
    0.429716194   12.650976540   12.811600036    9.400463883
    0.436894825   12.643144640   12.803707857    9.394363541
    0.444073456   12.635206179   12.795706677    9.388192642
    0.451252087   12.627161939   12.787597260    9.381952070
    0.458430718   12.619012697   12.779380365    9.375642697
    0.465609349   12.610759226   12.771056750    9.369265378
    0.472787980   12.602402296   12.762627168    9.362820957
    0.479966611   12.593942672   12.754092372    9.356310261
    0.487145242   12.585381114   12.745453111    9.349734104
    0.494323873   12.576718379   12.736710131    9.343093286
    0.501502504   12.567955219   12.727864177    9.336388593
    0.508681135   12.559092381   12.718915989    9.329620799
    0.515859766   12.550130611   12.709866306    9.322790662
    0.523038397   12.541070647   12.700715863    9.315898927
    0.530217028   12.531913226   12.691465393    9.308946328
    0.537395659   12.522659080   12.682115627    9.301933584
    0.544574290   12.513308937   12.672667292    9.294861401
    0.551752922   12.503863521   12.663121114    9.287730474
    0.558931553   12.494323553   12.653477815    9.280541485
    0.566110184   12.484689750   12.643738114    9.273295104
    0.573288815   12.474962826   12.633902731    9.265991989
    0.580467446   12.465143490   12.623972379    9.258632786
    0.587646077   12.455232448   12.613947772    9.251218129
    0.594824708   12.445230405   12.603829620    9.243748644
    0.602003339   12.435138060   12.593618631    9.236224943
    0.609181970   12.424956110   12.583315510    9.228647629
    0.616360601   12.414685249   12.572920962    9.221017293
    0.623539232   12.404326167   12.562435688    9.213334517
    0.630717863   12.393879553   12.551860387    9.205599875
    0.637896494   12.383346091   12.541195757    9.197813927
    0.645075125   12.372726464   12.530442493    9.189977228
    0.652253756   12.362021352   12.519601288    9.182090322
    0.659432387   12.351231431   12.508672834    9.174153743
    0.666611018   12.340357376   12.497657819    9.166168019
    0.673789649   12.329399860   12.486556933    9.158133668
    0.680968280   12.318359552   12.475370860    9.150051200
    0.688146912   12.307237120   12.464100286    9.141921117
    0.695325543   12.296033229   12.452745891    9.133743914
    0.702504174   12.284748542   12.441308358    9.125520079
    0.709682805   12.273383720   12.429788365    9.117250091
    0.716861436   12.261939422   12.418186590    9.108934424
    0.724040067   12.250416306   12.406503709    9.100573544
    0.731218698   12.238815026   12.394740396    9.092167912
    0.738397329   12.227136236   12.382897325    9.083717980
    0.745575960   12.215380587   12.370975166    9.075224196
    0.752754591   12.203548729   12.358974590    9.066687002
    0.759933222   12.191641309   12.346896266    9.058106834
    0.767111853   12.179658975   12.334740860    9.049484122
    0.774290484   12.167602371   12.322509039    9.040819292
    0.781469115   12.155472141   12.310201466    9.032112762
    0.788647746   12.143268925   12.297818807    9.023364949
    0.795826377   12.130993363   12.285361721    9.014576261
    0.803005008   12.118646096   12.272830870    9.005747106
    0.810183639   12.106227758   12.260226913    8.996877883
    0.817362270   12.093738988   12.247550508    8.987968989
    0.824540902   12.081180418   12.234802312    8.979020817
    0.831719533   12.068552682   12.221982980    8.970033756
    0.838898164   12.055856411   12.209093167    8.961008191
    0.846076795   12.043092237   12.196133525    8.951944501
    0.853255426   12.030260787   12.183104707    8.942843065
    0.860434057   12.017362690   12.170007363    8.933704257
    0.867612688   12.004398572   12.156842143    8.924528446
    0.874791319   11.991369059   12.143609694    8.915316001
    0.881969950   11.978274774   12.130310663    8.906067286
    0.889148581   11.965116341   12.116945697    8.896782661
    0.896327212   11.951894380   12.103515439    8.887462486
    0.903505843   11.938609512   12.090020533    8.878107116
    0.910684474   11.925262356   12.076461621    8.868716905
    0.917863105   11.911853531   12.062839344    8.859292201
    0.925041736   11.898383652   12.049154341    8.849833354
    0.932220367   11.884853336   12.035407250    8.840340709
    0.939398998   11.871263196   12.021598709    8.830814610
    0.946577629   11.857613846   12.007729353    8.821255396
    0.953756260   11.843905897   11.993799816    8.811663408
    0.960934891   11.830139960   11.979810733    8.802038982
    0.968113523   11.816316644   11.965762733    8.792382453
    0.975292154   11.802436557   11.951656450    8.782694154
    0.982470785   11.788500307   11.937492510    8.772974416
    0.989649416   11.774508498   11.923271542    8.763223569
    0.996828047   11.760461736   11.908994174    8.753441939
    1.004006678   11.746360623   11.894661028    8.743629854
    1.011185309   11.732205761   11.880272731    8.733787637
    1.018363940   11.717997751   11.865829902    8.723915611
    1.025542571   11.703737191   11.851333165    8.714014098
    1.032721202   11.689424679   11.836783137    8.704083417
    1.039899833   11.675060813   11.822180437    8.694123887
    1.047078464   11.660646187   11.807525681    8.684135825
    1.054257095   11.646181394   11.792819485    8.674119547
    1.061435726   11.631667027   11.778062461    8.664075366
    1.068614357   11.617103678   11.763255221    8.654003597
    1.075792988   11.602491935   11.748398376    8.643904552
    1.082971619   11.587832386   11.733492534    8.633778540
    1.090150250   11.573125619   11.718538303    8.623625872
    1.097328881   11.558372218   11.703536288    8.613446856
    1.104507513   11.543572767   11.688487093    8.603241801
    1.111686144   11.528727847   11.673391319    8.593011011
    1.118864775   11.513838040   11.658249568    8.582754793
    1.126043406   11.498903923   11.643062438    8.572473450
    1.133222037   11.483926076   11.627830525    8.562167286
    1.140400668   11.468905072   11.612554426    8.551836604
    1.147579299   11.453841487   11.597234734    8.541481705
    1.154757930   11.438735893   11.581872039    8.531102888
    1.161936561   11.423588860   11.566466933    8.520700454
    1.169115192   11.408400958   11.551020003    8.510274701
    1.176293823   11.393172753   11.535531835    8.499825926
    1.183472454   11.377904812   11.520003013    8.489354427
    1.190651085   11.362597699   11.504434119    8.478860498
    1.197829716   11.347251974   11.488825735    8.468344436
    1.205008347   11.331868199   11.473178437    8.457806534
    1.212186978   11.316446932   11.457492803    8.447247085
    1.219365609   11.300988729   11.441769407    8.436666382
    1.226544240   11.285494146   11.426008821    8.426064715
    1.233722871   11.269963734   11.410211615    8.415442377
    1.240901503   11.254398045   11.394378359    8.404799656
    1.248080134   11.238797627   11.378509617    8.394136841
    1.255258765   11.223163028   11.362605954    8.383454220
    1.262437396   11.207494793   11.346667931    8.372752082
    1.269616027   11.191793463   11.330696109    8.362030711
    1.276794658   11.176059582   11.314691045    8.351290394
    1.283973289   11.160293686   11.298653294    8.340531416
    1.291151920   11.144496313   11.282583410    8.329754059
    1.298330551   11.128667998   11.266481942    8.318958608
    1.305509182   11.112809274   11.250349441    8.308145345
    1.312687813   11.096920670   11.234186452    8.297314550
    1.319866444   11.081002715   11.217993519    8.286466504
    1.327045075   11.065055935   11.201771184    8.275601488
    1.334223706   11.049080855   11.185519986    8.264719779
    1.341402337   11.033077995   11.169240463    8.253821656
    1.348580968   11.017047876   11.152933149    8.242907395
    1.355759599   11.000991015   11.136598576    8.231977273
    1.362938230   10.984907926   11.120237274    8.221031566
    1.370116861   10.968799123   11.103849771    8.210070546
    1.377295492   10.952665116   11.087436592    8.199094489
    1.384474124   10.936506413   11.070998258    8.188103666
    1.391652755   10.920323519   11.054535291    8.177098350
    1.398831386   10.904116939   11.038048208    8.166078811
    1.406010017   10.887887173   11.021537523    8.155045319
    1.413188648   10.871634719   11.005003750    8.143998142
    1.420367279   10.855360075   10.988447399    8.132937550
    1.427545910   10.839063734   10.971868976    8.121863809
    1.434724541   10.822746187   10.955268987    8.110777185
    1.441903172   10.806407924   10.938647934    8.099677943
    1.449081803   10.790049430   10.922006317    8.088566348
    1.456260434   10.773671191   10.905344632    8.077442663
    1.463439065   10.757273686   10.888663375    8.066307151
    1.470617696   10.740857396   10.871963037    8.055160071
    1.477796327   10.724422797   10.855244107    8.044001686
    1.484974958   10.707970363   10.838507072    8.032832254
    1.492153589   10.691500565   10.821752416    8.021652033
    1.499332220   10.675013872   10.804980620    8.010461281
    1.506510851   10.658510751   10.788192162    7.999260254
    1.513689482   10.641991665   10.771387518    7.988049208
    1.520868114   10.625457075   10.754567162    7.976828395
    1.528046745   10.608907440   10.737731563    7.965598071
    1.535225376   10.592343216   10.720881189    7.954358486
    1.542404007   10.575764856   10.704016505    7.943109893
    1.549582638   10.559172811   10.687137974    7.931852540
    1.556761269   10.542567528   10.670246054    7.920586676
    1.563939900   10.525949454   10.653341202    7.909312551
    1.571118531   10.509319031   10.636423872    7.898030409
    1.578297162   10.492676698   10.619494515    7.886740497
    1.585475793   10.476022894   10.602553579    7.875443060
    1.592654424   10.459358053   10.585601510    7.864138340
    1.599833055   10.442682606   10.568638750    7.852826581
    1.607011686   10.425996985   10.551665739    7.841508023
    1.614190317   10.409301614   10.534682914    7.830182906
    1.621368948   10.392596917   10.517690710    7.818851469
    1.628547579   10.375883317   10.500689557    7.807513950
    1.635726210   10.359161231   10.483679884    7.796170585
    1.642904841   10.342431076   10.466662117    7.784821610
    1.650083472   10.325693264   10.449636678    7.773467259
    1.657262104   10.308948205   10.432603988    7.762107766
    1.664440735   10.292196307   10.415564464    7.750743361
    1.671619366   10.275437974   10.398518520    7.739374275
    1.678797997   10.258673610   10.381466568    7.728000739
    1.685976628   10.241903613   10.364409016    7.716622981
    1.693155259   10.225128379   10.347346269    7.705241227
    1.700333890   10.208348302   10.330278732    7.693855703
    1.707512521   10.191563774   10.313206803    7.682466634
    1.714691152   10.174775183   10.296130880    7.671074244
    1.721869783   10.157982914   10.279051358    7.659678754
    1.729048414   10.141187349   10.261968627    7.648280386
    1.736227045   10.124388870   10.244883076    7.636879360
    1.743405676   10.107587852   10.227795091    7.625475893
    1.750584307   10.090784671   10.210705055    7.614070203
    1.757762938   10.073979698   10.193613347    7.602662507
    1.764941569   10.057173302   10.176520345    7.591253018
    1.772120200   10.040365849   10.159426424    7.579841951
    1.779298831   10.023557702   10.142331953    7.568429517
    1.786477462   10.006749223   10.125237303    7.557015928
    1.793656093    9.989940768   10.108142838    7.545601393
    1.800834725    9.973132694   10.091048921    7.534186120
    1.808013356    9.956325352   10.073955913    7.522770318
    1.815191987    9.939519092   10.056864170    7.511354190
    1.822370618    9.922714261   10.039774047    7.499937943
    1.829549249    9.905911202   10.022685895    7.488521779
    1.836727880    9.889110258   10.005600063    7.477105901
    1.843906511    9.872311766    9.988516896    7.465690508
    1.851085142    9.855516062    9.971436737    7.454275801
    1.858263773    9.838723481    9.954359927    7.442861978
    1.865442404    9.821934351    9.937286802    7.431449234
    1.872621035    9.805149000    9.920217697    7.420037767
    1.879799666    9.788367754    9.903152944    7.408627769
    1.886978297    9.771590934    9.886092872    7.397219434
    1.894156928    9.754818861    9.869037806    7.385812954
    1.901335559    9.738051850    9.851988069    7.374408518
    1.908514190    9.721290216    9.834943983    7.363006316
    1.915692821    9.704534269    9.817905864    7.351606535
    1.922871452    9.687784320    9.800874028    7.340209361
    1.930050083    9.671040673    9.783848787    7.328814980
    1.937228715    9.654303631    9.766830449    7.317423575
    1.944407346    9.637573496    9.749819322    7.306035329
    1.951585977    9.620850566    9.732815709    7.294650422
    1.958764608    9.604135135    9.715819912    7.283269035
    1.965943239    9.587427496    9.698832228    7.271891346
    1.973121870    9.570727938    9.681852953    7.260517531
    1.980300501    9.554036750    9.664882381    7.249147767
    1.987479132    9.537354216    9.647920800    7.237782228
    1.994657763    9.520680618    9.630968499    7.226421088
    2.001836394    9.504016235    9.614025762    7.215064518
    2.009015025    9.487361343    9.597092872    7.203712688
    2.016193656    9.470716218    9.580170107    7.192365768
    2.023372287    9.454081131    9.563257745    7.181023926
    2.030550918    9.437456350    9.546356059    7.169687329
    2.037729549    9.420842142    9.529465321    7.158356141
    2.044908180    9.404238771    9.512585799    7.147030526
    2.052086811    9.387646498    9.495717760    7.135710648
    2.059265442    9.371065582    9.478861467    7.124396667
    2.066444073    9.354496278    9.462017181    7.113088743
    2.073622705    9.337938842    9.445185160    7.101787036
    2.080801336    9.321393522    9.428365659    7.090491702
    2.087979967    9.304860569    9.411558932    7.079202899
    2.095158598    9.288340228    9.394765230    7.067920779
    2.102337229    9.271832743    9.377984799    7.056645498
    2.109515860    9.255338354    9.361217886    7.045377207
    2.116694491    9.238857301    9.344464733    7.034116057
    2.123873122    9.222389819    9.327725581    7.022862198
    2.131051753    9.205936143    9.311000667    7.011615778
    2.138230384    9.189496502    9.294290226    7.000376944
    2.145409015    9.173071127    9.277594492    6.989145842
    2.152587646    9.156660243    9.260913693    6.977922616
    2.159766277    9.140264075    9.244248059    6.966707410
    2.166944908    9.123882844    9.227597815    6.955500365
    2.174123539    9.107516768    9.210963182    6.944301623
    2.181302170    9.091166066    9.194344383    6.933111322
    2.188480801    9.074830950    9.177741633    6.921929600
    2.195659432    9.058511634    9.161155150    6.910756595
    2.202838063    9.042208326    9.144585146    6.899592442
    2.210016694    9.025921235    9.128031832    6.888437275
    2.217195326    9.009650565    9.111495415    6.877291227
    2.224373957    8.993396518    9.094976103    6.866154430
    2.231552588    8.977159296    9.078474099    6.855027016
    2.238731219    8.960939095    9.061989604    6.843909112
    2.245909850    8.944736113    9.045522816    6.832800847
    2.253088481    8.928550543    9.029073933    6.821702348
    2.260267112    8.912382575    9.012643148    6.810613741
    2.267445743    8.896232399    8.996230654    6.799535149
    2.274624374    8.880100202    8.979836640    6.788466697
    2.281803005    8.863986168    8.963461294    6.777408505
    2.288981636    8.847890479    8.947104800    6.766360695
    2.296160267    8.831813316    8.930767342    6.755323387
    2.303338898    8.815754857    8.914449100    6.744296697
    2.310517529    8.799715277    8.898150252    6.733280745
    2.317696160    8.783694750    8.881870976    6.722275644
    2.324874791    8.767693448    8.865611443    6.711281511
    2.332053422    8.751711540    8.849371828    6.700298458
    2.339232053    8.735749193    8.833152298    6.689326599
    2.346410684    8.719806572    8.816953022    6.678366043
    2.353589316    8.703883841    8.800774165    6.667416902
    2.360767947    8.687981159    8.784615890    6.656479283
    2.367946578    8.672098687    8.768478358    6.645553294
    2.375125209    8.656236580    8.752361728    6.634639043
    2.382303840    8.640394994    8.736266156    6.623736634
    2.389482471    8.624574082    8.720191798    6.612846171
    2.396661102    8.608773993    8.704138807    6.601967757
    2.403839733    8.592994877    8.688107332    6.591101494
    2.411018364    8.577236880    8.672097522    6.580247484
    2.418196995    8.561500147    8.656109524    6.569405824
    2.425375626    8.545784820    8.640143483    6.558576615
    2.432554257    8.530091041    8.624199541    6.547759953
    2.439732888    8.514418948    8.608277838    6.536955934
    2.446911519    8.498768678    8.592378512    6.526164654
    2.454090150    8.483140366    8.576501702    6.515386207
    2.461268781    8.467534145    8.560647540    6.504620685
    2.468447412    8.451950146    8.544816161    6.493868180
    2.475626043    8.436388498    8.529007693    6.483128783
    2.482804674    8.420849329    8.513222268    6.472402584
    2.489983306    8.405332764    8.497460010    6.461689671
    2.497161937    8.389838927    8.481721046    6.450990132
    2.504340568    8.374367940    8.466005498    6.440304052
    2.511519199    8.358919922    8.450313487    6.429631518
    2.518697830    8.343494992    8.434645134    6.418972614
    2.525876461    8.328093266    8.419000556    6.408327423
    2.533055092    8.312714859    8.403379868    6.397696026
    2.540233723    8.297359884    8.387783185    6.387078506
