# energy grid [eV]     epsr_x  epsr_y  epsr_z
#
    0.200000000   11.099279368   10.421542459    4.200114953
    0.207178631   11.101314975   10.423586262    4.200651915
    0.214357262   11.103423278   10.425703151    4.201208029
    0.221535893   11.105604373   10.427893236    4.201783318
    0.228714524   11.107858358   10.430156625    4.202377806
    0.235893155   11.110185338   10.432493435    4.202991517
    0.243071786   11.112585419   10.434903784    4.203624476
    0.250250417   11.115058711   10.437387794    4.204276711
    0.257429048   11.117605326   10.439945592    4.204948247
    0.264607679   11.120225383   10.442577307    4.205639112
    0.271786311   11.122919000   10.445283074    4.206349336
    0.278964942   11.125686303   10.448063031    4.207078947
    0.286143573   11.128527417   10.450917319    4.207827976
    0.293322204   11.131442474   10.453846085    4.208596454
    0.300500835   11.134431608   10.456849478    4.209384412
    0.307679466   11.137494958   10.459927652    4.210191884
    0.314858097   11.140632664   10.463080765    4.211018903
    0.322036728   11.143844871   10.466308978    4.211865504
    0.329215359   11.147131729   10.469612459    4.212731722
    0.336393990   11.150493389   10.472991376    4.213617593
    0.343572621   11.153930007   10.476445905    4.214523154
    0.350751252   11.157441743   10.479976222    4.215448443
    0.357929883   11.161028760   10.483582511    4.216393499
    0.365108514   11.164691225   10.487264959    4.217358361
    0.372287145   11.168429308   10.491023755    4.218343071
    0.379465776   11.172243185   10.494859096    4.219347669
    0.386644407   11.176133033   10.498771180    4.220372197
    0.393823038   11.180099033   10.502760211    4.221416700
    0.401001669   11.184141373   10.506826398    4.222481220
    0.408180301   11.188260241   10.510969951    4.223565804
    0.415358932   11.192455830   10.515191089    4.224670497
    0.422537563   11.196728339   10.519490032    4.225795345
    0.429716194   11.201077969   10.523867005    4.226940397
    0.436894825   11.205504923   10.528322240    4.228105701
    0.444073456   11.210009412   10.532855969    4.229291307
    0.451252087   11.214591649   10.537468433    4.230497265
    0.458430718   11.219251851   10.542159874    4.231723628
    0.465609349   11.223990238   10.546930543    4.232970446
    0.472787980   11.228807037   10.551780690    4.234237775
    0.479966611   11.233702476   10.556710574    4.235525667
    0.487145242   11.238676788   10.561720457    4.236834179
    0.494323873   11.243730212   10.566810607    4.238163367
    0.501502504   11.248862989   10.571981295    4.239513288
    0.508681135   11.254075365   10.577232798    4.240884000
    0.515859766   11.259367590   10.582565397    4.242275563
    0.523038397   11.264739918   10.587979380    4.243688036
    0.530217028   11.270192609   10.593475038    4.245121483
    0.537395659   11.275725926   10.599052667    4.246575963
    0.544574290   11.281340136   10.604712570    4.248051542
    0.551752922   11.287035511   10.610455052    4.249548283
    0.558931553   11.292812327   10.616280426    4.251066252
    0.566110184   11.298670866   10.622189009    4.252605516
    0.573288815   11.304611412   10.628181124    4.254166141
    0.580467446   11.310634256   10.634257097    4.255748197
    0.587646077   11.316739692   10.640417263    4.257351753
    0.594824708   11.322928020   10.646661959    4.258976881
    0.602003339   11.329199543   10.652991529    4.260623651
    0.609181970   11.335554569   10.659406323    4.262292137
    0.616360601   11.341993413   10.665906696    4.263982414
    0.623539232   11.348516393   10.672493008    4.265694556
    0.630717863   11.355123831   10.679165625    4.267428639
    0.637896494   11.361816055   10.685924920    4.269184742
    0.645075125   11.368593399   10.692771270    4.270962943
    0.652253756   11.375456200   10.699705060    4.272763321
    0.659432387   11.382404800   10.706726677    4.274585959
    0.666611018   11.389439549   10.713836519    4.276430937
    0.673789649   11.396560798   10.721034986    4.278298340
    0.680968280   11.403768907   10.728322487    4.280188252
    0.688146912   11.411064238   10.735699434    4.282100759
    0.695325543   11.418447160   10.743166249    4.284035948
    0.702504174   11.425918048   10.750723357    4.285993907
    0.709682805   11.433477280   10.758371192    4.287974726
    0.716861436   11.441125243   10.766110192    4.289978496
    0.724040067   11.448862325   10.773940804    4.292005309
    0.731218698   11.456688923   10.781863479    4.294055257
    0.738397329   11.464605438   10.789878676    4.296128437
    0.745575960   11.472612278   10.797986862    4.298224943
    0.752754591   11.480709855   10.806188509    4.300344874
    0.759933222   11.488898588   10.814484097    4.302488328
    0.767111853   11.497178902   10.822874111    4.304655405
    0.774290484   11.505551226   10.831359046    4.306846206
    0.781469115   11.514015997   10.839939402    4.309060834
    0.788647746   11.522573658   10.848615687    4.311299394
    0.795826377   11.531224656   10.857388416    4.313561991
    0.803005008   11.539969447   10.866258113    4.315848732
    0.810183639   11.548808491   10.875225307    4.318159726
    0.817362270   11.557742254   10.884290536    4.320495082
    0.824540902   11.566771212   10.893454345    4.322854912
    0.831719533   11.575895843   10.902717289    4.325239329
    0.838898164   11.585116633   10.912079928    4.327648448
    0.846076795   11.594434076   10.921542831    4.330082384
    0.853255426   11.603848672   10.931106576    4.332541254
    0.860434057   11.613360925   10.940771747    4.335025179
    0.867612688   11.622971351   10.950538940    4.337534278
    0.874791319   11.632680468   10.960408757    4.340068673
    0.881969950   11.642488803   10.970381807    4.342628490
    0.889148581   11.652396891   10.980458710    4.345213852
    0.896327212   11.662405273   10.990640095    4.347824887
    0.903505843   11.672514496   11.000926599    4.350461724
    0.910684474   11.682725116   11.011318867    4.353124494
    0.917863105   11.693037697   11.021817555    4.355813328
    0.925041736   11.703452809   11.032423327    4.358528360
    0.932220367   11.713971030   11.043136857    4.361269726
    0.939398998   11.724592945   11.053958828    4.364037564
    0.946577629   11.735319148   11.064889932    4.366832013
    0.953756260   11.746150241   11.075930874    4.369653213
    0.960934891   11.757086831   11.087082364    4.372501307
    0.968113523   11.768129537   11.098345126    4.375376441
    0.975292154   11.779278984   11.109719892    4.378278761
    0.982470785   11.790535806   11.121207406    4.381208415
    0.989649416   11.801900644   11.132808420    4.384165553
    0.996828047   11.813374150   11.144523700    4.387150329
    1.004006678   11.824956981   11.156354020    4.390162896
    1.011185309   11.836649805   11.168300165    4.393203410
    1.018363940   11.848453300   11.180362933    4.396272030
    1.025542571   11.860368150   11.192543132    4.399368917
    1.032721202   11.872395050   11.204841582    4.402494233
    1.039899833   11.884534703   11.217259113    4.405648141
    1.047078464   11.896787822   11.229796570    4.408830810
    1.054257095   11.909155129   11.242454806    4.412042408
    1.061435726   11.921637356   11.255234689    4.415283106
    1.068614357   11.934235244   11.268137098    4.418553076
    1.075792988   11.946949543   11.281162926    4.421852496
    1.082971619   11.959781016   11.294313076    4.425181541
    1.090150250   11.972730432   11.307588466    4.428540393
    1.097328881   11.985798574   11.320990027    4.431929234
    1.104507513   11.998986231   11.334518703    4.435348249
    1.111686144   12.012294207   11.348175450    4.438797624
    1.118864775   12.025723314   11.361961241    4.442277549
    1.126043406   12.039274374   11.375877059    4.445788217
    1.133222037   12.052948222   11.389923905    4.449329822
    1.140400668   12.066745703   11.404102791    4.452902560
    1.147579299   12.080667674   11.418414746    4.456506632
    1.154757930   12.094715002   11.432860813    4.460142240
    1.161936561   12.108888565   11.447442050    4.463809588
    1.169115192   12.123189256   11.462159530    4.467508884
    1.176293823   12.137617977   11.477014343    4.471240339
    1.183472454   12.152175642   11.492007593    4.475004165
    1.190651085   12.166863179   11.507140401    4.478800578
    1.197829716   12.181681527   11.522413905    4.482629797
    1.205008347   12.196631638   11.537829258    4.486492044
    1.212186978   12.211714476   11.553387632    4.490387542
    1.219365609   12.226931020   11.569090215    4.494316519
    1.226544240   12.242282259   11.584938213    4.498279205
    1.233722871   12.257769198   11.600932848    4.502275834
    1.240901503   12.273392855   11.617075363    4.506306643
    1.248080134   12.289154260   11.633367018    4.510371870
    1.255258765   12.305054460   11.649809092    4.514471759
    1.262437396   12.321094513   11.666402882    4.518606556
    1.269616027   12.337275493   11.683149707    4.522776509
    1.276794658   12.353598488   11.700050902    4.526981873
    1.283973289   12.370064602   11.717107826    4.531222902
    1.291151920   12.386674954   11.734321856    4.535499856
    1.298330551   12.403430675   11.751694391    4.539812998
    1.305509182   12.420332916   11.769226850    4.544162594
    1.312687813   12.437382841   11.786920675    4.548548915
    1.319866444   12.454581630   11.804777329    4.552972234
    1.327045075   12.471930482   11.822798299    4.557432829
    1.334223706   12.489430609   11.840985092    4.561930980
    1.341402337   12.507083242   11.859339240    4.566466973
    1.348580968   12.524889627   11.877862299    4.571041096
    1.355759599   12.542851031   11.896555849    4.575653643
    1.362938230   12.560968735   11.915421493    4.580304910
    1.370116861   12.579244039   11.934460862    4.584995197
    1.377295492   12.597678262   11.953675608    4.589724811
    1.384474124   12.616272740   11.973067414    4.594494059
    1.391652755   12.635028830   11.992637986    4.599303257
    1.398831386   12.653947906   12.012389058    4.604152720
    1.406010017   12.673031362   12.032322392    4.609042772
    1.413188648   12.692280613   12.052439778    4.613973739
    1.420367279   12.711697092   12.072743034    4.618945953
    1.427545910   12.731282254   12.093234007    4.623959750
    1.434724541   12.751037575   12.113914575    4.629015469
    1.441903172   12.770964551   12.134786646    4.634113457
    1.449081803   12.791064699   12.155852156    4.639254064
    1.456260434   12.811339556   12.177113073    4.644437644
    1.463439065   12.831790675   12.198571386    4.649664556
    1.470617696   12.852419626   12.220229112    4.654935161
    1.477796327   12.873228039   12.242088346    4.660249835
    1.484974958   12.894217572   12.264151231    4.665608961
    1.492153589   12.915389871   12.286419888    4.671012918
    1.499332220   12.936746602   12.308896477    4.676462089
    1.506510851   12.958289466   12.331583202    4.681956867
    1.513689482   12.980020190   12.354482309    4.687497649
    1.520868114   13.001940530   12.377596082    4.693084839
    1.528046745   13.024052265   12.400926843    4.698718847
    1.535225376   13.046357203   12.424476957    4.704400089
    1.542404007   13.068857176   12.448248826    4.710128986
    1.549582638   13.091554046   12.472244893    4.715905967
    1.556761269   13.114449703   12.496467646    4.721731466
    1.563939900   13.137546063   12.520919614    4.727605924
    1.571118531   13.160845074   12.545603369    4.733529788
    1.578297162   13.184348711   12.570521530    4.739503513
    1.585475793   13.208058980   12.595676761    4.745527558
    1.592654424   13.231977918   12.621071773    4.751602393
    1.599833055   13.256107592   12.646709325    4.757728491
    1.607011686   13.280450104   12.672592224    4.763906335
    1.614190317   13.305007584   12.698723330    4.770136415
    1.621368948   13.329782198   12.725105551    4.776419227
    1.628547579   13.354776144   12.751741850    4.782755275
    1.635726210   13.379991656   12.778635243    4.789145072
    1.642904841   13.405431002   12.805788799    4.795589138
    1.650083472   13.431096485   12.833205647    4.802088001
    1.657262104   13.456990446   12.860888970    4.808642197
    1.664440735   13.483115260   12.888842011    4.815252272
    1.671619366   13.509473345   12.917068075    4.821918778
    1.678797997   13.536067151   12.945570527    4.828642278
    1.685976628   13.562899173   12.974352795    4.835423342
    1.693155259   13.589971943   13.003418372    4.842262551
    1.700333890   13.617288035   13.032770819    4.849160493
    1.707512521   13.644850063   13.062413762    4.856117768
    1.714691152   13.672660687   13.092350898    4.863134984
    1.721869783   13.700722607   13.122585997    4.870212758
    1.729048414   13.729038569   13.153122900    4.877351719
    1.736227045   13.757611364   13.183965523    4.884552507
    1.743405676   13.786443830   13.215117859    4.891815769
    1.750584307   13.815538850   13.246583981    4.899142166
    1.757762938   13.844899357   13.278368041    4.906532367
    1.764941569   13.874528329   13.310474274    4.913987049
    1.772120200   13.904428782   13.342906997    4.921506883
    1.779298831   13.934603767   13.375670602    4.929092526
    1.786477462   13.965056426   13.408769563    4.936744714
    1.793656093   13.995790026   13.442208464    4.944464292
    1.800834725   14.026807815   13.475992055    4.952251994
    1.808013356   14.058113068   13.510125149    4.960108532
    1.815191987   14.089709125   13.544612589    4.968034652
    1.822370618   14.121599394   13.579459338    4.976031132
    1.829549249   14.153787348   13.614670477    4.984098762
    1.836727880   14.186276520   13.650251199    4.992238349
    1.843906511   14.219070507   13.686206806    5.000450713
    1.851085142   14.252172969   13.722542717    5.008736689
    1.858263773   14.285587631   13.759264467    5.017097127
    1.865442404   14.319318284   13.796377710    5.025532890
    1.872621035   14.353368786   13.833888223    5.034044859
    1.879799666   14.387743067   13.871801912    5.042633927
    1.886978297   14.422445125   13.910124812    5.051301007
    1.894156928   14.457479029   13.948863091    5.060047026
    1.901335559   14.492848918   13.988023053    5.068872927
    1.908514190   14.528559019   14.027611149    5.077779674
    1.915692821   14.564613648   14.067633991    5.086768243
    1.922871452   14.601017186   14.108098326    5.095839633
    1.930050083   14.637774088   14.149011054    5.104994859
    1.937228715   14.674888897   14.190379238    5.114234955
    1.944407346   14.712366243   14.232210107    5.123560976
    1.951585977   14.750210845   14.274511061    5.132973993
    1.958764608   14.788427508   14.317289675    5.142475101
    1.965943239   14.827021121   14.360553704    5.152065411
    1.973121870   14.865996654   14.404311087    5.161746056
    1.980300501   14.905359216   14.448569964    5.171518195
    1.987479132   14.945114054   14.493338677    5.181383019
    1.994657763   14.985266448   14.538625767    5.191341729
    2.001836394   15.025821773   14.584439979    5.201395547
    2.009015025   15.066785524   14.630790278    5.211545722
    2.016193656   15.108163310   14.677685836    5.221793528
    2.023372287   15.149960855   14.725136023    5.232140267
    2.030550918   15.192183996   14.773150509    5.242587265
    2.037729549   15.234838688   14.821739370    5.253135874
    2.044908180   15.277931010   14.870912799    5.263787475
    2.052086811   15.321467161   14.920681179    5.274543476
    2.059265442   15.365453470   14.971055205    5.285405314
    2.066444073   15.409896396   15.022045876    5.296374457
    2.073622705   15.454802532   15.073664493    5.307452401
    2.080801336   15.500178609   15.125922663    5.318640675
    2.087979967   15.546031499   15.178832310    5.329940838
    2.095158598   15.592368218   15.232405682    5.341354480
    2.102337229   15.639195924   15.286655353    5.352883215
    2.109515860   15.686521921   15.341594237    5.364528677
    2.116694491   15.734353705   15.397235678    5.376292590
    2.123873122   15.782698954   15.453593447    5.388176746
    2.131051753   15.831565469   15.510681612    5.400182904
    2.138230384   15.880961214   15.568514640    5.412312853
    2.145409015   15.930894340   15.627107442    5.424568437
    2.152587646   15.981373184   15.686475380    5.436951544
    2.159766277   16.032406266   15.746634271    5.449464111
    2.166944908   16.084002295   15.807600401    5.462108113
    2.174123539   16.136170147   15.869390514    5.474885574
    2.181302170   16.188918891   15.932021860    5.487798561
    2.188480801   16.242257917   15.995512403    5.500849191
    2.195659432   16.296196827   16.059880675    5.514039628
    2.202838063   16.350745313   16.125145608    5.527372085
    2.210016694   16.405913424   16.191326752    5.540848834
    2.217195326   16.461711449   16.258444306    5.554472196
    2.224373957   16.518149806   16.326519107    5.568244546
    2.231552588   16.575239183   16.395572738    5.582168315
    2.238731219   16.632990568   16.465627633    5.596245996
    2.245909850   16.691415208   16.536706854    5.610480143
    2.253088481   16.750524621   16.608834192    5.624873368
    2.260267112   16.810330613   16.682034283    5.639428350
    2.267445743   16.870845284   16.756332644    5.654147836
    2.274624374   16.932081038   16.831755690    5.669034641
    2.281803005   16.994050588   16.908330779    5.684091649
    2.288981636   17.056766963   16.986086247    5.699321820
    2.296160267   17.120243504   17.065051441    5.714728190
    2.303338898   17.184493853   17.145256750    5.730313870
    2.310517529   17.249532112   17.226733801    5.746082057
    2.317696160   17.315372901   17.309515559    5.762036029
    2.324874791   17.382031028   17.393636059    5.778179152
    2.332053422   17.449521633   17.479130590    5.794514881
    2.339232053   17.517860284   17.566035858    5.811046765
    2.346410684   17.587062961   17.654390030    5.827778448
    2.353589316   17.657146195   17.744232873    5.844713674
    2.360767947   17.728127049   17.835605817    5.861856293
    2.367946578   17.800022901   17.928551914    5.879210259
    2.375125209   17.872851590   18.023116000    5.896779636
    2.382303840   17.946631491   18.119344831    5.914568598
    2.389482471   18.021381505   18.217287175    5.932581408
    2.396661102   18.097121070   18.316993919    5.950822419
    2.403839733   18.173870212   18.418518211    5.969296216
    2.411018364   18.251649577   18.521915600    5.988007667
    2.418196995   18.330480353   18.627244129    6.006961593
    2.425375626   18.410384290   18.734564469    6.026162884
    2.432554257   18.491383739   18.843940103    6.045616617
    2.439732888   18.573501973   18.955437683    6.065328073
    2.446911519   18.656763178   19.069127205    6.085302721
    2.454090150   18.741191912   19.185081857    6.105546163
    2.461268781   18.826813435   19.303378432    6.126064167
    2.468447412   18.913653881   19.424097661    6.146862695
    2.475626043   19.001740242   19.547324444    6.167947900
    2.482804674   19.091100383   19.673148122    6.189326137
    2.489983306   19.181763068   19.801662785    6.211003966
    2.497161937   19.273757985   19.932967592    6.232988161
    2.504340568   19.367115752   20.067167101    6.255285714
    2.511519199   19.461867915   20.204371624    6.277903833
    2.518697830   19.558047277   20.344697902    6.300850007
    2.525876461   19.655688067   20.488269633    6.324132027
    2.533055092   19.754825286   20.635217462    6.347757886
    2.540233723   19.855495152   20.785680600    6.371735890
