# energy grid [eV]     ieps_x  ieps_y  ieps_z
#
    0.200000000    9.814698943    9.967320773    9.936690639
    0.207178631    9.812355903    9.964956021    9.934308865
    0.214357262    9.809931647    9.962509284    9.931844536
    0.221535893    9.807426320    9.959980706    9.929297799
    0.228714524    9.804840070    9.957370437    9.926668805
    0.235893155    9.802173050    9.954678628    9.923957712
    0.243071786    9.799425420    9.951905439    9.921164679
    0.250250417    9.796597342    9.949051031    9.918289873
    0.257429048    9.793688983    9.946115571    9.915333465
    0.264607679    9.790700515    9.943099232    9.912295629
    0.271786311    9.787632114    9.940002188    9.909176545
    0.278964942    9.784483961    9.936824621    9.905976398
    0.286143573    9.781256242    9.933566716    9.902695376
    0.293322204    9.777949147    9.930228661    9.899333672
    0.300500835    9.774562869    9.926810651    9.895891486
    0.307679466    9.771097608    9.923312885    9.892369018
    0.314858097    9.767553565    9.919735564    9.888766475
    0.322036728    9.763930950    9.916078895    9.885084070
    0.329215359    9.760229972    9.912343091    9.881322017
    0.336393990    9.756450848    9.908528365    9.877480536
    0.343572621    9.752593797    9.904634938    9.873559851
    0.350751252    9.748659045    9.900663034    9.869560191
    0.357929883    9.744646819    9.896612881    9.865481788
    0.365108514    9.740557352    9.892484710    9.861324879
    0.372287145    9.736390881    9.888278758    9.857089706
    0.379465776    9.732147645    9.883995266    9.852776513
    0.386644407    9.727827890    9.879634477    9.848385549
    0.393823038    9.723431864    9.875196640    9.843917068
    0.401001669    9.718959820    9.870682006    9.839371327
    0.408180301    9.714412014    9.866090833    9.834748588
    0.415358932    9.709788707    9.861423380    9.830049114
    0.422537563    9.705090163    9.856679910    9.825273177
    0.429716194    9.700316648    9.851860692    9.820421047
    0.436894825    9.695468437    9.846965997    9.815493003
    0.444073456    9.690545802    9.841996099    9.810489324
    0.451252087    9.685549024    9.836951278    9.805410296
    0.458430718    9.680478386    9.831831816    9.800256205
    0.465609349    9.675334173    9.826637998    9.795027343
    0.472787980    9.670116675    9.821370115    9.789724006
    0.479966611    9.664826186    9.816028460    9.784346493
    0.487145242    9.659463002    9.810613328    9.778895105
    0.494323873    9.654027423    9.805125020    9.773370148
    0.501502504    9.648519753    9.799563840    9.767771932
    0.508681135    9.642940299    9.793930093    9.762100769
    0.515859766    9.637289371    9.788224089    9.756356975
    0.523038397    9.631567283    9.782446143    9.750540869
    0.530217028    9.625774350    9.776596570    9.744652774
    0.537395659    9.619910893    9.770675690    9.738693015
    0.544574290    9.613977234    9.764683825    9.732661922
    0.551752922    9.607973700    9.758621302    9.726559826
    0.558931553    9.601900619    9.752488449    9.720387062
    0.566110184    9.595758323    9.746285598    9.714143968
    0.573288815    9.589547148    9.740013085    9.707830886
    0.580467446    9.583267430    9.733671245    9.701448160
    0.587646077    9.576919511    9.727260421    9.694996135
    0.594824708    9.570503733    9.720780955    9.688475163
    0.602003339    9.564020443    9.714233194    9.681885595
    0.609181970    9.557469990    9.707617486    9.675227786
    0.616360601    9.550852725    9.700934183    9.668502096
    0.623539232    9.544169001    9.694183638    9.661708884
    0.630717863    9.537419177    9.687366210    9.654848513
    0.637896494    9.530603610    9.680482256    9.647921349
    0.645075125    9.523722663    9.673532139    9.640927761
    0.652253756    9.516776699    9.666516222    9.633868119
    0.659432387    9.509766085    9.659434873    9.626742797
    0.666611018    9.502691189    9.652288460    9.619552169
    0.673789649    9.495552382    9.645077355    9.612296614
    0.680968280    9.488350038    9.637801930    9.604976512
    0.688146912    9.481084532    9.630462562    9.597592244
    0.695325543    9.473756242    9.623059628    9.590144197
    0.702504174    9.466365546    9.615593508    9.582632755
    0.709682805    9.458912827    9.608064585    9.575058308
    0.716861436    9.451398468    9.600473242    9.567421246
    0.724040067    9.443822855    9.592819865    9.559721962
    0.731218698    9.436186376    9.585104842    9.551960850
    0.738397329    9.428489418    9.577328563    9.544138307
    0.745575960    9.420732374    9.569491419    9.536254732
    0.752754591    9.412915637    9.561593804    9.528310524
    0.759933222    9.405039601    9.553636113    9.520306085
    0.767111853    9.397104661    9.545618743    9.512241818
    0.774290484    9.389111217    9.537542092    9.504118129
    0.781469115    9.381059667    9.529406560    9.495935423
    0.788647746    9.372950412    9.521212549    9.487694111
    0.795826377    9.364783854    9.512960462    9.479394600
    0.803005008    9.356560398    9.504650703    9.471037303
    0.810183639    9.348280448    9.496283678    9.462622631
    0.817362270    9.339944411    9.487859795    9.454150999
    0.824540902    9.331552695    9.479379462    9.445622822
    0.831719533    9.323105708    9.470843089    9.437038516
    0.838898164    9.314603861    9.462251087    9.428398499
    0.846076795    9.306047565    9.453603868    9.419703190
    0.853255426    9.297437233    9.444901847    9.410953008
    0.860434057    9.288773278    9.436145436    9.402148375
    0.867612688    9.280056113    9.427335052    9.393289712
    0.874791319    9.271286156    9.418471112    9.384377443
    0.881969950    9.262463822    9.409554033    9.375411992
    0.889148581    9.253589528    9.400584232    9.366393782
    0.896327212    9.244663693    9.391562130    9.357323241
    0.903505843    9.235686735    9.382488146    9.348200793
    0.910684474    9.226659074    9.373362702    9.339026867
    0.917863105    9.217581129    9.364186218    9.329801891
    0.925041736    9.208453323    9.354959118    9.320526291
    0.932220367    9.199276076    9.345681823    9.311200499
    0.939398998    9.190049811    9.336354758    9.301824943
    0.946577629    9.180774949    9.326978346    9.292400054
    0.953756260    9.171451915    9.317553012    9.282926262
    0.960934891    9.162081131    9.308079182    9.273403999
    0.968113523    9.152663022    9.298557279    9.263833696
    0.975292154    9.143198012    9.288987731    9.254215785
    0.982470785    9.133686525    9.279370964    9.244550698
    0.989649416    9.124128987    9.269707404    9.234838867
    0.996828047    9.114525821    9.259997477    9.225080726
    1.004006678    9.104877454    9.250241611    9.215276707
    1.011185309    9.095184311    9.240440233    9.205427243
    1.018363940    9.085446818    9.230593771    9.195532767
    1.025542571    9.075665399    9.220702651    9.185593713
    1.032721202    9.065840481    9.210767301    9.175610513
    1.039899833    9.055972489    9.200788149    9.165583602
    1.047078464    9.046061848    9.190765622    9.155513411
    1.054257095    9.036108985    9.180700147    9.145400374
    1.061435726    9.026114324    9.170592153    9.135244924
    1.068614357    9.016078291    9.160442066    9.125047494
    1.075792988    9.006001311    9.150250314    9.114808516
    1.082971619    8.995883808    9.140017322    9.104528422
    1.090150250    8.985726207    9.129743519    9.094207645
    1.097328881    8.975528932    9.119429330    9.083846617
    1.104507513    8.965292407    9.109075181    9.073445767
    1.111686144    8.955017055    9.098681498    9.063005529
    1.118864775    8.944703299    9.088248707    9.052526331
    1.126043406    8.934351562    9.077777232    9.042008604
    1.133222037    8.923962266    9.067267498    9.031452778
    1.140400668    8.913535833    9.056719929    9.020859282
    1.147579299    8.903072683    9.046134949    9.010228543
    1.154757930    8.892573238    9.035512980    8.999560991
    1.161936561    8.882037916    9.024854444    8.988857052
    1.169115192    8.871467138    9.014159764    8.978117153
    1.176293823    8.860861321    9.003429361    8.967341719
    1.183472454    8.850220884    8.992663655    8.956531176
    1.190651085    8.839546243    8.981863066    8.945685948
    1.197829716    8.828837815    8.971028013    8.934806460
    1.205008347    8.818096015    8.960158914    8.923893132
    1.212186978    8.807321258    8.949256186    8.912946389
    1.219365609    8.796513958    8.938320247    8.901966649
    1.226544240    8.785674528    8.927351511    8.890954335
    1.233722871    8.774803380    8.916350395    8.879909864
    1.240901503    8.763900924    8.905317311    8.868833655
    1.248080134    8.752967571    8.894252673    8.857726126
    1.255258765    8.742003730    8.883156893    8.846587692
    1.262437396    8.731009810    8.872030382    8.835418769
    1.269616027    8.719986216    8.860873549    8.824219771
    1.276794658    8.708933355    8.849686805    8.812991110
    1.283973289    8.697851632    8.838470557    8.801733199
    1.291151920    8.686741450    8.827225211    8.790446448
    1.298330551    8.675603212    8.815951174    8.779131267
    1.305509182    8.664437319    8.804648849    8.767788063
    1.312687813    8.653244172    8.793318641    8.756417245
    1.319866444    8.642024169    8.781960951    8.745019217
    1.327045075    8.630777708    8.770576181    8.733594385
    1.334223706    8.619505186    8.759164729    8.722143151
    1.341402337    8.608206997    8.747726995    8.710665918
    1.348580968    8.596883535    8.736263376    8.699163085
    1.355759599    8.585535193    8.724774267    8.687635053
    1.362938230    8.574162362    8.713260062    8.676082218
    1.370116861    8.562765431    8.701721156    8.664504978
    1.377295492    8.551344789    8.690157940    8.652903726
    1.384474124    8.539900822    8.678570803    8.641278858
    1.391652755    8.528433916    8.666960135    8.629630763
    1.398831386    8.516944455    8.655326324    8.617959834
    1.406010017    8.505432822    8.643669756    8.606266459
    1.413188648    8.493899396    8.631990814    8.594551025
    1.420367279    8.482344559    8.620289882    8.582813918
    1.427545910    8.470768687    8.608567342    8.571055524
    1.434724541    8.459172157    8.596823574    8.559276223
    1.441903172    8.447555344    8.585058956    8.547476398
    1.449081803    8.435918621    8.573273865    8.535656428
    1.456260434    8.424262359    8.561468676    8.523816691
    1.463439065    8.412586929    8.549643763    8.511957563
    1.470617696    8.400892699    8.537799498    8.500079419
    1.477796327    8.389180035    8.525936252    8.488182631
    1.484974958    8.377449303    8.514054394    8.476267571
    1.492153589    8.365700866    8.502154290    8.464334608
    1.499332220    8.353935086    8.490236306    8.452384109
    1.506510851    8.342152322    8.478300806    8.440416441
    1.513689482    8.330352933    8.466348152    8.428431969
    1.520868114    8.318537274    8.454378704    8.416431054
    1.528046745    8.306705702    8.442392822    8.404414056
    1.535225376    8.294858569    8.430390861    8.392381336
    1.542404007    8.282996226    8.418373178    8.380333250
    1.549582638    8.271119023    8.406340125    8.368270153
    1.556761269    8.259227306    8.394292054    8.356192399
    1.563939900    8.247321423    8.382229315    8.344100338
    1.571118531    8.235401717    8.370152257    8.331994322
    1.578297162    8.223468530    8.358061224    8.319874698
    1.585475793    8.211522203    8.345956562    8.307741811
    1.592654424    8.199563074    8.333838614    8.295596006
    1.599833055    8.187591479    8.321707719    8.283437625
    1.607011686    8.175607754    8.309564218    8.271267009
    1.614190317    8.163612232    8.297408446    8.259084495
    1.621368948    8.151605243    8.285240739    8.246890421
    1.628547579    8.139587117    8.273061431    8.234685120
    1.635726210    8.127558181    8.260870852    8.222468926
    1.642904841    8.115518761    8.248669333    8.210242169
    1.650083472    8.103469179    8.236457201    8.198005178
    1.657262104    8.091409758    8.224234781    8.185758280
    1.664440735    8.079340816    8.212002397    8.173501799
    1.671619366    8.067262673    8.199760372    8.161236059
    1.678797997    8.055175642    8.187509025    8.148961379
    1.685976628    8.043080039    8.175248674    8.136678080
    1.693155259    8.030976176    8.162979635    8.124386478
    1.700333890    8.018864361    8.150702223    8.112086888
    1.707512521    8.006744903    8.138416750    8.099779623
    1.714691152    7.994618109    8.126123525    8.087464994
    1.721869783    7.982484281    8.113822858    8.075143309
    1.729048414    7.970343723    8.101515054    8.062814877
    1.736227045    7.958196735    8.089200418    8.050480001
    1.743405676    7.946043613    8.076879252    8.038138985
    1.750584307    7.933884656    8.064551857    8.025792129
    1.757762938    7.921720156    8.052218532    8.013439733
    1.764941569    7.909550407    8.039879571    8.001082093
    1.772120200    7.897375697    8.027535271    7.988719505
    1.779298831    7.885196317    8.015185924    7.976352260
    1.786477462    7.873012551    8.002831819    7.963980650
    1.793656093    7.860824684    7.990473247    7.951604964
    1.800834725    7.848632999    7.978110492    7.939225488
    1.808013356    7.836437775    7.965743841    7.926842507
    1.815191987    7.824239291    7.953373574    7.914456304
    1.822370618    7.812037824    7.940999974    7.902067160
    1.829549249    7.799833647    7.928623318    7.889675352
    1.836727880    7.787627033    7.916243883    7.877281158
    1.843906511    7.775418252    7.903861944    7.864884852
    1.851085142    7.763207572    7.891477774    7.852486706
    1.858263773    7.750995261    7.879091642    7.840086992
    1.865442404    7.738781582    7.866703818    7.827685978
    1.872621035    7.726566797    7.854314567    7.815283929
    1.879799666    7.714351168    7.841924156    7.802881111
    1.886978297    7.702134951    7.829532846    7.790477786
    1.894156928    7.689918405    7.817140898    7.778074214
    1.901335559    7.677701782    7.804748571    7.765670654
    1.908514190    7.665485336    7.792356122    7.753267361
    1.915692821    7.653269318    7.779963804    7.740864591
    1.922871452    7.641053974    7.767571871    7.728462595
    1.930050083    7.628839553    7.755180574    7.716061624
    1.937228715    7.616626298    7.742790161    7.703661926
    1.944407346    7.604414452    7.730400879    7.691263748
    1.951585977    7.592204256    7.718012973    7.678867332
    1.958764608    7.579995948    7.705626686    7.666472923
    1.965943239    7.567789765    7.693242258    7.654080759
    1.973121870    7.555585942    7.680859929    7.641691080
    1.980300501    7.543384711    7.668479935    7.629304121
    1.987479132    7.531186303    7.656102511    7.616920118
    1.994657763    7.518990947    7.643727891    7.604539301
    2.001836394    7.506798870    7.631356305    7.592161902
    2.009015025    7.494610297    7.618987983    7.579788148
    2.016193656    7.482425451    7.606623151    7.567418267
    2.023372287    7.470244552    7.594262036    7.555052482
    2.030550918    7.458067821    7.581904860    7.542691016
    2.037729549    7.445895475    7.569551845    7.530334090
    2.044908180    7.433727728    7.557203209    7.517981921
    2.052086811    7.421564795    7.544859172    7.505634728
    2.059265442    7.409406886    7.532519948    7.493292724
    2.066444073    7.397254212    7.520185751    7.480956121
    2.073622705    7.385106980    7.507856792    7.468625132
    2.080801336    7.372965396    7.495533283    7.456299964
    2.087979967    7.360829664    7.483215431    7.443980826
    2.095158598    7.348699986    7.470903441    7.431667921
    2.102337229    7.336576563    7.458597519    7.419361453
    2.109515860    7.324459592    7.446297866    7.407061623
    2.116694491    7.312349271    7.434004683    7.394768630
    2.123873122    7.300245793    7.421718169    7.382482673
    2.131051753    7.288149352    7.409438521    7.370203946
    2.138230384    7.276060139    7.397165933    7.357932644
    2.145409015    7.263978343    7.384900599    7.345668958
    2.152587646    7.251904151    7.372642709    7.333413078
    2.159766277    7.239837749    7.360392454    7.321165193
    2.166944908    7.227779320    7.348150021    7.308925488
    2.174123539    7.215729046    7.335915595    7.296694149
    2.181302170    7.203687108    7.323689361    7.284471357
    2.188480801    7.191653683    7.311471501    7.272257295
    2.195659432    7.179628948    7.299262195    7.260052139
    2.202838063    7.167613079    7.287061621    7.247856069
    2.210016694    7.155606247    7.274869957    7.235669259
    2.217195326    7.143608625    7.262687378    7.223491883
    2.224373957    7.131620381    7.250514056    7.211324113
    2.231552588    7.119641683    7.238350164    7.199166118
    2.238731219    7.107672697    7.226195870    7.187018068
    2.245909850    7.095713589    7.214051344    7.174880128
    2.253088481    7.083764519    7.201916751    7.162752463
    2.260267112    7.071825649    7.189792255    7.150635237
    2.267445743    7.059897138    7.177678020    7.138528611
    2.274624374    7.047979143    7.165574206    7.126432744
    2.281803005    7.036071820    7.153480974    7.114347794
    2.288981636    7.024175324    7.141398480    7.102273917
    2.296160267    7.012289806    7.129326881    7.090211268
    2.303338898    7.000415417    7.117266330    7.078159999
    2.310517529    6.988552306    7.105216982    7.066120261
    2.317696160    6.976700621    7.093178985    7.054092205
    2.324874791    6.964860507    7.081152491    7.042075977
    2.332053422    6.953032109    7.069137646    7.030071723
    2.339232053    6.941215569    7.057134596    7.018079588
    2.346410684    6.929411027    7.045143486    7.006099715
    2.353589316    6.917618624    7.033164459    6.994132245
    2.360767947    6.905838496    7.021197655    6.982177316
    2.367946578    6.894070780    7.009243215    6.970235068
    2.375125209    6.882315610    6.997301276    6.958305636
    2.382303840    6.870573120    6.985371974    6.946389156
    2.389482471    6.858843440    6.973455444    6.934485759
    2.396661102    6.847126701    6.961551820    6.922595577
    2.403839733    6.835423030    6.949661232    6.910718741
    2.411018364    6.823732555    6.937783812    6.898855379
    2.418196995    6.812055400    6.925919687    6.887005618
    2.425375626    6.800391689    6.914068985    6.875169582
    2.432554257    6.788741545    6.902231830    6.863347395
    2.439732888    6.777105087    6.890408348    6.851539180
    2.446911519    6.765482436    6.878598659    6.839745058
    2.454090150    6.753873709    6.866802886    6.827965147
    2.461268781    6.742279022    6.855021147    6.816199565
    2.468447412    6.730698490    6.843253560    6.804448428
    2.475626043    6.719132225    6.831500243    6.792711851
    2.482804674    6.707580341    6.819761309    6.780989948
    2.489983306    6.696042947    6.808036872    6.769282829
    2.497161937    6.684520152    6.796327045    6.757590605
    2.504340568    6.673012064    6.784631938    6.745913385
    2.511519199    6.661518788    6.772951660    6.734251277
    2.518697830    6.650040431    6.761286318    6.722604386
    2.525876461    6.638577094    6.749636020    6.710972817
    2.533055092    6.627128880    6.738000871    6.699356672
    2.540233723    6.615695890    6.726380972    6.687756055
