# energy grid [eV]     ieps_x  ieps_y  ieps_z
#
    0.200000000    8.399507952    5.636312054    7.176652790
    0.207178631    8.397796984    5.635330287    7.175238670
    0.214357262    8.396026554    5.634314359    7.173775413
    0.221535893    8.394196753    5.633264314    7.172263094
    0.228714524    8.392307672    5.632180202    7.170701790
    0.235893155    8.390359408    5.631062074    7.169091581
    0.243071786    8.388352058    5.629909979    7.167432549
    0.250250417    8.386285723    5.628723972    7.165724778
    0.257429048    8.384160508    5.627504107    7.163968356
    0.264607679    8.381976519    5.626250441    7.162163372
    0.271786311    8.379733867    5.624963030    7.160309917
    0.278964942    8.377432663    5.623641933    7.158408085
    0.286143573    8.375073023    5.622287213    7.156457973
    0.293322204    8.372655065    5.620898929    7.154459679
    0.300500835    8.370178910    5.619477147    7.152413305
    0.307679466    8.367644683    5.618021930    7.150318954
    0.314858097    8.365052509    5.616533346    7.148176731
    0.322036728    8.362402517    5.615011462    7.145986744
    0.329215359    8.359694840    5.613456348    7.143749104
    0.336393990    8.356929613    5.611868075    7.141463923
    0.343572621    8.354106972    5.610246714    7.139131315
    0.350751252    8.351227058    5.608592339    7.136751398
    0.357929883    8.348290013    5.606905026    7.134324291
    0.365108514    8.345295983    5.605184850    7.131850115
    0.372287145    8.342245116    5.603431890    7.129328993
    0.379465776    8.339137562    5.601646225    7.126761051
    0.386644407    8.335973475    5.599827935    7.124146417
    0.393823038    8.332753010    5.597977103    7.121485221
    0.401001669    8.329476325    5.596093811    7.118777595
    0.408180301    8.326143581    5.594178144    7.116023672
    0.415358932    8.322754941    5.592230189    7.113223590
    0.422537563    8.319310571    5.590250033    7.110377486
    0.429716194    8.315810640    5.588237763    7.107485501
    0.436894825    8.312255317    5.586193471    7.104547777
    0.444073456    8.308644777    5.584117248    7.101564458
    0.451252087    8.304979194    5.582009185    7.098535690
    0.458430718    8.301258746    5.579869377    7.095461623
    0.465609349    8.297483614    5.577697919    7.092342405
    0.472787980    8.293653979    5.575494907    7.089178190
    0.479966611    8.289770027    5.573260439    7.085969132
    0.487145242    8.285831945    5.570994613    7.082715385
    0.494323873    8.281839923    5.568697530    7.079417109
    0.501502504    8.277794151    5.566369290    7.076074463
    0.508681135    8.273694824    5.564009996    7.072687607
    0.515859766    8.269542137    5.561619752    7.069256707
    0.523038397    8.265336290    5.559198663    7.065781927
    0.530217028    8.261077481    5.556746834    7.062263433
    0.537395659    8.256765914    5.554264372    7.058701395
    0.544574290    8.252401794    5.551751386    7.055095982
    0.551752922    8.247985326    5.549207986    7.051447367
    0.558931553    8.243516720    5.546634281    7.047755724
    0.566110184    8.238996187    5.544030383    7.044021229
    0.573288815    8.234423938    5.541396405    7.040244057
    0.580467446    8.229800189    5.538732460    7.036424388
    0.587646077    8.225125156    5.536038664    7.032562403
    0.594824708    8.220399059    5.533315133    7.028658283
    0.602003339    8.215622116    5.530561982    7.024712212
    0.609181970    8.210794552    5.527779331    7.020724374
    0.616360601    8.205916589    5.524967298    7.016694957
    0.623539232    8.200988454    5.522126003    7.012624148
    0.630717863    8.196010375    5.519255568    7.008512138
    0.637896494    8.190982581    5.516356113    7.004359115
    0.645075125    8.185905304    5.513427762    7.000165275
    0.652253756    8.180778776    5.510470640    6.995930809
    0.659432387    8.175603233    5.507484870    6.991655914
    0.666611018    8.170378911    5.504470578    6.987340785
    0.673789649    8.165106047    5.501427892    6.982985621
    0.680968280    8.159784883    5.498356938    6.978590622
    0.688146912    8.154415657    5.495257846    6.974155986
    0.695325543    8.148998615    5.492130744    6.969681917
    0.702504174    8.143533999    5.488975762    6.965168618
    0.709682805    8.138022057    5.485793033    6.960616292
    0.716861436    8.132463034    5.482582687    6.956025145
    0.724040067    8.126857180    5.479344857    6.951395384
    0.731218698    8.121204745    5.476079678    6.946727217
    0.738397329    8.115505982    5.472787282    6.942020852
    0.745575960    8.109761141    5.469467806    6.937276500
    0.752754591    8.103970479    5.466121385    6.932494372
    0.759933222    8.098134251    5.462748156    6.927674680
    0.767111853    8.092252713    5.459348255    6.922817638
    0.774290484    8.086326124    5.455921823    6.917923459
    0.781469115    8.080354743    5.452468996    6.912992359
    0.788647746    8.074338832    5.448989915    6.908024555
    0.795826377    8.068278651    5.445484719    6.903020263
    0.803005008    8.062174464    5.441953551    6.897979703
    0.810183639    8.056026534    5.438396550    6.892903092
    0.817362270    8.049835128    5.434813860    6.887790651
    0.824540902    8.043600512    5.431205624    6.882642601
    0.831719533    8.037322952    5.427571984    6.877459164
    0.838898164    8.031002718    5.423913085    6.872240561
    0.846076795    8.024640078    5.420229071    6.866987017
    0.853255426    8.018235303    5.416520089    6.861698756
    0.860434057    8.011788664    5.412786283    6.856376001
    0.867612688    8.005300434    5.409027799    6.851018980
    0.874791319    7.998770886    5.405244786    6.845627918
    0.881969950    7.992200293    5.401437390    6.840203042
    0.889148581    7.985588930    5.397605759    6.834744580
    0.896327212    7.978937073    5.393750042    6.829252760
    0.903505843    7.972244998    5.389870387    6.823727811
    0.910684474    7.965512983    5.385966945    6.818169962
    0.917863105    7.958741305    5.382039864    6.812579444
    0.925041736    7.951930243    5.378089296    6.806956487
    0.932220367    7.945080077    5.374115391    6.801301323
    0.939398998    7.938191085    5.370118300    6.795614183
    0.946577629    7.931263549    5.366098175    6.789895299
    0.953756260    7.924297750    5.362055168    6.784144903
    0.960934891    7.917293969    5.357989431    6.778363230
    0.968113523    7.910252489    5.353901117    6.772550512
    0.975292154    7.903173593    5.349790379    6.766706984
    0.982470785    7.896057563    5.345657371    6.760832879
    0.989649416    7.888904684    5.341502245    6.754928432
    0.996828047    7.881715240    5.337325157    6.748993878
    1.004006678    7.874489515    5.333126261    6.743029454
    1.011185309    7.867227795    5.328905712    6.737035393
    1.018363940    7.859930365    5.324663663    6.731011932
    1.025542571    7.852597510    5.320400272    6.724959308
    1.032721202    7.845229517    5.316115693    6.718877756
    1.039899833    7.837826672    5.311810081    6.712767514
    1.047078464    7.830389262    5.307483593    6.706628817
    1.054257095    7.822917574    5.303136386    6.700461904
    1.061435726    7.815411895    5.298768614    6.694267010
    1.068614357    7.807872512    5.294380436    6.688044374
    1.075792988    7.800299712    5.289972008    6.681794233
    1.082971619    7.792693784    5.285543486    6.675516825
    1.090150250    7.785055016    5.281095027    6.669212386
    1.097328881    7.777383694    5.276626790    6.662881154
    1.104507513    7.769680108    5.272138931    6.656523368
    1.111686144    7.761944546    5.267631608    6.650139265
    1.118864775    7.754177295    5.263104978    6.643729083
    1.126043406    7.746378643    5.258559200    6.637293059
    1.133222037    7.738548879    5.253994430    6.630831431
    1.140400668    7.730688292    5.249410826    6.624344436
    1.147579299    7.722797168    5.244808547    6.617832313
    1.154757930    7.714875797    5.240187751    6.611295299
    1.161936561    7.706924465    5.235548595    6.604733630
    1.169115192    7.698943462    5.230891237    6.598147545
    1.176293823    7.690933074    5.226215836    6.591537280
    1.183472454    7.682893589    5.221522549    6.584903073
    1.190651085    7.674825294    5.216811535    6.578245160
    1.197829716    7.666728478    5.212082951    6.571563777
    1.205008347    7.658603426    5.207336956    6.564859162
    1.212186978    7.650450425    5.202573707    6.558131550
    1.219365609    7.642269763    5.197793363    6.551381177
    1.226544240    7.634061724    5.192996080    6.544608279
    1.233722871    7.625826596    5.188182018    6.537813092
    1.240901503    7.617564663    5.183351333    6.530995850
    1.248080134    7.609276211    5.178504183    6.524156788
    1.255258765    7.600961525    5.173640725    6.517296140
    1.262437396    7.592620889    5.168761118    6.510414142
    1.269616027    7.584254588    5.163865518    6.503511026
    1.276794658    7.575862905    5.158954082    6.496587027
    1.283973289    7.567446124    5.154026967    6.489642377
    1.291151920    7.559004527    5.149084330    6.482677308
    1.298330551    7.550538397    5.144126328    6.475692054
    1.305509182    7.542048017    5.139153117    6.468686846
    1.312687813    7.533533666    5.134164854    6.461661915
    1.319866444    7.524995627    5.129161694    6.454617493
    1.327045075    7.516434180    5.124143794    6.447553810
    1.334223706    7.507849604    5.119111309    6.440471095
    1.341402337    7.499242179    5.114064394    6.433369579
    1.348580968    7.490612184    5.109003206    6.426249491
    1.355759599    7.481959896    5.103927898    6.419111058
    1.362938230    7.473285594    5.098838626    6.411954510
    1.370116861    7.464589554    5.093735544    6.404780073
    1.377295492    7.455872053    5.088618807    6.397587974
    1.384474124    7.447133365    5.083488568    6.390378440
    1.391652755    7.438373766    5.078344981    6.383151696
    1.398831386    7.429593530    5.073188199    6.375907968
    1.406010017    7.420792931    5.068018376    6.368647480
    1.413188648    7.411972242    5.062835665    6.361370456
    1.420367279    7.403131733    5.057640217    6.354077119
    1.427545910    7.394271678    5.052432186    6.346767692
    1.434724541    7.385392346    5.047211722    6.339442397
    1.441903172    7.376494007    5.041978978    6.332101456
    1.449081803    7.367576930    5.036734104    6.324745088
    1.456260434    7.358641384    5.031477252    6.317373515
    1.463439065    7.349687635    5.026208571    6.309986955
    1.470617696    7.340715951    5.020928213    6.302585627
    1.477796327    7.331726596    5.015636326    6.295169749
    1.484974958    7.322719837    5.010333060    6.287739538
    1.492153589    7.313695936    5.005018563    6.280295210
    1.499332220    7.304655157    4.999692986    6.272836982
    1.506510851    7.295597763    4.994356474    6.265365068
    1.513689482    7.286524014    4.989009177    6.257879682
    1.520868114    7.277434171    4.983651242    6.250381038
    1.528046745    7.268328494    4.978282815    6.242869349
    1.535225376    7.259207240    4.972904043    6.235344825
    1.542404007    7.250070669    4.967515072    6.227807680
    1.549582638    7.240919036    4.962116048    6.220258122
    1.556761269    7.231752596    4.956707115    6.212696361
    1.563939900    7.222571606    4.951288418    6.205122606
    1.571118531    7.213376318    4.945860102    6.197537064
    1.578297162    7.204166986    4.940422311    6.189939943
    1.585475793    7.194943861    4.934975187    6.182331449
    1.592654424    7.185707193    4.929518873    6.174711787
    1.599833055    7.176457233    4.924053512    6.167081161
    1.607011686    7.167194230    4.918579246    6.159439775
    1.614190317    7.157918430    4.913096216    6.151787832
    1.621368948    7.148630081    4.907604562    6.144125534
    1.628547579    7.139329428    4.902104426    6.136453081
    1.635726210    7.130016715    4.896595946    6.128770674
    1.642904841    7.120692186    4.891079263    6.121078511
    1.650083472    7.111356084    4.885554515    6.113376792
    1.657262104    7.102008649    4.880021840    6.105665712
    1.664440735    7.092650121    4.874481376    6.097945470
    1.671619366    7.083280741    4.868933261    6.090216259
    1.678797997    7.073900745    4.863377630    6.082478276
    1.685976628    7.064510370    4.857814621    6.074731713
    1.693155259    7.055109852    4.852244368    6.066976763
    1.700333890    7.045699427    4.846667006    6.059213619
    1.707512521    7.036279326    4.841082671    6.051442470
    1.714691152    7.026849782    4.835491496    6.043663507
    1.721869783    7.017411027    4.829893615    6.035876919
    1.729048414    7.007963290    4.824289159    6.028082894
    1.736227045    6.998506801    4.818678262    6.020281618
    1.743405676    6.989041787    4.813061055    6.012473278
    1.750584307    6.979568473    4.807437669    6.004658059
    1.757762938    6.970087087    4.801808235    5.996836145
    1.764941569    6.960597851    4.796172882    5.989007719
    1.772120200    6.951100989    4.790531740    5.981172963
    1.779298831    6.941596723    4.784884938    5.973332059
    1.786477462    6.932085273    4.779232603    5.965485186
    1.793656093    6.922566858    4.773574863    5.957632524
    1.800834725    6.913041696    4.767911845    5.949774251
    1.808013356    6.903510005    4.762243676    5.941910544
    1.815191987    6.893972000    4.756570480    5.934041580
    1.822370618    6.884427896    4.750892384    5.926167533
    1.829549249    6.874877906    4.745209511    5.918288577
    1.836727880    6.865322242    4.739521986    5.910404887
    1.843906511    6.855761114    4.733829932    5.902516634
    1.851085142    6.846194734    4.728133471    5.894623989
    1.858263773    6.836623308    4.722432725    5.886727122
    1.865442404    6.827047044    4.716727816    5.878826203
    1.872621035    6.817466149    4.711018865    5.870921399
    1.879799666    6.807880826    4.705305991    5.863012878
    1.886978297    6.798291279    4.699589314    5.855100806
    1.894156928    6.788697711    4.693868954    5.847185347
    1.901335559    6.779100322    4.688145027    5.839266667
    1.908514190    6.769499312    4.682417652    5.831344927
    1.915692821    6.759894880    4.676686946    5.823420290
    1.922871452    6.750287222    4.670953026    5.815492917
    1.930050083    6.740676535    4.665216005    5.807562967
    1.937228715    6.731063013    4.659476001    5.799630600
    1.944407346    6.721446851    4.653733126    5.791695973
    1.951585977    6.711828239    4.647987496    5.783759243
    1.958764608    6.702207369    4.642239222    5.775820566
    1.965943239    6.692584432    4.636488418    5.767880097
    1.973121870    6.682959614    4.630735195    5.759937990
    1.980300501    6.673333104    4.624979664    5.751994397
    1.987479132    6.663705087    4.619221936    5.744049469
    1.994657763    6.654075748    4.613462120    5.736103358
    2.001836394    6.644445270    4.607700326    5.728156213
    2.009015025    6.634813836    4.601936663    5.720208183
    2.016193656    6.625181627    4.596171237    5.712259415
    2.023372287    6.615548821    4.590404157    5.704310056
    2.030550918    6.605915598    4.584635529    5.696360252
    2.037729549    6.596282134    4.578865458    5.688410145
    2.044908180    6.586648606    4.573094051    5.680459881
    2.052086811    6.577015188    4.567321411    5.672509602
    2.059265442    6.567382054    4.561547642    5.664559448
    2.066444073    6.557749375    4.555772849    5.656609561
    2.073622705    6.548117322    4.549997132    5.648660080
    2.080801336    6.538486065    4.544220595    5.640711142
    2.087979967    6.528855773    4.538443339    5.632762885
    2.095158598    6.519226612    4.532665464    5.624815446
    2.102337229    6.509598748    4.526887069    5.616868960
    2.109515860    6.499972346    4.521108256    5.608923561
    2.116694491    6.490347570    4.515329121    5.600979381
    2.123873122    6.480724581    4.509549763    5.593036554
    2.131051753    6.471103540    4.503770280    5.585095211
    2.138230384    6.461484607    4.497990768    5.577155481
    2.145409015    6.451867940    4.492211323    5.569217495
    2.152587646    6.442253696    4.486432040    5.561281379
    2.159766277    6.432642032    4.480653014    5.553347261
    2.166944908    6.423033103    4.474874339    5.545415268
    2.174123539    6.413427060    4.469096109    5.537485524
    2.181302170    6.403824058    4.463318416    5.529558153
    2.188480801    6.394224246    4.457541352    5.521633279
    2.195659432    6.384627775    4.451765008    5.513711024
    2.202838063    6.375034793    4.445989476    5.505791510
    2.210016694    6.365445447    4.440214846    5.497874855
    2.217195326    6.355859884    4.434441206    5.489961179
    2.224373957    6.346278249    4.428668646    5.482050601
    2.231552588    6.336700685    4.422897254    5.474143238
    2.238731219    6.327127335    4.417127117    5.466239206
    2.245909850    6.317558340    4.411358322    5.458338620
    2.253088481    6.307993841    4.405590955    5.450441594
    2.260267112    6.298433975    4.399825102    5.442548242
    2.267445743    6.288878882    4.394060848    5.434658677
    2.274624374    6.279328697    4.388298277    5.426773008
    2.281803005    6.269783556    4.382537472    5.418891348
    2.288981636    6.260243593    4.376778517    5.411013804
    2.296160267    6.250708941    4.371021494    5.403140487
    2.303338898    6.241179732    4.365266484    5.395271502
    2.310517529    6.231656097    4.359513569    5.387406958
    2.317696160    6.222138164    4.353762829    5.379546959
    2.324874791    6.212626063    4.348014343    5.371691610
    2.332053422    6.203119920    4.342268191    5.363841015
    2.339232053    6.193619862    4.336524452    5.355995276
    2.346410684    6.184126013    4.330783203    5.348154496
    2.353589316    6.174638498    4.325044521    5.340318776
    2.360767947    6.165157437    4.319308483    5.332488214
    2.367946578    6.155682954    4.313575165    5.324662912
    2.375125209    6.146215168    4.307844642    5.316842966
    2.382303840    6.136754199    4.302116989    5.309028473
    2.389482471    6.127300164    4.296392281    5.301219531
    2.396661102    6.117853181    4.290670590    5.293416235
    2.403839733    6.108413364    4.284951990    5.285618678
    2.411018364    6.098980830    4.279236552    5.277826955
    2.418196995    6.089555691    4.273524349    5.270041159
    2.425375626    6.080138059    4.267815451    5.262261380
    2.432554257    6.070728047    4.262109929    5.254487711
    2.439732888    6.061325765    4.256407852    5.246720240
    2.446911519    6.051931321    4.250709290    5.238959058
    2.454090150    6.042544823    4.245014312    5.231204252
    2.461268781    6.033166380    4.239322985    5.223455910
    2.468447412    6.023796095    4.233635376    5.215714118
    2.475626043    6.014434076    4.227951553    5.207978962
    2.482804674    6.005080424    4.222271582    5.200250526
    2.489983306    5.995735243    4.216595527    5.192528895
    2.497161937    5.986398635    4.210923456    5.184814152
    2.504340568    5.977070700    4.205255430    5.177106378
    2.511519199    5.967751537    4.199591515    5.169405655
    2.518697830    5.958441246    4.193931774    5.161712063
    2.525876461    5.949139923    4.188276269    5.154025683
    2.533055092    5.939847665    4.182625063    5.146346592
    2.540233723    5.930564567    4.176978216    5.138674870
