# energy grid [eV]     epsr_x  epsr_y  epsr_z
#
    0.200000000   10.380755272   11.950325488    9.597033657
    0.207178631   10.382773730   11.952704014    9.598717921
    0.214357262   10.384864329   11.955167558    9.600462334
    0.221535893   10.387027171   11.957716243    9.602266974
    0.228714524   10.389262360   11.960350191    9.604131923
    0.235893155   10.391570006   11.963069534    9.606057268
    0.243071786   10.393950220   11.965874403    9.608043096
    0.250250417   10.396403119   11.968764938    9.610089498
    0.257429048   10.398928823   11.971741279    9.612196568
    0.264607679   10.401527453   11.974803574    9.614364402
    0.271786311   10.404199139   11.977951973    9.616593100
    0.278964942   10.406944010   11.981186632    9.618882764
    0.286143573   10.409762200   11.984507709    9.621233501
    0.293322204   10.412653848   11.987915370    9.623645417
    0.300500835   10.415619096   11.991409782    9.626118624
    0.307679466   10.418658088   11.994991120    9.628653236
    0.314858097   10.421770976   11.998659559    9.631249370
    0.322036728   10.424957911   12.002415282    9.633907147
    0.329215359   10.428219051   12.006258476    9.636626689
    0.336393990   10.431554557   12.010189332    9.639408123
    0.343572621   10.434964593   12.014208046    9.642251576
    0.350751252   10.438449328   12.018314817    9.645157183
    0.357929883   10.442008935   12.022509852    9.648125077
    0.365108514   10.445643590   12.026793359    9.651155397
    0.372287145   10.449353473   12.031165553    9.654248284
    0.379465776   10.453138770   12.035626653    9.657403882
    0.386644407   10.456999668   12.040176883    9.660622340
    0.393823038   10.460936359   12.044816472    9.663903808
    0.401001669   10.464949041   12.049545653    9.667248440
    0.408180301   10.469037914   12.054364664    9.670656392
    0.415358932   10.473203182   12.059273749    9.674127826
    0.422537563   10.477445055   12.064273156    9.677662904
    0.429716194   10.481763745   12.069363137    9.681261794
    0.436894825   10.486159469   12.074543952    9.684924665
    0.444073456   10.490632450   12.079815863    9.688651690
    0.451252087   10.495182912   12.085179138    9.692443047
    0.458430718   10.499811085   12.090634050    9.696298916
    0.465609349   10.504517205   12.096180879    9.700219479
    0.472787980   10.509301508   12.101819907    9.704204924
    0.479966611   10.514164239   12.107551423    9.708255440
    0.487145242   10.519105645   12.113375722    9.712371221
    0.494323873   10.524125977   12.119293102    9.716552465
    0.501502504   10.529225492   12.125303869    9.720799371
    0.508681135   10.534404451   12.131408332    9.725112144
    0.515859766   10.539663118   12.137606806    9.729490992
    0.523038397   10.545001765   12.143899613    9.733936125
    0.530217028   10.550420665   12.150287080    9.738447759
    0.537395659   10.555920098   12.156769537    9.743026111
    0.544574290   10.561500348   12.163347323    9.747671405
    0.551752922   10.567161703   12.170020781    9.752383865
    0.558931553   10.572904457   12.176790259    9.757163722
    0.566110184   10.578728908   12.183656113    9.762011208
    0.573288815   10.584635360   12.190618703    9.766926561
    0.580467446   10.590624120   12.197678395    9.771910021
    0.587646077   10.596695502   12.204835561    9.776961834
    0.594824708   10.602849823   12.212090580    9.782082247
    0.602003339   10.609087407   12.219443836    9.787271514
    0.609181970   10.615408582   12.226895718    9.792529891
    0.616360601   10.621813681   12.234446624    9.797857639
    0.623539232   10.628303042   12.242096956    9.803255021
    0.630717863   10.634877010   12.249847123    9.808722307
    0.637896494   10.641535934   12.257697539    9.814259770
    0.645075125   10.648280167   12.265648627    9.819867686
    0.652253756   10.655110069   12.273700813    9.825546337
    0.659432387   10.662026006   12.281854533    9.831296007
    0.666611018   10.669028349   12.290110228    9.837116987
    0.673789649   10.676117473   12.298468345    9.843009570
    0.680968280   10.683293761   12.306929337    9.848974054
    0.688146912   10.690557600   12.315493667    9.855010743
    0.695325543   10.697909383   12.324161803    9.861119943
    0.702504174   10.705349509   12.332934217    9.867301966
    0.709682805   10.712878383   12.341811393    9.873557128
    0.716861436   10.720496416   12.350793820    9.879885750
    0.724040067   10.728204025   12.359881992    9.886288157
    0.731218698   10.736001632   12.369076413    9.892764679
    0.738397329   10.743889667   12.378377594    9.899315651
    0.745575960   10.751868563   12.387786052    9.905941413
    0.752754591   10.759938763   12.397302312    9.912642309
    0.759933222   10.768100715   12.406926906    9.919418689
    0.767111853   10.776354871   12.416660376    9.926270905
    0.774290484   10.784701692   12.426503268    9.933199319
    0.781469115   10.793141646   12.436456139    9.940204294
    0.788647746   10.801675205   12.446519552    9.947286199
    0.795826377   10.810302850   12.456694078    9.954445409
    0.803005008   10.819025068   12.466980298    9.961682304
    0.810183639   10.827842351   12.477378798    9.968997269
    0.817362270   10.836755202   12.487890176    9.976390694
    0.824540902   10.845764127   12.498515034    9.983862976
    0.831719533   10.854869641   12.509253985    9.991414515
    0.838898164   10.864072265   12.520107652    9.999045718
    0.846076795   10.873372529   12.531076663   10.006756998
    0.853255426   10.882770969   12.542161657   10.014548773
    0.860434057   10.892268128   12.553363282   10.022421467
    0.867612688   10.901864558   12.564682194   10.030375510
    0.874791319   10.911560817   12.576119059   10.038411336
    0.881969950   10.921357472   12.587674550   10.046529388
    0.889148581   10.931255097   12.599349353   10.054730113
    0.896327212   10.941254273   12.611144159   10.063013965
    0.903505843   10.951355592   12.623059673   10.071381404
    0.910684474   10.961559651   12.635096607   10.079832895
    0.917863105   10.971867056   12.647255682   10.088368911
    0.925041736   10.982278422   12.659537631   10.096989931
    0.932220367   10.992794372   12.671943197   10.105696440
    0.939398998   11.003415537   12.684473131   10.114488931
    0.946577629   11.014142557   12.697128196   10.123367901
    0.953756260   11.024976080   12.709909166   10.132333855
    0.960934891   11.035916765   12.722816824   10.141387307
    0.968113523   11.046965278   12.735851963   10.150528776
    0.975292154   11.058122295   12.749015390   10.159758786
    0.982470785   11.069388499   12.762307921   10.169077872
    0.989649416   11.080764586   12.775730383   10.178486575
    0.996828047   11.092251258   12.789283614   10.187985441
    1.004006678   11.103849228   12.802968464   10.197575026
    1.011185309   11.115559220   12.816785796   10.207255893
    1.018363940   11.127381966   12.830736482   10.217028612
    1.025542571   11.139318208   12.844821409   10.226893761
    1.032721202   11.151368699   12.859041473   10.236851926
    1.039899833   11.163534202   12.873397584   10.246903701
    1.047078464   11.175815489   12.887890665   10.257049688
    1.054257095   11.188213346   12.902521650   10.267290496
    1.061435726   11.200728565   12.917291487   10.277626744
    1.068614357   11.213361953   12.932201136   10.288059060
    1.075792988   11.226114325   12.947251571   10.298588077
    1.082971619   11.238986509   12.962443780   10.309214441
    1.090150250   11.251979344   12.977778763   10.319938803
    1.097328881   11.265093680   12.993257535   10.330761825
    1.104507513   11.278330378   13.008881123   10.341684179
    1.111686144   11.291690313   13.024650571   10.352706543
    1.118864775   11.305174369   13.040566935   10.363829608
    1.126043406   11.318783445   13.056631287   10.375054072
    1.133222037   11.332518450   13.072844714   10.386380642
    1.140400668   11.346380308   13.089208317   10.397810038
    1.147579299   11.360369954   13.105723212   10.409342988
    1.154757930   11.374488335   13.122390533   10.420980230
    1.161936561   11.388736414   13.139211426   10.432722512
    1.169115192   11.403115164   13.156187056   10.444570594
    1.176293823   11.417625575   13.173318603   10.456525242
    1.183472454   11.432268647   13.190607261   10.468587226
    1.190651085   11.447045389   13.208054235   10.480757293
    1.197829716   11.461956822   13.225660741   10.493036172
    1.205008347   11.477004002   13.243428042   10.505424754
    1.212186978   11.492188007   13.261357437   10.517924028
    1.219365609   11.507509907   13.279450199   10.530534790
    1.226544240   11.522970781   13.297707618   10.543257825
    1.233722871   11.538571733   13.316131010   10.556093972
    1.240901503   11.554313881   13.334721711   10.569044097
    1.248080134   11.570198360   13.353481079   10.582109085
    1.255258765   11.586226322   13.372410491   10.595289832
    1.262437396   11.602398935   13.391511342   10.608587247
    1.269616027   11.618717383   13.410785049   10.622002254
    1.276794658   11.635182869   13.430233049   10.635535787
    1.283973289   11.651796609   13.449856798   10.649188796
    1.291151920   11.668559841   13.469657774   10.662962242
    1.298330551   11.685473816   13.489637476   10.676857095
    1.305509182   11.702539798   13.509797419   10.690874327
    1.312687813   11.719759060   13.530139134   10.705014889
    1.319866444   11.737132908   13.550664183   10.719279792
    1.327045075   11.754662716   13.571374191   10.733670209
    1.334223706   11.772349840   13.592270774   10.748187210
    1.341402337   11.790195626   13.613355554   10.762831805
    1.348580968   11.808201451   13.634630182   10.777605046
    1.355759599   11.826368721   13.656096342   10.792508023
    1.362938230   11.844698861   13.677755741   10.807541846
    1.370116861   11.863193320   13.699610113   10.822707643
    1.377295492   11.881853568   13.721661217   10.838006558
    1.384474124   11.900681094   13.743910839   10.853439753
    1.391652755   11.919677414   13.766360791   10.869008407
    1.398831386   11.938844061   13.789012913   10.884713715
    1.406010017   11.958182591   13.811869068   10.900556892
    1.413188648   11.977694580   13.834931145   10.916539170
    1.420367279   11.997381626   13.858201059   10.932661800
    1.427545910   12.017245377   13.881680784   10.948926052
    1.434724541   12.037287502   13.905372318   10.965333215
    1.441903172   12.057509671   13.929277663   10.981884599
    1.449081803   12.077913582   13.953398857   10.998581532
    1.456260434   12.098500965   13.977737973   11.015425364
    1.463439065   12.119273577   14.002297119   11.032417465
    1.470617696   12.140233201   14.027078434   11.049559226
    1.477796327   12.161381651   14.052084092   11.066852061
    1.484974958   12.182720765   14.077316299   11.084297406
    1.492153589   12.204252412   14.102777298   11.101896717
    1.499332220   12.225978490   14.128469365   11.119651477
    1.506510851   12.247900925   14.154394813   11.137563189
    1.513689482   12.270021675   14.180555991   11.155633381
    1.520868114   12.292342728   14.206955286   11.173863607
    1.528046745   12.314866104   14.233595122   11.192255442
    1.535225376   12.337593853   14.260477963   11.210810492
    1.542404007   12.360528061   14.287606311   11.229530383
    1.549582638   12.383670843   14.314982710   11.248416771
    1.556761269   12.407024353   14.342609745   11.267471339
    1.563939900   12.430590776   14.370490041   11.286695796
    1.571118531   12.454372333   14.398626269   11.306091880
    1.578297162   12.478371283   14.427021142   11.325661357
    1.585475793   12.502589917   14.455677416   11.345406023
    1.592654424   12.527030569   14.484597896   11.365327704
    1.599833055   12.551695609   14.513785431   11.385428256
    1.607011686   12.576587448   14.543242920   11.405709567
    1.614190317   12.601708535   14.572973308   11.426173556
    1.621368948   12.627061357   14.602979589   11.446822176
    1.628547579   12.652648440   14.633264802   11.467657411
    1.635726210   12.678472342   14.663832026   11.488681282
    1.642904841   12.704535673   14.694684406   11.509895841
    1.650083472   12.730841141   14.725825194   11.531303181
    1.657262104   12.757391466   14.757257664   11.552905426
    1.664440735   12.784189382   14.788985111   11.574704740
    1.671619366   12.811237680   14.821010897   11.596703326
    1.678797997   12.838539207   14.853338452   11.618903422
    1.685976628   12.866096860   14.885971267   11.641307311
    1.693155259   12.893913590   14.918912896   11.663917312
    1.700333890   12.921992395   14.952166956   11.686735789
    1.707512521   12.950336329   14.985737126   11.709765148
    1.714691152   12.978948499   15.019627154   11.733007837
    1.721869783   13.007832068   15.053840852   11.756466351
    1.729048414   13.036990252   15.088382102   11.780143229
    1.736227045   13.066426330   15.123254858   11.804041060
    1.743405676   13.096143635   15.158463143   11.828162476
    1.750584307   13.126145564   15.194011056   11.852510164
    1.757762938   13.156435574   15.229902770   11.877086857
    1.764941569   13.187017186   15.266142537   11.901895342
    1.772120200   13.217893984   15.302734687   11.926938458
    1.779298831   13.249069622   15.339683630   11.952219100
    1.786477462   13.280547818   15.376993861   11.977740217
    1.793656093   13.312332363   15.414669960   12.003504816
    1.800834725   13.344427116   15.452716591   12.029515962
    1.808013356   13.376836009   15.491138509   12.055776780
    1.815191987   13.409563038   15.529940553   12.082290450
    1.822370618   13.442612258   15.569127639   12.109060204
    1.829549249   13.475987815   15.608704792   12.136089348
    1.836727880   13.509694038   15.648677212   12.163381317
    1.843906511   13.543735279   15.689050152   12.190939580
    1.851085142   13.578115894   15.729828909   12.218767636
    1.858263773   13.612840337   15.771018888   12.246869066
    1.865442404   13.647913225   15.812625676   12.275247532
    1.872621035   13.683339284   15.854654990   12.303906765
    1.879799666   13.719123264   15.897112589   12.332850579
    1.886978297   13.755270022   15.940004366   12.362082906
    1.894156928   13.791784522   15.983336341   12.391607752
    1.901335559   13.828671825   16.027114652   12.421429182
    1.908514190   13.865937101   16.071345572   12.451551346
    1.915692821   13.903585628   16.116035505   12.481978489
    1.922871452   13.941622792   16.161190990   12.512714953
    1.930050083   13.980054092   16.206818703   12.543765175
    1.937228715   14.018885140   16.252925460   12.575133687
    1.944407346   14.058121675   16.299518235   12.606825133
    1.951585977   14.097769565   16.346604157   12.638844269
    1.958764608   14.137834794   16.394190501   12.671195945
    1.965943239   14.178323471   16.442284694   12.703885119
    1.973121870   14.219241836   16.490894329   12.736916867
    1.980300501   14.260596260   16.540027153   12.770296378
    1.987479132   14.302393230   16.589691059   12.804028951
    1.994657763   14.344639415   16.639894164   12.838120027
    2.001836394   14.387341727   16.690644896   12.872575221
    2.009015025   14.430507154   16.741951766   12.907400242
    2.016193656   14.474142792   16.793823422   12.942600935
    2.023372287   14.518255921   16.846268744   12.978183290
    2.030550918   14.562854000   16.899296824   13.014153436
    2.037729549   14.607944667   16.952916976   13.050517658
    2.044908180   14.653535738   17.007138740   13.087282404
    2.052086811   14.699635217   17.061971884   13.124454286
    2.059265442   14.746251292   17.117426411   13.162040084
    2.066444073   14.793392340   17.173512562   13.200046755
    2.073622705   14.841066914   17.230240820   13.238481433
    2.080801336   14.889283814   17.287621943   13.277351443
    2.087979967   14.938052159   17.345667014   13.316664312
    2.095158598   14.987381207   17.404387348   13.356427758
    2.102337229   15.037280388   17.463794517   13.396649696
    2.109515860   15.087759384   17.523900402   13.437338265
    2.116694491   15.138828151   17.584717201   13.478501869
    2.123873122   15.190496938   17.646257449   13.520149130
    2.131051753   15.242776230   17.708533993   13.562288880
    2.138230384   15.295676738   17.771559991   13.604930212
    2.145409015   15.349209467   17.835348961   13.648082484
    2.152587646   15.403385835   17.899914889   13.691755330
    2.159766277   15.458217534   17.965272115   13.735958667
    2.166944908   15.513716484   18.031435293   13.780702705
    2.174123539   15.569894935   18.098419495   13.825997963
    2.181302170   15.626765478   18.166240215   13.871855276
    2.188480801   15.684341062   18.234913396   13.918285812
    2.195659432   15.742635106   18.304455521   13.965301090
    2.202838063   15.801661394   18.374883540   14.012912984
    2.210016694   15.861434008   18.446214820   14.061133737
    2.217195326   15.921967442   18.518467251   14.109975969
    2.224373957   15.983276646   18.591659279   14.159452723
    2.231552588   16.045377071   18.665809925   14.209577567
    2.238731219   16.108284608   18.740938788   14.260364466
    2.245909850   16.172015596   18.817066065   14.311827793
    2.253088481   16.236586885   18.894212590   14.363982429
    2.260267112   16.302015859   18.972399859   14.416843779
    2.267445743   16.368320448   19.051650058   14.470427789
    2.274624374   16.435519168   19.131986090   14.524750989
    2.281803005   16.503631130   19.213431594   14.579830497
    2.288981636   16.572676040   19.296010933   14.635684017
    2.296160267   16.642674206   19.379749182   14.692329936
    2.303338898   16.713646590   19.464672242   14.749787374
    2.310517529   16.785615136   19.550807591   14.808076149
    2.317696160   16.858602586   19.638183737   14.867216822
    2.324874791   16.932632164   19.726829174   14.927230699
    2.332053422   17.007727913   19.816773311   14.988139923
    2.339232053   17.083914830   19.908047646   15.049967687
    2.346410684   17.161218851   20.000685193   15.112738162
    2.353589316   17.239666834   20.094719164   15.176476345
    2.360767947   17.319286635   20.190183992   15.241208271
    2.367946578   17.400107165   20.287115643   15.306961112
    2.375125209   17.482158455   20.385551571   15.373763240
    2.382303840   17.565471730   20.485530747   15.441644347
    2.389482471   17.650079367   20.587093649   15.510635405
    2.396661102   17.736015002   20.690282384   15.580768739
    2.403839733   17.823313930   20.795141036   15.652078185
    2.411018364   17.912012789   20.901715425   15.724599225
    2.418196995   18.002149280   21.010052999   15.798369024
    2.425375626   18.093763222   21.120203739   15.873426551
    2.432554257   18.186897062   21.232220341   15.949812753
    2.439732888   18.281594037   21.346157178   16.027570541
    2.446911519   18.377898742   21.462070919   16.106744982
    2.454090150   18.475858466   21.580021082   16.187383587
    2.461268781   18.575523772   21.700070193   16.269536545
    2.468447412   18.676946903   21.822283791   16.353256634
    2.475626043   18.780182117   21.946730594   16.438599481
    2.482804674   18.885286427   22.073482705   16.525623887
    2.489983306   18.992319694   22.202615725   16.614392053
    2.497161937   19.101344685   22.334208832   16.704969828
    2.504340568   19.212428192   22.468346053   16.797426987
    2.511519199   19.325642281   22.605118013   16.891837610
    2.518697830   19.441061309   22.744618886   16.988280452
    2.525876461   19.558762885   22.886947206   17.086839250
    2.533055092   19.678829684   23.032208417   17.187603163
    2.540233723   19.801349486   23.180513594   17.290666975
