# energy grid [eV]     ieps_x  ieps_y  ieps_z
#
    0.200000000    6.511691650    7.356788040    5.602166451
    0.207178631    6.510468501    7.355359453    5.601204928
    0.214357262    6.509202818    7.353881195    5.600209951
    0.221535893    6.507894661    7.352353338    5.599181567
    0.228714524    6.506544093    7.350775957    5.598119823
    0.235893155    6.505151181    7.349149129    5.597024769
    0.243071786    6.503715990    7.347472933    5.595896456
    0.250250417    6.502238591    7.345747451    5.594734937
    0.257429048    6.500719055    7.343972767    5.593540264
    0.264607679    6.499157454    7.342148967    5.592312495
    0.271786311    6.497553864    7.340276141    5.591051685
    0.278964942    6.495908362    7.338354378    5.589757893
    0.286143573    6.494221027    7.336383773    5.588431179
    0.293322204    6.492491939    7.334364421    5.587071604
    0.300500835    6.490721183    7.332296420    5.585679231
    0.307679466    6.488908842    7.330179870    5.584254124
    0.314858097    6.487055003    7.328014872    5.582796350
    0.322036728    6.485159754    7.325801533    5.581305974
    0.329215359    6.483223187    7.323539957    5.579783065
    0.336393990    6.481245393    7.321230255    5.578227694
    0.343572621    6.479226466    7.318872537    5.576639932
    0.350751252    6.477166503    7.316466917    5.575019851
    0.357929883    6.475065601    7.314013511    5.573367526
    0.365108514    6.472923860    7.311512434    5.571683032
    0.372287145    6.470741381    7.308963809    5.569966445
    0.379465776    6.468518267    7.306367755    5.568217845
    0.386644407    6.466254624    7.303724398    5.566437310
    0.393823038    6.463950558    7.301033863    5.564624922
    0.401001669    6.461606178    7.298296278    5.562780763
    0.408180301    6.459221593    7.295511773    5.560904917
    0.415358932    6.456796917    7.292680482    5.558997467
    0.422537563    6.454332262    7.289802536    5.557058501
    0.429716194    6.451827744    7.286878074    5.555088106
    0.436894825    6.449283481    7.283907233    5.553086371
    0.444073456    6.446699590    7.280890153    5.551053386
    0.451252087    6.444076193    7.277826977    5.548989241
    0.458430718    6.441413411    7.274717848    5.546894031
    0.465609349    6.438711368    7.271562912    5.544767847
    0.472787980    6.435970190    7.268362318    5.542610786
    0.479966611    6.433190003    7.265116215    5.540422944
    0.487145242    6.430370936    7.261824754    5.538204417
    0.494323873    6.427513118    7.258488090    5.535955306
    0.501502504    6.424616683    7.255106377    5.533675708
    0.508681135    6.421681762    7.251679772    5.531365727
    0.515859766    6.418708491    7.248208436    5.529025463
    0.523038397    6.415697005    7.244692527    5.526655020
    0.530217028    6.412647443    7.241132209    5.524254502
    0.537395659    6.409559943    7.237527646    5.521824015
    0.544574290    6.406434647    7.233879004    5.519363666
    0.551752922    6.403271696    7.230186450    5.516873562
    0.558931553    6.400071234    7.226450154    5.514353813
    0.566110184    6.396833406    7.222670287    5.511804528
    0.573288815    6.393558359    7.218847021    5.509225818
    0.580467446    6.390246239    7.214980531    5.506617795
    0.587646077    6.386897196    7.211070993    5.503980573
    0.594824708    6.383511381    7.207118583    5.501314266
    0.602003339    6.380088946    7.203123481    5.498618988
    0.609181970    6.376630043    7.199085868    5.495894856
    0.616360601    6.373134827    7.195005925    5.493141987
    0.623539232    6.369603453    7.190883836    5.490360500
    0.630717863    6.366036079    7.186719787    5.487550513
    0.637896494    6.362432863    7.182513963    5.484712146
    0.645075125    6.358793964    7.178266553    5.481845520
    0.652253756    6.355119543    7.173977747    5.478950758
    0.659432387    6.351409762    7.169647734    5.476027982
    0.666611018    6.347664783    7.165276707    5.473077315
    0.673789649    6.343884772    7.160864860    5.470098883
    0.680968280    6.340069892    7.156412388    5.467092811
    0.688146912    6.336220312    7.151919486    5.464059226
    0.695325543    6.332336198    7.147386353    5.460998254
    0.702504174    6.328417718    7.142813186    5.457910023
    0.709682805    6.324465043    7.138200187    5.454794663
    0.716861436    6.320478344    7.133547557    5.451652303
    0.724040067    6.316457792    7.128855497    5.448483074
    0.731218698    6.312403561    7.124124211    5.445287106
    0.738397329    6.308315823    7.119353906    5.442064533
    0.745575960    6.304194754    7.114544785    5.438815485
    0.752754591    6.300040530    7.109697057    5.435540099
    0.759933222    6.295853327    7.104810930    5.432238506
    0.767111853    6.291633323    7.099886613    5.428910843
    0.774290484    6.287380697    7.094924317    5.425557245
    0.781469115    6.283095628    7.089924253    5.422177848
    0.788647746    6.278778296    7.084886633    5.418772790
    0.795826377    6.274428883    7.079811671    5.415342208
    0.803005008    6.270047571    7.074699581    5.411886240
    0.810183639    6.265634543    7.069550579    5.408405026
    0.817362270    6.261189981    7.064364881    5.404898705
    0.824540902    6.256714072    7.059142705    5.401367417
    0.831719533    6.252206999    7.053884268    5.397811303
    0.838898164    6.247668950    7.048589789    5.394230504
    0.846076795    6.243100110    7.043259489    5.390625163
    0.853255426    6.238500667    7.037893588    5.386995421
    0.860434057    6.233870810    7.032492308    5.383341423
    0.867612688    6.229210726    7.027055870    5.379663311
    0.874791319    6.224520606    7.021584498    5.375961229
    0.881969950    6.219800640    7.016078416    5.372235322
    0.889148581    6.215051018    7.010537848    5.368485736
    0.896327212    6.210271932    7.004963020    5.364712615
    0.903505843    6.205463573    6.999354157    5.360916107
    0.910684474    6.200626135    6.993711486    5.357096356
    0.917863105    6.195759809    6.988035234    5.353253510
    0.925041736    6.190864790    6.982325629    5.349387717
    0.932220367    6.185941273    6.976582900    5.345499123
    0.939398998    6.180989450    6.970807275    5.341587878
    0.946577629    6.176009518    6.964998983    5.337654130
    0.953756260    6.171001672    6.959158256    5.333698027
    0.960934891    6.165966108    6.953285324    5.329719719
    0.968113523    6.160903023    6.947380418    5.325719355
    0.975292154    6.155812613    6.941443768    5.321697085
    0.982470785    6.150695076    6.935475609    5.317653060
    0.989649416    6.145550609    6.929476171    5.313587430
    0.996828047    6.140379410    6.923445687    5.309500345
    1.004006678    6.135181677    6.917384392    5.305391957
    1.011185309    6.129957610    6.911292519    5.301262418
    1.018363940    6.124707407    6.905170301    5.297111878
    1.025542571    6.119431267    6.899017973    5.292940490
    1.032721202    6.114129390    6.892835770    5.288748405
    1.039899833    6.108801976    6.886623926    5.284535776
    1.047078464    6.103449225    6.880382677    5.280302756
    1.054257095    6.098071337    6.874112259    5.276049497
    1.061435726    6.092668512    6.867812906    5.271776153
    1.068614357    6.087240952    6.861484855    5.267482875
    1.075792988    6.081788857    6.855128342    5.263169817
    1.082971619    6.076312428    6.848743604    5.258837134
    1.090150250    6.070811866    6.842330876    5.254484977
    1.097328881    6.065287373    6.835890396    5.250113501
    1.104507513    6.059739150    6.829422400    5.245722859
    1.111686144    6.054167399    6.822927125    5.241313206
    1.118864775    6.048572321    6.816404807    5.236884695
    1.126043406    6.042954117    6.809855685    5.232437479
    1.133222037    6.037312991    6.803279994    5.227971714
    1.140400668    6.031649143    6.796677972    5.223487553
    1.147579299    6.025962775    6.790049857    5.218985151
    1.154757930    6.020254089    6.783395884    5.214464661
    1.161936561    6.014523287    6.776716292    5.209926237
    1.169115192    6.008770571    6.770011316    5.205370034
    1.176293823    6.002996142    6.763281195    5.200796206
    1.183472454    5.997200202    6.756526165    5.196204907
    1.190651085    5.991382953    6.749746463    5.191596292
    1.197829716    5.985544597    6.742942325    5.186970514
    1.205008347    5.979685334    6.736113989    5.182327727
    1.212186978    5.973805366    6.729261689    5.177668085
    1.219365609    5.967904895    6.722385664    5.172991743
    1.226544240    5.961984121    6.715486148    5.168298854
    1.233722871    5.956043246    6.708563379    5.163589572
    1.240901503    5.950082470    6.701617590    5.158864050
    1.248080134    5.944101993    6.694649019    5.154122443
    1.255258765    5.938102018    6.687657900    5.149364903
    1.262437396    5.932082743    6.680644468    5.144591583
    1.269616027    5.926044368    6.673608958    5.139802638
    1.276794658    5.919987094    6.666551605    5.134998220
    1.283973289    5.913911120    6.659472642    5.130178481
    1.291151920    5.907816645    6.652372303    5.125343576
    1.298330551    5.901703869    6.645250823    5.120493655
    1.305509182    5.895572989    6.638108433    5.115628871
    1.312687813    5.889424205    6.630945367    5.110749378
    1.319866444    5.883257715    6.623761858    5.105855325
    1.327045075    5.877073716    6.616558137    5.100946866
    1.334223706    5.870872407    6.609334436    5.096024152
    1.341402337    5.864653984    6.602090986    5.091087333
    1.348580968    5.858418644    6.594828018    5.086136562
    1.355759599    5.852166583    6.587545763    5.081171988
    1.362938230    5.845897999    6.580244450    5.076193763
    1.370116861    5.839613085    6.572924309    5.071202036
    1.377295492    5.833312039    6.565585568    5.066196958
    1.384474124    5.826995054    6.558228457    5.061178678
    1.391652755    5.820662326    6.550853204    5.056147346
    1.398831386    5.814314048    6.543460035    5.051103111
    1.406010017    5.807950413    6.536049178    5.046046121
    1.413188648    5.801571616    6.528620859    5.040976526
    1.420367279    5.795177849    6.521175304    5.035894473
    1.427545910    5.788769304    6.513712738    5.030800110
    1.434724541    5.782346173    6.506233386    5.025693585
    1.441903172    5.775908647    6.498737472    5.020575045
    1.449081803    5.769456918    6.491225220    5.015444636
    1.456260434    5.762991175    6.483696852    5.010302506
    1.463439065    5.756511607    6.476152591    5.005148800
    1.470617696    5.750018406    6.468592658    4.999983665
    1.477796327    5.743511758    6.461017275    4.994807244
    1.484974958    5.736991853    6.453426662    4.989619685
    1.492153589    5.730458878    6.445821038    4.984421130
    1.499332220    5.723913020    6.438200622    4.979211724
    1.506510851    5.717354465    6.430565634    4.973991611
    1.513689482    5.710783400    6.422916290    4.968760935
    1.520868114    5.704200010    6.415252807    4.963519838
    1.528046745    5.697604479    6.407575402    4.958268463
    1.535225376    5.690996992    6.399884290    4.953006952
    1.542404007    5.684377732    6.392179685    4.947735446
    1.549582638    5.677746882    6.384461803    4.942454087
    1.556761269    5.671104624    6.376730856    4.937163016
    1.563939900    5.664451140    6.368987057    4.931862373
    1.571118531    5.657786612    6.361230617    4.926552298
    1.578297162    5.651111219    6.353461747    4.921232929
    1.585475793    5.644425140    6.345680658    4.915904407
    1.592654424    5.637728556    6.337887560    4.910566869
    1.599833055    5.631021645    6.330082659    4.905220454
    1.607011686    5.624304583    6.322266165    4.899865299
    1.614190317    5.617577549    6.314438285    4.894501541
    1.621368948    5.610840718    6.306599224    4.889129317
    1.628547579    5.604094266    6.298749188    4.883748762
    1.635726210    5.597338369    6.290888381    4.878360012
    1.642904841    5.590573199    6.283017007    4.872963202
    1.650083472    5.583798931    6.275135269    4.867558467
    1.657262104    5.577015738    6.267243369    4.862145940
    1.664440735    5.570223791    6.259341507    4.856725755
    1.671619366    5.563423263    6.251429885    4.851298045
    1.678797997    5.556614322    6.243508700    4.845862942
    1.685976628    5.549797140    6.235578153    4.840420578
    1.693155259    5.542971886    6.227638439    4.834971084
    1.700333890    5.536138727    6.219689757    4.829514592
    1.707512521    5.529297831    6.211732301    4.824051231
    1.714691152    5.522449366    6.203766267    4.818581130
    1.721869783    5.515593497    6.195791848    4.813104420
    1.729048414    5.508730389    6.187809238    4.807621228
    1.736227045    5.501860208    6.179818628    4.802131683
    1.743405676    5.494983116    6.171820210    4.796635912
    1.750584307    5.488099277    6.163814174    4.791134042
    1.757762938    5.481208854    6.155800709    4.785626199
    1.764941569    5.474312006    6.147780004    4.780112509
    1.772120200    5.467408895    6.139752246    4.774593097
    1.779298831    5.460499681    6.131717622    4.769068087
    1.786477462    5.453584523    6.123676316    4.763537604
    1.793656093    5.446663578    6.115628514    4.758001771
    1.800834725    5.439737005    6.107574400    4.752460710
    1.808013356    5.432804959    6.099514155    4.746914544
    1.815191987    5.425867597    6.091447962    4.741363395
    1.822370618    5.418925073    6.083376000    4.735807383
    1.829549249    5.411977542    6.075298451    4.730246629
    1.836727880    5.405025156    6.067215492    4.724681253
    1.843906511    5.398068069    6.059127302    4.719111374
    1.851085142    5.391106431    6.051034057    4.713537110
    1.858263773    5.384140394    6.042935932    4.707958580
    1.865442404    5.377170107    6.034833104    4.702375900
    1.872621035    5.370195720    6.026725745    4.696789189
    1.879799666    5.363217381    6.018614028    4.691198561
    1.886978297    5.356235237    6.010498125    4.685604132
    1.894156928    5.349249436    6.002378207    4.680006018
    1.901335559    5.342260121    5.994254444    4.674404332
    1.908514190    5.335267439    5.986127005    4.668799188
    1.915692821    5.328271534    5.977996056    4.663190700
    1.922871452    5.321272548    5.969861766    4.657578979
    1.930050083    5.314270625    5.961724300    4.651964139
    1.937228715    5.307265905    5.953583822    4.646346288
    1.944407346    5.300258529    5.945440497    4.640725540
    1.951585977    5.293248637    5.937294487    4.635102002
    1.958764608    5.286236368    5.929145953    4.629475785
    1.965943239    5.279221859    5.920995057    4.623846997
    1.973121870    5.272205249    5.912841959    4.618215747
    1.980300501    5.265186673    5.904686816    4.612582141
    1.987479132    5.258166267    5.896529787    4.606946287
    1.994657763    5.251144165    5.888371027    4.601308290
    2.001836394    5.244120501    5.880210694    4.595668257
    2.009015025    5.237095409    5.872048941    4.590026291
    2.016193656    5.230069019    5.863885922    4.584382498
    2.023372287    5.223041464    5.855721790    4.578736981
    2.030550918    5.216012873    5.847556696    4.573089842
    2.037729549    5.208983376    5.839390790    4.567441185
    2.044908180    5.201953102    5.831224222    4.561791111
    2.052086811    5.194922178    5.823057141    4.556139720
    2.059265442    5.187890730    5.814889693    4.550487114
    2.066444073    5.180858886    5.806722026    4.544833392
    2.073622705    5.173826770    5.798554285    4.539178653
    2.080801336    5.166794506    5.790386614    4.533522996
    2.087979967    5.159762217    5.782219156    4.527866519
    2.095158598    5.152730027    5.774052055    4.522209318
    2.102337229    5.145698057    5.765885450    4.516551491
    2.109515860    5.138666427    5.757719483    4.510893133
    2.116694491    5.131635257    5.749554293    4.505234341
    2.123873122    5.124604667    5.741390017    4.499575207
    2.131051753    5.117574775    5.733226794    4.493915827
    2.138230384    5.110545698    5.725064760    4.488256294
    2.145409015    5.103517552    5.716904049    4.482596701
    2.152587646    5.096490454    5.708744796    4.476937139
    2.159766277    5.089464517    5.700587135    4.471277701
    2.166944908    5.082439857    5.692431197    4.465618477
    2.174123539    5.075416585    5.684277113    4.459959557
    2.181302170    5.068394814    5.676125015    4.454301032
    2.188480801    5.061374656    5.667975030    4.448642989
    2.195659432    5.054356220    5.659827287    4.442985517
    2.202838063    5.047339617    5.651681914    4.437328705
    2.210016694    5.040324956    5.643539036    4.431672639
    2.217195326    5.033312344    5.635398779    4.426017405
    2.224373957    5.026301888    5.627261267    4.420363090
    2.231552588    5.019293695    5.619126623    4.414709778
    2.238731219    5.012287869    5.610994970    4.409057554
    2.245909850    5.005284517    5.602866428    4.403406503
    2.253088481    4.998283741    5.594741117    4.397756706
    2.260267112    4.991285644    5.586619158    4.392108248
    2.267445743    4.984290329    5.578500668    4.386461210
    2.274624374    4.977297897    5.570385764    4.380815674
    2.281803005    4.970308447    5.562274564    4.375171720
    2.288981636    4.963322080    5.554167181    4.369529429
    2.296160267    4.956338895    5.546063731    4.363888880
    2.303338898    4.949358988    5.537964327    4.358250152
    2.310517529    4.942382458    5.529869082    4.352613324
    2.317696160    4.935409401    5.521778106    4.346978473
    2.324874791    4.928439912    5.513691511    4.341345677
    2.332053422    4.921474086    5.505609406    4.335715011
    2.339232053    4.914512017    5.497531899    4.330086553
    2.346410684    4.907553797    5.489459098    4.324460377
    2.353589316    4.900599519    5.481391110    4.318836558
    2.360767947    4.893649275    5.473328041    4.313215170
    2.367946578    4.886703154    5.465269995    4.307596287
    2.375125209    4.879761248    5.457217076    4.301979981
    2.382303840    4.872823644    5.449169387    4.296366325
    2.389482471    4.865890431    5.441127030    4.290755391
    2.396661102    4.858961696    5.433090107    4.285147249
    2.403839733    4.852037527    5.425058716    4.279541970
    2.411018364    4.845118008    5.417032959    4.273939625
    2.418196995    4.838203226    5.409012931    4.268340282
    2.425375626    4.831293263    5.400998732    4.262744010
    2.432554257    4.824388205    5.392990458    4.257150878
    2.439732888    4.817488132    5.384988203    4.251560952
    2.446911519    4.810593129    5.376992064    4.245974301
    2.454090150    4.803703275    5.369002132    4.240390990
    2.461268781    4.796818651    5.361018502    4.234811085
    2.468447412    4.789939336    5.353041265    4.229234652
    2.475626043    4.783065410    5.345070512    4.223661754
    2.482804674    4.776196951    5.337106333    4.218092458
    2.489983306    4.769334036    5.329148818    4.212526825
    2.497161937    4.762476741    5.321198055    4.206964918
    2.504340568    4.755625143    5.313254131    4.201406802
    2.511519199    4.748779317    5.305317133    4.195852536
    2.518697830    4.741939337    5.297387147    4.190302182
    2.525876461    4.735105276    5.289464258    4.184755802
    2.533055092    4.728277208    5.281548549    4.179213455
    2.540233723    4.721455204    5.273640104    4.173675201
