# energy grid [eV]     epsr_x  epsr_y  epsr_z
#
    0.200000000    6.940722534   13.157287812   11.921388893
    0.207178631    6.941820437   13.159928243   11.923811904
    0.214357262    6.942957508   13.162663050   11.926321602
    0.221535893    6.944133794   13.165492365   11.928918120
    0.228714524    6.945349344   13.168416328   11.931601594
    0.235893155    6.946604210   13.171435079   11.934372163
    0.243071786    6.947898444   13.174548768   11.937229973
    0.250250417    6.949232099   13.177757546   11.940175174
    0.257429048    6.950605234   13.181061571   11.943207921
    0.264607679    6.952017904   13.184461003   11.946328374
    0.271786311    6.953470171   13.187956011   11.949536696
    0.278964942    6.954962093   13.191546766   11.952833057
    0.286143573    6.956493736   13.195233444   11.956217631
    0.293322204    6.958065163   13.199016226   11.959690596
    0.300500835    6.959676441   13.202895299   11.963252137
    0.307679466    6.961327637   13.206870854   11.966902442
    0.314858097    6.963018823   13.210943087   11.970641704
    0.322036728    6.964750068   13.215112199   11.974470123
    0.329215359    6.966521448   13.219378397   11.978387901
    0.336393990    6.968333036   13.223741892   11.982395247
    0.343572621    6.970184910   13.228202900   11.986492375
    0.350751252    6.972077149   13.232761643   11.990679504
    0.357929883    6.974009833   13.237418346   11.994956858
    0.365108514    6.975983045   13.242173243   11.999324665
    0.372287145    6.977996868   13.247026570   12.003783160
    0.379465776    6.980051390   13.251978568   12.008332582
    0.386644407    6.982146697   13.257029486   12.012973177
    0.393823038    6.984282880   13.262179576   12.017705194
    0.401001669    6.986460030   13.267429097   12.022528888
    0.408180301    6.988678240   13.272778311   12.027444520
    0.415358932    6.990937606   13.278227487   12.032452357
    0.422537563    6.993238226   13.283776901   12.037552670
    0.429716194    6.995580197   13.289426830   12.042745736
    0.436894825    6.997963623   13.295177562   12.048031839
    0.444073456    7.000388604   13.301029385   12.053411265
    0.451252087    7.002855247   13.306982598   12.058884310
    0.458430718    7.005363658   13.313037501   12.064451272
    0.465609349    7.007913946   13.319194402   12.070112458
    0.472787980    7.010506222   13.325453616   12.075868178
    0.479966611    7.013140599   13.331815460   12.081718749
    0.487145242    7.015817191   13.338280259   12.087664494
    0.494323873    7.018536116   13.344848345   12.093705741
    0.501502504    7.021297492   13.351520055   12.099842826
    0.508681135    7.024101441   13.358295730   12.106076089
    0.515859766    7.026948085   13.365175719   12.112405876
    0.523038397    7.029837549   13.372160377   12.118832541
    0.530217028    7.032769961   13.379250064   12.125356444
    0.537395659    7.035745449   13.386445148   12.131977948
    0.544574290    7.038764146   13.393746000   12.138697426
    0.551752922    7.041826184   13.401153001   12.145515256
    0.558931553    7.044931699   13.408666536   12.152431822
    0.566110184    7.048080830   13.416286997   12.159447516
    0.573288815    7.051273716   13.424014781   12.166562734
    0.580467446    7.054510500   13.431850294   12.173777881
    0.587646077    7.057791325   13.439793947   12.181093368
    0.594824708    7.061116339   13.447846157   12.188509613
    0.602003339    7.064485691   13.456007349   12.196027039
    0.609181970    7.067899532   13.464277954   12.203646078
    0.616360601    7.071358014   13.472658410   12.211367168
    0.623539232    7.074861295   13.481149161   12.219190754
    0.630717863    7.078409532   13.489750660   12.227117290
    0.637896494    7.082002886   13.498463364   12.235147234
    0.645075125    7.085641520   13.507287738   12.243281053
    0.652253756    7.089325599   13.516224257   12.251519221
    0.659432387    7.093055290   13.525273399   12.259862221
    0.666611018    7.096830764   13.534435651   12.268310541
    0.673789649    7.100652193   13.543711508   12.276864678
    0.680968280    7.104519753   13.553101471   12.285525136
    0.688146912    7.108433621   13.562606049   12.294292428
    0.695325543    7.112393976   13.572225759   12.303167073
    0.702504174    7.116401003   13.581961126   12.312149600
    0.709682805    7.120454884   13.591812680   12.321240544
    0.716861436    7.124555810   13.601780963   12.330440450
    0.724040067    7.128703969   13.611866520   12.339749870
    0.731218698    7.132899555   13.622069909   12.349169365
    0.738397329    7.137142764   13.632391691   12.358699504
    0.745575960    7.141433794   13.642832439   12.368340865
    0.752754591    7.145772846   13.653392733   12.378094033
    0.759933222    7.150160123   13.664073161   12.387959604
    0.767111853    7.154595834   13.674874318   12.397938183
    0.774290484    7.159080186   13.685796810   12.408030381
    0.781469115    7.163613392   13.696841250   12.418236821
    0.788647746    7.168195667   13.708008261   12.428558134
    0.795826377    7.172827230   13.719298473   12.438994960
    0.803005008    7.177508301   13.730712526   12.449547950
    0.810183639    7.182239103   13.742251068   12.460217762
    0.817362270    7.187019864   13.753914758   12.471005067
    0.824540902    7.191850813   13.765704262   12.481910542
    0.831719533    7.196732184   13.777620257   12.492934877
    0.838898164    7.201664212   13.789663428   12.504078771
    0.846076795    7.206647136   13.801834470   12.515342932
    0.853255426    7.211681198   13.814134088   12.526728081
    0.860434057    7.216766643   13.826562996   12.538234948
    0.867612688    7.221903720   13.839121919   12.549864272
    0.874791319    7.227092681   13.851811591   12.561616806
    0.881969950    7.232333781   13.864632757   12.573493312
    0.889148581    7.237627277   13.877586170   12.585494563
    0.896327212    7.242973432   13.890672596   12.597621344
    0.903505843    7.248372511   13.903892811   12.609874450
    0.910684474    7.253824781   13.917247600   12.622254690
    0.917863105    7.259330515   13.930737761   12.634762883
    0.925041736    7.264889988   13.944364100   12.647399859
    0.932220367    7.270503479   13.958127437   12.660166463
    0.939398998    7.276171270   13.972028602   12.673063550
    0.946577629    7.281893648   13.986068436   12.686091987
    0.953756260    7.287670902   14.000247791   12.699252656
    0.960934891    7.293503325   14.014567532   12.712546449
    0.968113523    7.299391216   14.029028534   12.725974273
    0.975292154    7.305334874   14.043631687   12.739537047
    0.982470785    7.311334604   14.058377889   12.753235705
    0.989649416    7.317390716   14.073268054   12.767071192
    0.996828047    7.323503522   14.088303106   12.781044469
    1.004006678    7.329673337   14.103483982   12.795156510
    1.011185309    7.335900484   14.118811632   12.809408305
    1.018363940    7.342185286   14.134287020   12.823800855
    1.025542571    7.348528072   14.149911121   12.838335178
    1.032721202    7.354929176   14.165684926   12.853012308
    1.039899833    7.361388933   14.181609436   12.867833291
    1.047078464    7.367907687   14.197685669   12.882799192
    1.054257095    7.374485781   14.213914654   12.897911090
    1.061435726    7.381123567   14.230297437   12.913170078
    1.068614357    7.387821400   14.246835075   12.928577269
    1.075792988    7.394579637   14.263528643   12.944133789
    1.082971619    7.401398642   14.280379228   12.959840772
    1.090150250    7.408278785   14.297387932   12.975699349
    1.097328881    7.415220437   14.314555872   12.991710643
    1.104507513    7.422223976   14.331884182   13.007875906
    1.111686144    7.429289785   14.349374013   13.024196475
    1.118864775    7.436418250   14.367026529   13.040673553
    1.126043406    7.443609765   14.384842910   13.057308343
    1.133222037    7.450864725   14.402824352   13.074102099
    1.140400668    7.458183534   14.420972069   13.091056103
    1.147579299    7.465566598   14.439287290   13.108171664
    1.154757930    7.473014329   14.457771262   13.125450108
    1.161936561    7.480527146   14.476425250   13.142892782
    1.169115192    7.488105472   14.495250535   13.160501054
    1.176293823    7.495749734   14.514248417   13.178276310
    1.183472454    7.503460367   14.533420213   13.196219961
    1.190651085    7.511237810   14.552767259   13.214333437
    1.197829716    7.519082508   14.572290910   13.232618189
    1.205008347    7.526994912   14.591992540   13.251075693
    1.212186978    7.534975478   14.611873540   13.269707445
    1.219365609    7.543024669   14.631935324   13.288514966
    1.226544240    7.551142953   14.652179323   13.307499799
    1.233722871    7.559330803   14.672606989   13.326663512
    1.240901503    7.567588702   14.693219795   13.346007697
    1.248080134    7.575917134   14.714019234   13.365533971
    1.255258765    7.584316594   14.735006821   13.385243977
    1.262437396    7.592787580   14.756184092   13.405139381
    1.269616027    7.601330598   14.777552606   13.425221879
    1.276794658    7.609946161   14.799113941   13.445493191
    1.283973289    7.618634786   14.820869700   13.465955065
    1.291151920    7.627397001   14.842821510   13.486609279
    1.298330551    7.636233337   14.864971019   13.507457636
    1.305509182    7.645144334   14.887319899   13.528501969
    1.312687813    7.654130539   14.909869847   13.549744143
    1.319866444    7.663192504   14.932622585   13.571186048
    1.327045075    7.672330793   14.955579858   13.592829610
    1.334223706    7.681545971   14.978743438   13.614676782
    1.341402337    7.690838617   15.002115123   13.636729553
    1.348580968    7.700209312   15.025696734   13.658989939
    1.355759599    7.709658648   15.049490124   13.681459996
    1.362938230    7.719187224   15.073497169   13.704141807
    1.370116861    7.728795648   15.097719773   13.727037495
    1.377295492    7.738484533   15.122159871   13.750149215
    1.384474124    7.748254504   15.146819423   13.773479160
    1.391652755    7.758106192   15.171700420   13.797029557
    1.398831386    7.768040237   15.196804883   13.820802675
    1.406010017    7.778057289   15.222134862   13.844800816
    1.413188648    7.788158003   15.247692439   13.869026326
    1.420367279    7.798343047   15.273479725   13.893481587
    1.427545910    7.808613096   15.299498866   13.918169024
    1.434724541    7.818968834   15.325752037   13.943091104
    1.441903172    7.829410956   15.352241449   13.968250335
    1.449081803    7.839940164   15.378969345   13.993649269
    1.456260434    7.850557171   15.405938002   14.019290504
    1.463439065    7.861262701   15.433149733   14.045176681
    1.470617696    7.872057486   15.460606886   14.071310490
    1.477796327    7.882942268   15.488311845   14.097694666
    1.484974958    7.893917800   15.516267030   14.124331994
    1.492153589    7.904984847   15.544474901   14.151225310
    1.499332220    7.916144181   15.572937954   14.178377499
    1.506510851    7.927396589   15.601658725   14.205791497
    1.513689482    7.938742865   15.630639790   14.233470296
    1.520868114    7.950183818   15.659883765   14.261416936
    1.528046745    7.961720264   15.689393307   14.289634508
    1.535225376    7.973353035   15.719171116   14.318126157
    1.542404007    7.985082972   15.749219935   14.346895125
    1.549582638    7.996910928   15.779542551   14.375944712
    1.556761269    8.008837771   15.810141797   14.405278243
    1.563939900    8.020864377   15.841020546   14.434899106
    1.571118531    8.032991638   15.872181720   14.464810761
    1.578297162    8.045220454   15.903628272   14.495016734
    1.585475793    8.057551738   15.935363190   14.525520615
    1.592654424    8.069986425   15.967389569   14.556326075
    1.599833055    8.082525466   15.999710598   14.587436864
    1.607011686    8.095169818   16.032329436   14.618856790
    1.614190317    8.107920448   16.065249278   14.650589729
    1.621368948    8.120778342   16.098473391   14.682639639
    1.628547579    8.133744498   16.132005105   14.715010558
    1.635726210    8.146819933   16.165847805   14.747706603
    1.642904841    8.160005676   16.200004937   14.780731974
    1.650083472    8.173302772   16.234480003   14.814090956
    1.657262104    8.186712284   16.269276564   14.847787919
    1.664440735    8.200235288   16.304398242   14.881827323
    1.671619366    8.213872877   16.339848722   14.916213717
    1.678797997    8.227626160   16.375631752   14.950951733
    1.685976628    8.241496257   16.411751143   14.986046079
    1.693155259    8.255484311   16.448210773   15.021501589
    1.700333890    8.269591495   16.485014589   15.057323287
    1.707512521    8.283818992   16.522166605   15.093516238
    1.714691152    8.298167999   16.559670913   15.130085563
    1.721869783    8.312639730   16.597531670   15.167036508
    1.729048414    8.327235409   16.635753097   15.204374435
    1.736227045    8.341956275   16.674339484   15.242104822
    1.743405676    8.356803620   16.713295237   15.280233299
    1.750584307    8.371778768   16.752624857   15.318765636
    1.757762938    8.386883025   16.792332877   15.357707685
    1.764941569    8.402117716   16.832423914   15.397065430
    1.772120200    8.417484195   16.872902675   15.436844995
    1.779298831    8.432983841   16.913773962   15.477052648
    1.786477462    8.448618056   16.955042662   15.517694799
    1.793656093    8.464388263   16.996713756   15.558778005
    1.800834725    8.480295912   17.038792316   15.600308976
    1.808013356    8.496342472   17.081283511   15.642294576
    1.815191987    8.512529441   17.124192608   15.684741831
    1.822370618    8.528858338   17.167524971   15.727657935
    1.829549249    8.545330709   17.211286071   15.771050250
    1.836727880    8.561948126   17.255481480   15.814926317
    1.843906511    8.578712187   17.300116880   15.859293859
    1.851085142    8.595624517   17.345198062   15.904160787
    1.858263773    8.612686768   17.390730932   15.949535207
    1.865442404    8.629900621   17.436721509   15.995425425
    1.872621035    8.647267786   17.483175934   16.041839956
    1.879799666    8.664790003   17.530100469   16.088787527
    1.886978297    8.682469040   17.577501499   16.136277088
    1.894156928    8.700306697   17.625385541   16.184317807
    1.901335559    8.718304805   17.673759240   16.232919070
    1.908514190    8.736465227   17.722629377   16.282090508
    1.915692821    8.754789863   17.772002877   16.331842117
    1.922871452    8.773280647   17.821886803   16.382184133
    1.930050083    8.791939543   17.872288363   16.433126965
    1.937228715    8.810768552   17.923214910   16.484681315
    1.944407346    8.829769710   17.974673958   16.536858198
    1.951585977    8.848945093   18.026673193   16.589668953
    1.958764608    8.868296814   18.079220459   16.643125223
    1.965943239    8.887827025   18.132323751   16.697238969
    1.973121870    8.907537917   18.185991243   16.752022496
    1.980300501    8.927431724   18.240231286   16.807488456
    1.987479132    8.947510713   18.295052407   16.863649869
    1.994657763    8.967777206   18.350463329   16.920520132
    2.001836394    8.988233577   18.406472986   16.978113036
    2.009015025    9.008882237   18.463090486   17.036442769
    2.016193656    9.029725635   18.520325106   17.095523913
    2.023372287    9.050766273   18.578186337   17.155371485
    2.030550918    9.072006702   18.636684004   17.216001119
    2.037729549    9.093449527   18.695828148   17.277428914
    2.044908180    9.115097403   18.755628928   17.339671324
    2.052086811    9.136953036   18.816096749   17.402745336
    2.059265442    9.159019184   18.877242281   17.466668503
    2.066444073    9.181298666   18.939076449   17.531458955
    2.073622705    9.203794369   19.001610433   17.597135424
    2.080801336    9.226509231   19.064855639   17.663717248
    2.087979967    9.249446246   19.128823728   17.731224397
    2.095158598    9.272608473   19.193526844   17.799677524
    2.102337229    9.295999036   19.258977418   17.869097966
    2.109515860    9.319621130   19.325188009   17.939507833
    2.116694491    9.343478025   19.392171535   18.010930072
    2.123873122    9.367573054   19.459941202   18.083388327
    2.131051753    9.391909619   19.528510572   18.156907082
    2.138230384    9.416491194   19.597893564   18.231511746
    2.145409015    9.441321336   19.668104235   18.307228577
    2.152587646    9.466403688   19.739157141   18.384084862
    2.159766277    9.491741949   19.811067897   18.462109065
    2.166944908    9.517339826   19.883852012   18.541330481
    2.174123539    9.543201176   19.957525049   18.621779513
    2.181302170    9.569330248   20.032103426   18.703488271
    2.188480801    9.595731201   20.107603905   18.786489851
    2.195659432    9.622408103   20.184043547   18.870818388
    2.202838063    9.649365182   20.261439945   18.956509499
    2.210016694    9.676606810   20.339811224   19.043600335
    2.217195326    9.704137476   20.419176026   19.132129611
    2.224373957    9.731961785   20.499553528   19.222137684
    2.231552588    9.760084450   20.580963459   19.313666616
    2.238731219    9.788510289   20.663426102   19.406760289
    2.245909850    9.817244314   20.746962352   19.501464658
    2.253088481    9.846291674   20.831593725   19.597827753
    2.260267112    9.875657584   20.917342350   19.695899643
    2.267445743    9.905347394   21.004231021   19.795732697
    2.274624374    9.935366599   21.092283217   19.897381707
    2.281803005    9.965720828   21.181523121   20.000903990
    2.288981636    9.996415941   21.271975721   20.106359964
    2.296160267   10.027458046   21.363666844   20.213813385
    2.303338898   10.058853294   21.456623043   20.323330656
    2.310517529   10.090607988   21.550871699   20.434981440
    2.317696160   10.122728692   21.646441143   20.548839130
    2.324874791   10.155222157   21.743360626   20.664981046
    2.332053422   10.188095317   21.841660340   20.783488668
    2.339232053   10.221355324   21.941371487   20.904447933
    2.346410684   10.255009554   22.042526354   21.027949556
    2.353589316   10.289065582   22.145158390   21.154089394
    2.360767947   10.323531181   22.249302179   21.282968830
    2.367946578   10.358414581   22.354993491   21.414695216
    2.375125209   10.393724462   22.462269359   21.549382344
    2.382303840   10.429469496   22.571168045   21.687150894
    2.389482471   10.465658608   22.681728882   21.828128935
    2.396661102   10.502301108   22.793992469   21.972452578
    2.403839733   10.539406705   22.908002416   22.120267381
    2.411018364   10.576985493   23.023804902   22.271729029
    2.418196995   10.615047900   23.141445742   22.427002820
    2.425375626   10.653604771   23.260972412   22.586265329
    2.432554257   10.692667512   23.382435095   22.749705935
    2.439732888   10.732247977   23.505885764   22.917527766
    2.446911519   10.772358434   23.631378390   23.089948850
    2.454090150   10.813011701   23.758969313   23.267203688
    2.461268781   10.854221205   23.888717260   23.449544821
    2.468447412   10.896001040   24.020683742   23.637245183
    2.475626043   10.938365949   24.154933404   23.830600372
    2.482804674   10.981331374   24.291533337   24.029929002
    2.489983306   11.024913584   24.430553655   24.235575243
    2.497161937   11.069129761   24.572067826   24.447917012
    2.504340568   11.113998179   24.716153020   24.667373612
    2.511519199   11.159537990   24.862890125   24.894395639
    2.518697830   11.205769406   25.012363992   25.129473078
    2.525876461   11.252713936   25.164663888   25.373146060
    2.533055092   11.300394483   25.319883816   25.626010360
    2.540233723   11.348835424   25.478122866   25.888724048
