# energy grid [eV]     epsr_x  epsr_y  epsr_z
#
    0.200000000    6.757117544   16.877423148   17.372909977
    0.207178631    6.758086569   16.881451719   17.377064095
    0.214357262    6.759090124   16.885624696   17.381367069
    0.221535893    6.760128247   16.889942327   17.385819149
    0.228714524    6.761200977   16.894404867   17.390420593
    0.235893155    6.762308355   16.899012581   17.395171668
    0.243071786    6.763450422   16.903765744   17.400072651
    0.250250417    6.764627223   16.908664639   17.405123828
    0.257429048    6.765838800   16.913709556   17.410325493
    0.264607679    6.767085201   16.918900799   17.415677951
    0.271786311    6.768366473   16.924238676   17.421181513
    0.278964942    6.769682663   16.929723507   17.426836502
    0.286143573    6.771033823   16.935355620   17.432643249
    0.293322204    6.772420003   16.941135353   17.438602096
    0.300500835    6.773841256   16.947063054   17.444713391
    0.307679466    6.775297636   16.953139078   17.450977495
    0.314858097    6.776789199   16.959363791   17.457394776
    0.322036728    6.778316001   16.965737570   17.463965612
    0.329215359    6.779878101   16.972260798   17.470690393
    0.336393990    6.781475558   16.978933870   17.477569515
    0.343572621    6.783108434   16.985757191   17.484603386
    0.350751252    6.784776790   16.992731174   17.491792423
    0.357929883    6.786480692   16.999856244   17.499137054
    0.365108514    6.788220203   17.007132833   17.506637715
    0.372287145    6.789995392   17.014561387   17.514294853
    0.379465776    6.791806325   17.022142358   17.522108925
    0.386644407    6.793653073   17.029876210   17.530080399
    0.393823038    6.795535707   17.037763417   17.538209752
    0.401001669    6.797454299   17.045804464   17.546497471
    0.408180301    6.799408924   17.053999846   17.554944055
    0.415358932    6.801399656   17.062350067   17.563550013
    0.422537563    6.803426573   17.070855643   17.572315863
    0.429716194    6.805489754   17.079517101   17.581242135
    0.436894825    6.807589277   17.088334977   17.590329369
    0.444073456    6.809725226   17.097309820   17.599578117
    0.451252087    6.811897682   17.106442188   17.608988941
    0.458430718    6.814106730   17.115732650   17.618562414
    0.465609349    6.816352456   17.125181789   17.628299120
    0.472787980    6.818634949   17.134790195   17.638199655
    0.479966611    6.820954297   17.144558472   17.648264624
    0.487145242    6.823310590   17.154487236   17.658494647
    0.494323873    6.825703921   17.164577112   17.668890352
    0.501502504    6.828134384   17.174828738   17.679452381
    0.508681135    6.830602075   17.185242764   17.690181386
    0.515859766    6.833107090   17.195819852   17.701078033
    0.523038397    6.835649528   17.206560675   17.712142997
    0.530217028    6.838229489   17.217465919   17.723376967
    0.537395659    6.840847076   17.228536282   17.734780645
    0.544574290    6.843502391   17.239772474   17.746354742
    0.551752922    6.846195541   17.251175218   17.758099985
    0.558931553    6.848926631   17.262745249   17.770017112
    0.566110184    6.851695771   17.274483317   17.782106873
    0.573288815    6.854503071   17.286390181   17.794370031
    0.580467446    6.857348643   17.298466616   17.806807364
    0.587646077    6.860232600   17.310713409   17.819419659
    0.594824708    6.863155057   17.323131361   17.832207721
    0.602003339    6.866116133   17.335721287   17.845172365
    0.609181970    6.869115945   17.348484013   17.858314421
    0.616360601    6.872154614   17.361420382   17.871634731
    0.623539232    6.875232264   17.374531249   17.885134153
    0.630717863    6.878349017   17.387817485   17.898813558
    0.637896494    6.881505001   17.401279972   17.912673830
    0.645075125    6.884700342   17.414919610   17.926715869
    0.652253756    6.887935171   17.428737312   17.940940589
    0.659432387    6.891209619   17.442734005   17.955348918
    0.666611018    6.894523819   17.456910632   17.969941799
    0.673789649    6.897877907   17.471268153   17.984720190
    0.680968280    6.901272020   17.485807540   17.999685065
    0.688146912    6.904706297   17.500529782   18.014837412
    0.695325543    6.908180878   17.515435884   18.030178235
    0.702504174    6.911695907   17.530526868   18.045708553
    0.709682805    6.915251528   17.545803770   18.061429403
    0.716861436    6.918847889   17.561267644   18.077341836
    0.724040067    6.922485138   17.576919559   18.093446921
    0.731218698    6.926163426   17.592760603   18.109745741
    0.738397329    6.929882906   17.608791880   18.126239398
    0.745575960    6.933643733   17.625014511   18.142929010
    0.752754591    6.937446063   17.641429635   18.159815712
    0.759933222    6.941290056   17.658038408   18.176900657
    0.767111853    6.945175873   17.674842004   18.194185015
    0.774290484    6.949103676   17.691841618   18.211669974
    0.781469115    6.953073632   17.709038460   18.229356741
    0.788647746    6.957085908   17.726433761   18.247246539
    0.795826377    6.961140674   17.744028769   18.265340612
    0.803005008    6.965238100   17.761824755   18.283640221
    0.810183639    6.969378362   17.779823005   18.302146647
    0.817362270    6.973561636   17.798024829   18.320861191
    0.824540902    6.977788101   17.816431553   18.339785172
    0.831719533    6.982057936   17.835044517   18.358919929
    0.838898164    6.986371326   17.853865061   18.378266820
    0.846076795    6.990728455   17.872894529   18.397827224
    0.853255426    6.995129512   17.892134401   18.417602544
    0.860434057    6.999574687   17.911586206   18.437594207
    0.867612688    7.004064172   17.931251365   18.457803655
    0.874791319    7.008598162   17.951131317   18.478232350
    0.881969950    7.013176854   17.971227553   18.498881779
    0.889148581    7.017800449   17.991541595   18.519753451
    0.896327212    7.022469149   18.012074988   18.540848897
    0.903505843    7.027183159   18.032829305   18.562169672
    0.910684474    7.031942685   18.053806141   18.583717353
    0.917863105    7.036747938   18.075007115   18.605493544
    0.925041736    7.041599131   18.096433871   18.627499867
    0.932220367    7.046496478   18.118088080   18.649737975
    0.939398998    7.051440198   18.139971437   18.672209541
    0.946577629    7.056430510   18.162085663   18.694916264
    0.953756260    7.061467638   18.184432507   18.717859866
    0.960934891    7.066551808   18.207013744   18.741042088
    0.968113523    7.071683248   18.229831176   18.764464700
    0.975292154    7.076862190   18.252886634   18.788129530
    0.982470785    7.082088868   18.276181977   18.812038426
    0.989649416    7.087363519   18.299719092   18.836193235
    0.996828047    7.092686383   18.323499897   18.860595835
    1.004006678    7.098057703   18.347526338   18.885248139
    1.011185309    7.103477724   18.371800393   18.910152092
    1.018363940    7.108946696   18.396324069   18.935309666
    1.025542571    7.114464870   18.421099407   18.960722865
    1.032721202    7.120032501   18.446128478   18.986393722
    1.039899833    7.125649846   18.471413386   19.012324301
    1.047078464    7.131317168   18.496956269   19.038516699
    1.054257095    7.137034729   18.522759297   19.064973044
    1.061435726    7.142802797   18.548824675   19.091695494
    1.068614357    7.148621643   18.575154643   19.118686244
    1.075792988    7.154491541   18.601751478   19.145947519
    1.082971619    7.160412767   18.628617491   19.173481581
    1.090150250    7.166385602   18.655755031   19.201290725
    1.097328881    7.172410329   18.683166484   19.229377281
    1.104507513    7.178487236   18.710854274   19.257743617
    1.111686144    7.184616614   18.738820865   19.286392134
    1.118864775    7.190798756   18.767068760   19.315325274
    1.126043406    7.197033961   18.795600503   19.344545515
    1.133222037    7.203322528   18.824418677   19.374055373
    1.140400668    7.209664764   18.853525910   19.403857404
    1.147579299    7.216060976   18.882924871   19.433954204
    1.154757930    7.222511478   18.912618273   19.464348410
    1.161936561    7.229016583   18.942608873   19.495042699
    1.169115192    7.235576614   18.972899473   19.526039790
    1.176293823    7.242191892   19.003492924   19.557342448
    1.183472454    7.248862746   19.034392120   19.588953478
    1.190651085    7.255589507   19.065600005   19.620875731
    1.197829716    7.262372510   19.097119573   19.653112104
    1.205008347    7.269212095   19.128953866   19.685665539
    1.212186978    7.276108605   19.161105978   19.718539026
    1.219365609    7.283062388   19.193579055   19.751735602
    1.226544240    7.290073795   19.226376295   19.785258352
    1.233722871    7.297143184   19.259500953   19.819110415
    1.240901503    7.304270914   19.292956335   19.853294975
    1.248080134    7.311457350   19.326745808   19.887815272
    1.255258765    7.318702861   19.360872792   19.922674597
    1.262437396    7.326007821   19.395340770   19.957876295
    1.269616027    7.333372608   19.430153282   19.993423766
    1.276794658    7.340797606   19.465313930   20.029320465
    1.283973289    7.348283200   19.500826379   20.065569906
    1.291151920    7.355829784   19.536694354   20.102175658
    1.298330551    7.363437755   19.572921652   20.139141353
    1.305509182    7.371107513   19.609512140   20.176470681
    1.312687813    7.378839467   19.646469748   20.214167395
    1.319866444    7.386634028   19.683798472   20.252235309
    1.327045075    7.394491611   19.721502382   20.290678304
    1.334223706    7.402412640   19.759585621   20.329500325
    1.341402337    7.410397541   19.798052407   20.368705385
    1.348580968    7.418446747   19.836907035   20.408297563
    1.355759599    7.426560695   19.876153877   20.448281012
    1.362938230    7.434739827   19.915797384   20.488659952
    1.370116861    7.442984593   19.955842092   20.529438678
    1.377295492    7.451295447   19.996292616   20.570621560
    1.384474124    7.459672848   20.037153655   20.612213042
    1.391652755    7.468117261   20.078429988   20.654217647
    1.398831386    7.476629158   20.120126462   20.696639976
    1.406010017    7.485209016   20.162248048   20.739484712
    1.413188648    7.493857318   20.204799892   20.782756622
    1.420367279    7.502574552   20.247787165   20.826460557
    1.427545910    7.511361214   20.291215094   20.870601453
    1.434724541    7.520217806   20.335089023   20.915184335
    1.441903172    7.529144835   20.379414412   20.960214319
    1.449081803    7.538142815   20.424196830   21.005696614
    1.456260434    7.547212267   20.469441954   21.051636519
    1.463439065    7.556353716   20.515155572   21.098039425
    1.470617696    7.565567695   20.561343587   21.144910808
    1.477796327    7.574854742   20.608012017   21.192256261
    1.484974958    7.584215413   20.655167002   21.240081553
    1.492153589    7.593650265   20.702814804   21.288392504
    1.499332220    7.603159856   20.750961809   21.337195006
    1.506510851    7.612744754   20.799614536   21.386495073
    1.513689482    7.622405533   20.848779630   21.436298831
    1.520868114    7.632142779   20.898463867   21.486612510
    1.528046745    7.641957081   20.948674155   21.537442509
    1.535225376    7.651849039   20.999417577   21.588795391
    1.542404007    7.661819261   21.050701396   21.640677773
    1.549582638    7.671868361   21.102532976   21.693096385
    1.556761269    7.681996960   21.154919822   21.746058103
    1.563939900    7.692205687   21.207869610   21.799569941
    1.571118531    7.702495181   21.261390184   21.853639057
    1.578297162    7.712866094   21.315489563   21.908272753
    1.585475793    7.723319084   21.370175915   21.963478474
    1.592654424    7.733854813   21.425457551   22.019263805
    1.599833055    7.744473952   21.481343050   22.075636494
    1.607011686    7.755177183   21.537841291   22.132604448
    1.614190317    7.765965199   21.594961202   22.190175731
    1.621368948    7.776838705   21.652711874   22.248358567
    1.628547579    7.787798410   21.711102630   22.307161349
    1.635726210    7.798845031   21.770143020   22.366592647
    1.642904841    7.809979299   21.829842820   22.426661207
    1.650083472    7.821201951   21.890212030   22.487375957
    1.657262104    7.832513738   21.951260881   22.548746019
    1.664440735    7.843915423   22.012999843   22.610780709
    1.671619366    7.855407775   22.075439630   22.673489535
    1.678797997    7.866991573   22.138591227   22.736882206
    1.685976628    7.878667609   22.202465872   22.800968637
    1.693155259    7.890436685   22.267075067   22.865758967
    1.700333890    7.902299616   22.332430602   22.931263580
    1.707512521    7.914257228   22.398544550   22.997493064
    1.714691152    7.926310357   22.465429280   23.064458232
    1.721869783    7.938459848   22.533097469   23.132170137
    1.729048414    7.950706563   22.601562112   23.200640085
    1.736227045    7.963051375   22.670836544   23.269879661
    1.743405676    7.975495170   22.740934432   23.339900699
    1.750584307    7.988038845   22.811869790   23.410715279
    1.757762938    8.000683307   22.883656995   23.482335769
    1.764941569    8.013429482   22.956310808   23.554774871
    1.772120200    8.026278307   23.029846375   23.628045561
    1.779298831    8.039230730   23.104279242   23.702161089
    1.786477462    8.052287712   23.179625373   23.777135028
    1.793656093    8.065450231   23.255901165   23.852981279
    1.800834725    8.078719281   23.333123462   23.929714077
    1.808013356    8.092095869   23.411309575   24.007348008
    1.815191987    8.105581020   23.490477298   24.085898036
    1.822370618    8.119175770   23.570644921   24.165379472
    1.829549249    8.132881169   23.651831249   24.245807996
    1.836727880    8.146698284   23.734055606   24.327199681
    1.843906511    8.160628193   23.817337810   24.409571000
    1.851085142    8.174671989   23.901698154   24.492938835
    1.858263773    8.188830793   23.987157757   24.577320532
    1.865442404    8.203105750   24.073738586   24.662733918
    1.872621035    8.217498007   24.161462906   24.749197224
    1.879799666    8.232008730   24.250354067   24.836729160
    1.886978297    8.246639114   24.340435890   24.925348945
    1.894156928    8.261390355   24.431732647   25.015076276
    1.901335559    8.276263659   24.524269487   25.105931305
    1.908514190    8.291260248   24.618072432   25.197934708
    1.915692821    8.306381420   24.713168361   25.291108075
    1.922871452    8.321628494   24.809585023   25.385473591
    1.930050083    8.337002754   24.907351077   25.481053763
    1.937228715    8.352505508   25.006496120   25.577871724
    1.944407346    8.368138088   25.107050709   25.675951257
    1.951585977    8.383901825   25.209046356   25.775316767
    1.958764608    8.399798029   25.312515535   25.875993221
    1.965943239    8.415828094   25.417492126   25.978006497
    1.973121870    8.431993543   25.524011515   26.081383749
    1.980300501    8.448295983   25.632110178   26.186153105
    1.987479132    8.464736898   25.741825573   26.292342859
    1.994657763    8.481317633   25.853196288   26.399981860
    2.001836394    8.498039536   25.966262288   26.509099968
    2.009015025    8.514904249   26.081065535   26.619728188
    2.016193656    8.531913650   26.197649908   26.731898501
    2.023372287    8.549069281   26.316060140   26.845643552
    2.030550918    8.566372687   26.436343205   26.960997865
    2.037729549    8.583825509   26.558547985   27.077996952
    2.044908180    8.601429397   26.682724685   27.196676502
    2.052086811    8.619186089   26.808926030   27.317073940
    2.059265442    8.637097342   26.937206827   27.439227945
    2.066444073    8.655164924   27.067623744   27.563178782
    2.073622705    8.673390628   27.200235749   27.688967646
    2.080801336    8.691776299   27.335105043   27.816637360
    2.087979967    8.710323841   27.472296948   27.946232874
    2.095158598    8.729035162   27.611878935   28.077799930
    2.102337229    8.747912184   27.753921046   28.211385472
    2.109515860    8.766956880   27.898496713   28.347038536
    2.116694491    8.786171261   28.045682850   28.484810019
    2.123873122    8.805557372   28.195559966   28.624752623
    2.131051753    8.825117296   28.348212388   28.766921017
    2.138230384    8.844853154   28.503728494   28.911371858
    2.145409015    8.864767097   28.662200977   29.058163736
    2.152587646    8.884861325   28.823727126   29.207357725
    2.159766277    8.905138112   28.988409144   29.359018378
    2.166944908    8.925599753   29.156354470   29.513212120
    2.174123539    8.946248567   29.327676145   29.670007325
    2.181302170    8.967086925   29.502493211   29.829475365
    2.188480801    8.988117245   29.680931136   29.991690706
    2.195659432    9.009341990   29.863122256   30.156730966
    2.202838063    9.030763647   30.049206219   30.324677052
    2.210016694    9.052384735   30.239330583   30.495613390
    2.217195326    9.074207926   30.433652002   30.669628116
    2.224373957    9.096235996   30.632336606   30.846813214
    2.231552588    9.118471631   30.835559777   31.027264786
    2.238731219    9.140917542   31.043507461   31.211083326
    2.245909850    9.163576549   31.256377732   31.398373982
    2.253088481    9.186451617   31.474382305   31.589246843
    2.260267112    9.209545717   31.697745995   31.783817227
    2.267445743    9.232861837   31.926708366   31.982206199
    2.274624374    9.256403046   32.161525647   32.184540856
    2.281803005    9.280172491   32.402471823   32.390954500
    2.288981636    9.304173385   32.649840480   32.601587243
    2.296160267    9.328409018   32.903946725   32.816586521
    2.303338898    9.352882746   33.165129239   33.036107583
    2.310517529    9.377598003   33.433752593   33.260314039
    2.317696160    9.402558295   33.710209787   33.489378433
    2.324874791    9.427767190   33.994924921   33.723482810
    2.332053422    9.453228335   34.288356777   33.962819523
    2.339232053    9.478945531   34.591005396   34.207592877
    2.346410684    9.504922680   34.903414455   34.458019371
    2.353589316    9.531163693   35.226173060   34.714327725
    2.360767947    9.557672580   35.559924201   34.976760800
    2.367946578    9.584453460   35.905371807   35.245576940
    2.375125209    9.611510555   36.263287876   35.521051173
    2.382303840    9.638848196   36.634520975   35.803476640
    2.389482471    9.666470831   37.020006055   36.093166239
    2.396661102    9.694383013   37.420775624   36.390454369
    2.403839733    9.722589415   37.837976918   36.695699054
    2.411018364    9.751094857   38.272888961   37.009284268
    2.418196995    9.779904261   38.726933774   37.331622251
    2.425375626    9.809022675   39.201702123   37.663156453
    2.432554257    9.838455287   39.698982611   38.004364826
    2.439732888    9.868207425   40.220793368   38.355763588
    2.446911519    9.898284535   40.769420232   38.717910993
    2.454090150    9.928692234   41.347463206   39.091412430
    2.461268781    9.959436474   41.957893630   39.476928354
    2.468447412    9.990523329   42.604123943   39.875177708
    2.475626043   10.021958926   43.290093569   40.286944197
    2.482804674   10.053749601   44.020375432   40.713086544
    2.489983306   10.085901926   44.800309986   41.154549291
    2.497161937   10.118422759   45.636173982   41.612373970
    2.504340568   10.151319152   46.535394419   42.087711926
    2.511519199   10.184598261   47.506821120   42.581840485
    2.518697830   10.218267372   48.561080449   43.096183032
    2.525876461   10.252334389   49.711068102   43.632339953
    2.533055092   10.286807675   50.972594943   44.192115302
    2.540233723   10.321695868   52.365211794   44.777545941
