# energy grid [eV]     epsr_x  epsr_y  epsr_z
#
    0.200000000   12.975418044   15.288223368   14.506063209
    0.207178631   12.978558356   15.292061611   14.509631722
    0.214357262   12.981811809   15.296037940   14.513328631
    0.221535893   12.985178661   15.300152647   14.517154211
    0.228714524   12.988659177   15.304406034   14.521108743
    0.235893155   12.992253635   15.308798413   14.525192522
    0.243071786   12.995962322   15.313330109   14.529405849
    0.250250417   12.999785535   15.318001457   14.533749041
    0.257429048   13.003723580   15.322812804   14.538222421
    0.264607679   13.007776776   15.327764509   14.542826325
    0.271786311   13.011945451   15.332856941   14.547561100
    0.278964942   13.016229945   15.338090481   14.552427103
    0.286143573   13.020630608   15.343465523   14.557424703
    0.293322204   13.025147801   15.348982473   14.562554281
    0.300500835   13.029781898   15.354641748   14.567816228
    0.307679466   13.034533282   15.360443778   14.573210948
    0.314858097   13.039402349   15.366389005   14.578738856
    0.322036728   13.044389508   15.372477886   14.584400378
    0.329215359   13.049495179   15.378710887   14.590195956
    0.336393990   13.054719794   15.385088491   14.596126040
    0.343572621   13.060063797   15.391611191   14.602191095
    0.350751252   13.065527648   15.398279495   14.608391599
    0.357929883   13.071111817   15.405093926   14.614728041
    0.365108514   13.076816789   15.412055019   14.621200925
    0.372287145   13.082643062   15.419163323   14.627810769
    0.379465776   13.088591148   15.426419404   14.634558103
    0.386644407   13.094661573   15.433823839   14.641443472
    0.393823038   13.100854879   15.441377224   14.648467435
    0.401001669   13.107171623   15.449080167   14.655630566
    0.408180301   13.113612374   15.456933294   14.662933454
    0.415358932   13.120177722   15.464937245   14.670376701
    0.422537563   13.126868268   15.473092677   14.677960928
    0.429716194   13.133684634   15.481400263   14.685686770
    0.436894825   13.140627456   15.489860696   14.693554877
    0.444073456   13.147697389   15.498474682   14.701565919
    0.451252087   13.154895105   15.507242947   14.709720579
    0.458430718   13.162221296   15.516166235   14.718019561
    0.465609349   13.169676671   15.525245310   14.726463584
    0.472787980   13.177261960   15.534480952   14.735053387
    0.479966611   13.184977913   15.543873963   14.743789727
    0.487145242   13.192825302   15.553425164   14.752673381
    0.494323873   13.200804918   15.563135397   14.761705146
    0.501502504   13.208917577   15.573005527   14.770885839
    0.508681135   13.217164116   15.583036438   14.780216297
    0.515859766   13.225545398   15.593229038   14.789697380
    0.523038397   13.234062308   15.603584258   14.799329970
    0.530217028   13.242715759   15.614103054   14.809114973
    0.537395659   13.251506689   15.624786404   14.819053317
    0.544574290   13.260436066   15.635635316   14.829145956
    0.551752922   13.269504883   15.646650819   14.839393868
    0.558931553   13.278714166   15.657833974   14.849798059
    0.566110184   13.288064971   15.669185868   14.860359560
    0.573288815   13.297558386   15.680707617   14.871079434
    0.580467446   13.307195534   15.692400371   14.881958769
    0.587646077   13.316977571   15.704265307   14.892998687
    0.594824708   13.326905693   15.716303637   14.904200339
    0.602003339   13.336981132   15.728516609   14.915564911
    0.609181970   13.347205162   15.740905505   14.927093623
    0.616360601   13.357579098   15.753471645   14.938787730
    0.623539232   13.368104301   15.766216388   14.950648525
    0.630717863   13.378782177   15.779141133   14.962677340
    0.637896494   13.389614182   15.792247324   14.974875548
    0.645075125   13.400601824   15.805536448   14.987244566
    0.652253756   13.411746665   15.819010042   14.999785855
    0.659432387   13.423050326   15.832669689   15.012500923
    0.666611018   13.434514486   15.846517027   15.025391329
    0.673789649   13.446140891   15.860553750   15.038458683
    0.680968280   13.457931355   15.874781608   15.051704653
    0.688146912   13.469887763   15.889202416   15.065130962
    0.695325543   13.482012078   15.903818054   15.078739398
    0.702504174   13.494306345   15.918630469   15.092531814
    0.709682805   13.506772697   15.933641688   15.106510130
    0.716861436   13.519413357   15.948853812   15.120676344
    0.724040067   13.532230652   15.964269031   15.135032531
    0.731218698   13.545227014   15.979889624   15.149580849
    0.738397329   13.558404988   15.995717968   15.164323548
    0.745575960   13.571767244   16.011756546   15.179262974
    0.752754591   13.585316585   16.028007954   15.194401577
    0.759933222   13.599055954   16.044474909   15.209741915
    0.767111853   13.612988452   16.061160263   15.225286670
    0.774290484   13.627117344   16.078067011   15.241038652
    0.781469115   13.641446080   16.095198305   15.257000812
    0.788647746   13.655978303   16.112557469   15.273176251
    0.795826377   13.670717876   16.130148015   15.289568238
    0.803005008   13.685668894   16.147973662   15.306180222
    0.810183639   13.700835711   16.166038354   15.323015852
    0.817362270   13.716222962   16.184346289   15.340078990
    0.824540902   13.731835595   16.202901944   15.357373741
    0.831719533   13.747678901   16.221710106   15.374904473
    0.838898164   13.763758554   16.240775910   15.392675845
    0.846076795   13.780080648   16.260104880   15.410692845
    0.853255426   13.796651751   16.279702980   15.428960822
    0.860434057   13.813478960   16.299576670   15.447485533
    0.867612688   13.830569961   16.319732976   15.466273193
    0.874791319   13.847933113   16.340179566   15.485330538
    0.881969950   13.865577527   16.360924851   15.504664890
    0.889148581   13.883513179   16.381978095   15.524284248
    0.896327212   13.901751024   16.403349554   15.544197379
    0.903505843   13.920303151   16.425050638   15.564413946
    0.910684474   13.939182948   16.447094118   15.584944646
    0.917863105   13.958405324   16.469494372   15.605801389
    0.925041736   13.977986956   16.492267690   15.626997514
    0.932220367   13.997946607   16.515432658   15.648548051
    0.939398998   14.018305516   16.539010643   15.670470060
    0.946577629   14.039087879   16.563026399   15.692783044
    0.953756260   14.060321458   16.587508857   15.715509489
    0.960934891   14.082038363   16.612492141   15.738675546
    0.968113523   14.104276048   16.638016907   15.762311927
    0.975292154   14.127078619   16.664132109   15.786455086
    0.982470785   14.150498554   16.690897386   15.811148790
    0.989649416   14.174599017   16.718386294   15.836446252
    0.996828047   14.199456984   16.746690765   15.862413039
    1.004006678   14.225167544   16.775927312   15.889131121
    1.011185309   14.251849860   16.806245740   15.916704512
    1.018363940   14.279655472   16.837841402   15.945267198
    1.025542571   14.308779731   16.870972218   15.974994100
    1.032721202   14.339476841   16.905981138   16.006115548
    1.039899833   14.372076725   16.943321136   16.038933383
    1.047078464   14.406992099   16.983564102   16.073826961
    1.054257095   14.444665022   17.027312748   16.111197779
    1.061435726   14.485247038   17.074687508   16.151145017
    1.068614357   14.527195886   17.123087544   16.192047960
    1.075792988   14.561965432   17.158730865   16.225207996
    1.082971619   14.562134652   17.137747794   16.222873469
    1.090150250   14.506956820   17.026840727   16.163997200
    1.097328881   14.470624334   16.943776856   16.123233796
    1.104507513   14.493666306   16.952642089   16.141246008
    1.111686144   14.543094291   17.000364525   16.184499443
    1.118864775   14.599678693   17.055604933   16.233248249
    1.126043406   14.659009900   17.110382051   16.282572256
    1.133222037   14.721337155   17.163808770   16.332085108
    1.140400668   14.788235761   17.216672786   16.382515222
    1.147579299   14.861843658   17.270106029   16.434878822
    1.154757930   14.944668722   17.325291733   16.490302869
    1.161936561   15.039038539   17.383283542   16.549869743
    1.169115192   15.144367327   17.444257148   16.613883045
    1.176293823   15.245578611   17.504272043   16.678654160
    1.183472454   15.272233860   17.543579645   16.724527373
    1.190651085   15.037439731   17.506977283   16.691753484
    1.197829716   14.511406812   17.377816516   16.548158084
    1.205008347   14.182552133   17.302677394   16.456281041
    1.212186978   14.168497050   17.325861352   16.481369126
    1.219365609   14.267536591   17.385892085   16.553891459
    1.226544240   14.382969828   17.452136198   16.637480910
    1.233722871   14.491758164   17.517287431   16.724006796
    1.240901503   14.591843597   17.580782679   16.813861766
    1.248080134   14.685799295   17.643590837   16.909597796
    1.255258765   14.776696727   17.706893793   17.013837248
    1.262437396   14.866503192   17.771554388   17.126260848
    1.269616027   14.952699031   17.836915288   17.232347444
    1.276794658   15.016950438   17.896688911   17.265265400
    1.283973289   15.011478145   17.933320218   17.065758657
    1.291151920   14.932538252   17.940014707   16.666097945
    1.298330551   14.849890461   17.929516447   16.404432310
    1.305509182   14.794139528   17.921998125   16.310294968
    1.312687813   14.820731703   17.964296553   16.351240378
    1.319866444   14.899080152   18.041984424   16.453910861
    1.327045075   14.990455495   18.130771058   16.564549560
    1.334223706   15.080237399   18.214780319   16.667573659
    1.341402337   15.155836734   18.261382285   16.758561538
    1.348580968   15.203717735   18.229641312   16.834826950
    1.355759599   15.254088165   18.197031612   16.905554769
    1.362938230   15.336065901   18.240230471   16.975420579
    1.370116861   15.421449773   18.291501080   17.023448459
    1.377295492   15.469055599   18.297429200   17.038906744
    1.384474124   15.413567458   18.285602680   17.062897879
    1.391652755   15.160738045   18.232989770   17.101324409
    1.398831386   14.926141281   18.198937017   17.148451467
    1.406010017   14.906826264   18.234654809   17.196312577
    1.413188648   14.991028448   18.256053018   17.207846515
    1.420367279   15.096481858   18.263240255   17.202060719
    1.427545910   15.202439868   18.329750982   17.238727855
    1.434724541   15.304880671   18.435587471   17.304976146
    1.441903172   15.400421747   18.539833595   17.377699790
    1.449081803   15.474762352   18.592622535   17.446268192
    1.456260434   15.498806080   18.539727157   17.504986456
    1.463439065   15.459229727   18.452881463   17.561523935
    1.470617696   15.381444921   18.413745294   17.624615567
    1.477796327   15.361523633   18.438033460   17.696293633
    1.484974958   15.407781819   18.507429329   17.775675924
    1.492153589   15.486154086   18.603967664   17.861868141
    1.499332220   15.572999384   18.710544774   17.953392048
    1.506510851   15.652566560   18.815703889   18.043506183
    1.513689482   15.702105187   18.907605888   18.109239892
    1.520868114   15.707311518   18.977151678   18.130567731
    1.528046745   15.720009589   19.037637448   18.143332677
    1.535225376   15.750630314   19.052809454   18.098721045
    1.542404007   15.769293763   18.960193518   17.928565043
    1.549582638   15.801085720   18.829352492   17.780895624
    1.556761269   15.857645170   18.800572116   17.769398990
    1.563939900   15.914858450   18.865189413   17.825217532
    1.571118531   15.946340111   18.952712486   17.848949833
    1.578297162   15.973332071   19.041055244   17.864514709
    1.585475793   16.027552700   19.131221852   17.930609216
    1.592654424   16.097134410   19.220683776   18.022907287
    1.599833055   16.170614705   19.308118943   18.118577025
    1.607011686   16.245044524   19.393977094   18.211824473
    1.614190317   16.319882060   19.478651797   18.302241389
    1.621368948   16.392868514   19.560260840   18.389077747
    1.628547579   16.454640426   19.630197459   18.466702395
    1.635726210   16.492556723   19.678270363   18.524378558
    1.642904841   16.517264162   19.720357508   18.558701254
    1.650083472   16.546457495   19.772694441   18.581744377
    1.657262104   16.602558271   19.841951294   18.633016717
    1.664440735   16.673285404   19.911478518   18.710465647
    1.671619366   16.725498531   19.945887504   18.793012083
    1.678797997   16.760668342   19.950369631   18.875392765
    1.685976628   16.826661013   19.990666049   18.965389974
    1.693155259   16.924703619   20.066689771   19.064093083
    1.700333890   17.037199352   20.153637669   19.169058239
    1.707512521   17.150888329   20.241725630   19.275399716
    1.714691152   17.230302071   20.326719337   19.361181887
    1.721869783   17.171310971   20.401192930   19.357964080
    1.729048414   16.910145365   20.459027522   19.213579123
    1.736227045   16.701135546   20.513480294   19.067379159
    1.743405676   16.672560769   20.578055304   19.024443810
    1.750584307   16.750013175   20.656813034   19.083158328
    1.757762938   16.859782997   20.742741605   19.184401812
    1.764941569   16.970531888   20.830839550   19.291603407
    1.772120200   17.075399982   20.919949500   19.395119255
    1.779298831   17.174602786   21.010241066   19.494040233
    1.786477462   17.269749717   21.102216611   19.589370983
    1.793656093   17.362449384   21.196381235   19.682291843
    1.800834725   17.453900503   21.292789278   19.773710813
    1.808013356   17.544195070   21.389358442   19.863833192
    1.815191987   17.629948205   21.476189106   19.950831044
    1.822370618   17.701997613   21.530062979   20.029559976
    1.829549249   17.765024485   21.560033980   20.102599502
    1.836727880   17.845262905   21.625710123   20.184681839
    1.843906511   17.941845328   21.726008392   20.275798043
    1.851085142   18.040172260   21.838013276   20.370345488
    1.858263773   18.117230915   21.949967278   20.464433139
    1.865442404   18.148435097   22.055754858   20.555208344
    1.872621035   18.183479650   22.164574567   20.648375020
    1.879799666   18.263513212   22.279663501   20.746664669
    1.886978297   18.330853554   22.369009105   20.834245229
    1.894156928   18.305720751   22.378864621   20.884722768
    1.901335559   18.242924506   22.358514000   20.920524604
    1.908514190   18.274705722   22.418057415   20.989809677
    1.915692821   18.362682480   22.523164753   21.066665812
    1.922871452   18.462731751   22.637327033   21.141450957
    1.930050083   18.575395604   22.761000774   21.237367701
    1.937228715   18.692757198   22.877425417   21.343742103
    1.944407346   18.812020028   22.989997572   21.453366942
    1.951585977   18.939652978   23.124692130   21.573968299
    1.958764608   19.075759720   23.277192713   21.703492100
    1.965943239   19.216999058   23.435544989   21.836652311
    1.973121870   19.350966822   23.582946406   21.963109967
    1.980300501   19.440364237   23.680216290   22.056513754
    1.987479132   19.458068756   23.718118387   22.110730378
    1.994657763   19.408804035   23.769723706   22.174997870
    2.001836394   19.253317816   23.831737681   22.241772074
    2.009015025   19.174491431   23.937248669   22.327937125
    2.016193656   19.250537991   24.101501775   22.447193580
    2.023372287   19.362996843   24.278976275   22.549352760
    2.030550918   19.466777334   24.452507187   22.628754452
    2.037729549   19.593029637   24.625423456   22.737508948
    2.044908180   19.721426029   24.758440116   22.843409109
    2.052086811   19.829015797   24.877915777   22.946725831
    2.059265442   19.947830753   25.064215066   23.096511161
    2.066444073   20.091666487   25.271556291   23.263902127
    2.073622705   20.222928517   25.367529395   23.378920112
    2.080801336   20.296707031   25.285977041   23.414875559
    2.087979967   20.343664656   25.202506778   23.469838376
    2.095158598   20.449009690   25.272602446   23.607814584
    2.102337229   20.589362565   25.484216569   23.814361752
    2.109515860   20.691213472   25.677161382   24.044293631
    2.116694491   20.747576484   25.792366557   24.267347784
    2.123873122   20.851737182   25.893214111   24.458838497
    2.131051753   20.992267947   25.893889467   24.574603816
    2.138230384   21.111609277   25.932963653   24.678104971
    2.145409015   21.233383197   26.069230540   24.782978897
    2.152587646   21.346579053   25.989960873   24.648767680
    2.159766277   21.389399577   25.682158395   24.262095058
    2.166944908   21.426162749   25.635322695   24.137097846
    2.174123539   21.557785049   25.866749150   24.307974780
    2.181302170   21.753201566   26.156915576   24.489446597
    2.188480801   21.953714317   26.401991028   24.521919919
    2.195659432   22.148157082   26.648189668   24.584457914
    2.202838063   22.279226487   26.852906180   24.781784195
    2.210016694   22.230803201   26.891395414   24.992945129
    2.217195326   22.124345287   26.875186852   25.154976492
    2.224373957   22.139639448   26.939551231   25.236037534
    2.231552588   22.275459138   27.091517860   25.322639259
    2.238731219   22.482892844   27.354295058   25.521544580
    2.245909850   22.686289273   27.658807337   25.775784071
    2.253088481   22.887998153   27.966735139   26.049044923
    2.260267112   23.114766842   28.288022842   26.331180320
    2.267445743   23.332775208   28.615178324   26.604806358
    2.274624374   23.511796621   28.920652983   26.861687981
    2.281803005   23.647451310   29.169351643   27.091088321
    2.288981636   23.755199082   29.364643645   27.295252102
    2.296160267   23.941901190   29.616229923   27.544939681
    2.303338898   24.193577838   29.939458574   27.827349160
    2.310517529   24.370168887   30.221833034   28.024073266
    2.317696160   24.454262983   30.429015295   28.096234626
    2.324874791   24.639155346   30.691157451   28.209653298
    2.332053422   24.883999123   30.929693933   28.327161942
    2.339232053   24.951361482   30.921328807   28.370265201
    2.346410684   24.691839223   30.586719545   28.447469160
    2.353589316   24.510482899   30.414475430   28.684670085
    2.360767947   24.672473489   30.654634307   29.022668144
    2.367946578   24.973006479   31.073758141   29.359661073
    2.375125209   25.286281938   31.532376871   29.639896506
    2.382303840   25.535611659   31.960007733   29.812370039
    2.389482471   25.711260825   32.359434149   29.989770653
    2.396661102   25.826433660   32.771809567   30.247684154
    2.403839733   25.914217479   33.191298387   30.460817665
    2.411018364   26.121669435   33.647367565   30.669328096
    2.418196995   26.479070328   34.119177274   31.019859499
    2.425375626   26.850425096   34.533625141   31.458551285
    2.432554257   27.170596452   34.875059508   31.921519228
    2.439732888   27.405311137   35.201797001   32.386333782
    2.446911519   27.409201336   35.518439263   32.824537710
    2.454090150   27.137656759   35.685964452   33.233246134
    2.461268781   27.071065620   35.856496845   33.610197927
    2.468447412   27.366362021   36.124482426   33.791747432
    2.475626043   27.805817512   36.405403913   33.873547589
    2.482804674   28.281380582   36.839896010   34.185490308
    2.489983306   28.721826597   37.381650072   34.577005740
    2.497161937   29.148961406   37.953934101   35.003442624
    2.504340568   29.658311514   38.618783093   35.582257462
    2.511519199   30.207335169   39.328302668   36.235355434
    2.518697830   30.744993189   40.070138413   36.925468651
    2.525876461   31.214142186   40.850897423   37.674649068
    2.533055092   31.365437481   41.553020206   38.396991678
    2.540233723   31.294045744   42.142251161   39.030149459
