# energy grid [eV]     ieps_x  ieps_y  ieps_z
#
    0.200000000    9.615927057    9.396598239    9.687488428
    0.207178631    9.613686394    9.394447225    9.685223010
    0.214357262    9.611368041    9.392221608    9.682879047
    0.221535893    9.608972133    9.389921516    9.680456677
    0.228714524    9.606498810    9.387547079    9.677956041
    0.235893155    9.603948216    9.385098435    9.675377285
    0.243071786    9.601320500    9.382575724    9.672720561
    0.250250417    9.598615815    9.379979089    9.669986023
    0.257429048    9.595834319    9.377308680    9.667173830
    0.264607679    9.592976172    9.374564649    9.664284147
    0.271786311    9.590041541    9.371747153    9.661317142
    0.278964942    9.587030595    9.368856351    9.658272987
    0.286143573    9.583943509    9.365892408    9.655151858
    0.293322204    9.580780461    9.362855494    9.651953937
    0.300500835    9.577541634    9.359745779    9.648679408
    0.307679466    9.574227214    9.356563441    9.645328461
    0.314858097    9.570837392    9.353308659    9.641901290
    0.322036728    9.567372364    9.349981618    9.638398091
    0.329215359    9.563832327    9.346582505    9.634819066
    0.336393990    9.560217485    9.343111512    9.631164422
    0.343572621    9.556528045    9.339568833    9.627434367
    0.350751252    9.552764217    9.335954669    9.623629116
    0.357929883    9.548926217    9.332269222    9.619748886
    0.365108514    9.545014262    9.328512698    9.615793898
    0.372287145    9.541028575    9.324685308    9.611764379
    0.379465776    9.536969383    9.320787264    9.607660557
    0.386644407    9.532836915    9.316818785    9.603482666
    0.393823038    9.528631406    9.312780091    9.599230942
    0.401001669    9.524353092    9.308671407    9.594905627
    0.408180301    9.520002216    9.304492960    9.590506965
    0.415358932    9.515579021    9.300244982    9.586035204
    0.422537563    9.511083756    9.295927707    9.581490597
    0.429716194    9.506516673    9.291541374    9.576873397
    0.436894825    9.501878028    9.287086223    9.572183865
    0.444073456    9.497168080    9.282562500    9.567422263
    0.451252087    9.492387091    9.277970453    9.562588856
    0.458430718    9.487535327    9.273310333    9.557683916
    0.465609349    9.482613058    9.268582394    9.552707714
    0.472787980    9.477620555    9.263786895    9.547660526
    0.479966611    9.472558096    9.258924095    9.542542633
    0.487145242    9.467425958    9.253994260    9.537354318
    0.494323873    9.462224425    9.248997655    9.532095867
    0.501502504    9.456953783    9.243934551    9.526767569
    0.508681135    9.451614319    9.238805222    9.521369716
    0.515859766    9.446206327    9.233609942    9.515902606
    0.523038397    9.440730100    9.228348991    9.510366537
    0.530217028    9.435185937    9.223022651    9.504761810
    0.537395659    9.429574138    9.217631205    9.499088731
    0.544574290    9.423895008    9.212174943    9.493347607
    0.551752922    9.418148854    9.206654153    9.487538751
    0.558931553    9.412335985    9.201069129    9.481662475
    0.566110184    9.406456713    9.195420167    9.475719096
    0.573288815    9.400511354    9.189707563    9.469708934
    0.580467446    9.394500226    9.183931621    9.463632311
    0.587646077    9.388423649    9.178092642    9.457489552
    0.594824708    9.382281947    9.172190933    9.451280985
    0.602003339    9.376075446    9.166226802    9.445006939
    0.609181970    9.369804474    9.160200560    9.438667749
    0.616360601    9.363469361    9.154112520    9.432263748
    0.623539232    9.357070443    9.147962998    9.425795276
    0.630717863    9.350608054    9.141752312    9.419262672
    0.637896494    9.344082533    9.135480783    9.412666280
    0.645075125    9.337494220    9.129148732    9.406006444
    0.652253756    9.330843458    9.122756484    9.399283512
    0.659432387    9.324130593    9.116304367    9.392497834
    0.666611018    9.317355971    9.109792708    9.385649762
    0.673789649    9.310519944    9.103221840    9.378739650
    0.680968280    9.303622861    9.096592096    9.371767854
    0.688146912    9.296665077    9.089903809    9.364734733
    0.695325543    9.289646947    9.083157318    9.357640647
    0.702504174    9.282568830    9.076352962    9.350485958
    0.709682805    9.275431085    9.069491080    9.343271032
    0.716861436    9.268234073    9.062572017    9.335996235
    0.724040067    9.260978159    9.055596116    9.328661935
    0.731218698    9.253663706    9.048563723    9.321268501
    0.738397329    9.246291084    9.041475187    9.313816306
    0.745575960    9.238860659    9.034330856    9.306305724
    0.752754591    9.231372803    9.027131083    9.298737130
    0.759933222    9.223827888    9.019876219    9.291110900
    0.767111853    9.216226287    9.012566620    9.283427413
    0.774290484    9.208568375    9.005202640    9.275687050
    0.781469115    9.200854530    8.997784638    9.267890192
    0.788647746    9.193085129    8.990312971    9.260037222
    0.795826377    9.185260552    8.982788000    9.252128525
    0.803005008    9.177381180    8.975210087    9.244164486
    0.810183639    9.169447394    8.967579593    9.236145493
    0.817362270    9.161459580    8.959896884    9.228071935
    0.824540902    9.153418121    8.952162323    9.219944200
    0.831719533    9.145323403    8.944376277    9.211762681
    0.838898164    9.137175814    8.936539114    9.203527769
    0.846076795    9.128975742    8.928651203    9.195239858
    0.853255426    9.120723576    8.920712912    9.186899341
    0.860434057    9.112419706    8.912724613    9.178506615
    0.867612688    9.104064524    8.904686676    9.170062075
    0.874791319    9.095658422    8.896599475    9.161566120
    0.881969950    9.087201793    8.888463382    9.153019146
    0.889148581    9.078695032    8.880278773    9.144421554
    0.896327212    9.070138532    8.872046022    9.135773743
    0.903505843    9.061532690    8.863765504    9.127076114
    0.910684474    9.052877902    8.855437597    9.118329069
    0.917863105    9.044174564    8.847062677    9.109533008
    0.925041736    9.035423075    8.838641123    9.100688336
    0.932220367    9.026623834    8.830173313    9.091795455
    0.939398998    9.017777237    8.821659626    9.082854769
    0.946577629    9.008883686    8.813100442    9.073866683
    0.953756260    8.999943579    8.804496141    9.064831602
    0.960934891    8.990957318    8.795847103    9.055749931
    0.968113523    8.981925303    8.787153710    9.046622076
    0.975292154    8.972847934    8.778416343    9.037448443
    0.982470785    8.963725614    8.769635383    9.028229438
    0.989649416    8.954558744    8.760811214    9.018965469
    0.996828047    8.945347726    8.751944217    9.009656942
    1.004006678    8.936092963    8.743034775    9.000304265
    1.011185309    8.926794855    8.734083271    8.990907845
    1.018363940    8.917453807    8.725090088    8.981468089
    1.025542571    8.908070221    8.716055609    8.971985406
    1.032721202    8.898644499    8.706980217    8.962460203
    1.039899833    8.889177043    8.697864296    8.952892887
    1.047078464    8.879668258    8.688708230    8.943283867
    1.054257095    8.870118545    8.679512401    8.933633549
    1.061435726    8.860528307    8.670277193    8.923942343
    1.068614357    8.850897946    8.661002990    8.914210654
    1.075792988    8.841227865    8.651690174    8.904438891
    1.082971619    8.831518466    8.642339129    8.894627460
    1.090150250    8.821770151    8.632950237    8.884776769
    1.097328881    8.811983321    8.623523883    8.874887224
    1.104507513    8.802158378    8.614060447    8.864959231
    1.111686144    8.792295723    8.604560313    8.854993197
    1.118864775    8.782395756    8.595023862    8.844989527
    1.126043406    8.772458879    8.585451476    8.834948626
    1.133222037    8.762485490    8.575843536    8.824870900
    1.140400668    8.752475991    8.566200424    8.814756752
    1.147579299    8.742430778    8.556522520    8.804606587
    1.154757930    8.732350252    8.546810204    8.794420807
    1.161936561    8.722234809    8.537063856    8.784199816
    1.169115192    8.712084848    8.527283855    8.773944016
    1.176293823    8.701900765    8.517470579    8.763653809
    1.183472454    8.691682956    8.507624407    8.753329595
    1.190651085    8.681431817    8.497745717    8.742971775
    1.197829716    8.671147743    8.487834884    8.732580748
    1.205008347    8.660831128    8.477892286    8.722156914
    1.212186978    8.650482365    8.467918298    8.711700670
    1.219365609    8.640101847    8.457913296    8.701212414
    1.226544240    8.629689965    8.447877652    8.690692542
    1.233722871    8.619247112    8.437811741    8.680141450
    1.240901503    8.608773675    8.427715936    8.669559532
    1.248080134    8.598270046    8.417590608    8.658947184
    1.255258765    8.587736613    8.407436129    8.648304797
    1.262437396    8.577173762    8.397252868    8.637632764
    1.269616027    8.566581880    8.387041196    8.626931475
    1.276794658    8.555961354    8.376801481    8.616201321
    1.283973289    8.545312566    8.366534090    8.605442691
    1.291151920    8.534635902    8.356239390    8.594655973
    1.298330551    8.523931742    8.345917748    8.583841554
    1.305509182    8.513200469    8.335569527    8.572999819
    1.312687813    8.502442463    8.325195091    8.562131153
    1.319866444    8.491658103    8.314794803    8.551235941
    1.327045075    8.480847767    8.304369026    8.540314563
    1.334223706    8.470011831    8.293918119    8.529367402
    1.341402337    8.459150672    8.283442442    8.518394838
    1.348580968    8.448264664    8.272942354    8.507397249
    1.355759599    8.437354180    8.262418212    8.496375013
    1.362938230    8.426419592    8.251870371    8.485328506
    1.370116861    8.415461270    8.241299188    8.474258102
    1.377295492    8.404479585    8.230705016    8.463164177
    1.384474124    8.393474903    8.220088208    8.452047102
    1.391652755    8.382447593    8.209449114    8.440907248
    1.398831386    8.371398019    8.198788086    8.429744985
    1.406010017    8.360326546    8.188105472    8.418560680
    1.413188648    8.349233536    8.177401620    8.407354702
    1.420367279    8.338119350    8.166676876    8.396127414
    1.427545910    8.326984349    8.155931586    8.384879182
    1.434724541    8.315828891    8.145166092    8.373610368
    1.441903172    8.304653333    8.134380738    8.362321332
    1.449081803    8.293458030    8.123575864    8.351012435
    1.456260434    8.282243337    8.112751811    8.339684034
    1.463439065    8.271009605    8.101908916    8.328336486
    1.470617696    8.259757187    8.091047517    8.316970147
    1.477796327    8.248486432    8.080167948    8.305585368
    1.484974958    8.237197688    8.069270545    8.294182503
    1.492153589    8.225891300    8.058355640    8.282761902
    1.499332220    8.214567615    8.047423563    8.271323914
    1.506510851    8.203226976    8.036474645    8.259868885
    1.513689482    8.191869724    8.025509213    8.248397161
    1.520868114    8.180496199    8.014527596    8.236909086
    1.528046745    8.169106740    8.003530117    8.225405003
    1.535225376    8.157701684    7.992517101    8.213885251
    1.542404007    8.146281365    7.981488870    8.202350171
    1.549582638    8.134846119    7.970445744    8.190800098
    1.556761269    8.123396276    7.959388043    8.179235370
    1.563939900    8.111932167    7.948316084    8.167656319
    1.571118531    8.100454121    7.937230183    8.156063277
    1.578297162    8.088962464    7.926130656    8.144456576
    1.585475793    8.077457522    7.915017813    8.132836544
    1.592654424    8.065939618    7.903891968    8.121203508
    1.599833055    8.054409074    7.892753428    8.109557793
    1.607011686    8.042866209    7.881602504    8.097899723
    1.614190317    8.031311343    7.870439500    8.086229619
    1.621368948    8.019744792    7.859264722    8.074547802
    1.628547579    8.008166871    7.848078472    8.062854589
    1.635726210    7.996577893    7.836881053    8.051150297
    1.642904841    7.984978168    7.825672764    8.039435241
    1.650083472    7.973368007    7.814453904    8.027709733
    1.657262104    7.961747718    7.803224768    8.015974085
    1.664440735    7.950117606    7.791985651    8.004228605
    1.671619366    7.938477975    7.780736848    7.992473601
    1.678797997    7.926829128    7.769478649    7.980709379
    1.685976628    7.915171365    7.758211343    7.968936242
    1.693155259    7.903504986    7.746935220    7.957154492
    1.700333890    7.891830287    7.735650565    7.945364429
    1.707512521    7.880147563    7.724357664    7.933566351
    1.714691152    7.868457107    7.713056798    7.921760555
    1.721869783    7.856759212    7.701748250    7.909947334
    1.729048414    7.845054166    7.690432299    7.898126983
    1.736227045    7.833342257    7.679109222    7.886299791
    1.743405676    7.821623772    7.667779296    7.874466047
    1.750584307    7.809898994    7.656442795    7.862626039
    1.757762938    7.798168206    7.645099992    7.850780051
    1.764941569    7.786431688    7.633751157    7.838928367
    1.772120200    7.774689719    7.622396559    7.827071268
    1.779298831    7.762942576    7.611036467    7.815209034
    1.786477462    7.751190532    7.599671145    7.803341942
    1.793656093    7.739433862    7.588300857    7.791470268
    1.800834725    7.727672837    7.576925866    7.779594286
    1.808013356    7.715907725    7.565546432    7.767714267
    1.815191987    7.704138795    7.554162813    7.755830483
    1.822370618    7.692366311    7.542775266    7.743943201
    1.829549249    7.680590538    7.531384047    7.732052688
    1.836727880    7.668811737    7.519989408    7.720159207
    1.843906511    7.657030169    7.508591602    7.708263022
    1.851085142    7.645246090    7.497190878    7.696364393
    1.858263773    7.633459759    7.485787483    7.684463578
    1.865442404    7.621671428    7.474381666    7.672560836
    1.872621035    7.609881352    7.462973669    7.660656420
    1.879799666    7.598089779    7.451563735    7.648750583
    1.886978297    7.586296959    7.440152107    7.636843578
    1.894156928    7.574503139    7.428739022    7.624935653
    1.901335559    7.562708564    7.417324719    7.613027055
    1.908514190    7.550913478    7.405909433    7.601118031
    1.915692821    7.539118121    7.394493398    7.589208824
    1.922871452    7.527322733    7.383076847    7.577299675
    1.930050083    7.515527552    7.371660009    7.565390825
    1.937228715    7.503732813    7.360243113    7.553482512
    1.944407346    7.491938751    7.348826387    7.541574971
    1.951585977    7.480145598    7.337410056    7.529668437
    1.958764608    7.468353583    7.325994343    7.517763143
    1.965943239    7.456562936    7.314579470    7.505859318
    1.973121870    7.444773883    7.303165656    7.493957193
    1.980300501    7.432986648    7.291753121    7.482056992
    1.987479132    7.421201455    7.280342079    7.470158943
    1.994657763    7.409418525    7.268932748    7.458263267
    2.001836394    7.397638076    7.257525338    7.446370185
    2.009015025    7.385860327    7.246120062    7.434479918
    2.016193656    7.374085493    7.234717130    7.422592683
    2.023372287    7.362313788    7.223316748    7.410708696
    2.030550918    7.350545423    7.211919123    7.398828170
    2.037729549    7.338780610    7.200524460    7.386951318
    2.044908180    7.327019556    7.189132961    7.375078350
    2.052086811    7.315262468    7.177744828    7.363209474
    2.059265442    7.303509551    7.166360259    7.351344897
    2.066444073    7.291761008    7.154979452    7.339484824
    2.073622705    7.280017040    7.143602603    7.327629458
    2.080801336    7.268277847    7.132229907    7.315779000
    2.087979967    7.256543626    7.120861555    7.303933649
    2.095158598    7.244814573    7.109497739    7.292093603
    2.102337229    7.233090883    7.098138647    7.280259059
    2.109515860    7.221372747    7.086784468    7.268430209
    2.116694491    7.209660357    7.075435387    7.256607247
    2.123873122    7.197953902    7.064091588    7.244790362
    2.131051753    7.186253568    7.052753254    7.232979745
    2.138230384    7.174559541    7.041420565    7.221175580
    2.145409015    7.162872005    7.030093702    7.209378055
    2.152587646    7.151191141    7.018772840    7.197587352
    2.159766277    7.139517131    7.007458157    7.185803654
    2.166944908    7.127850152    6.996149826    7.174027140
    2.174123539    7.116190381    6.984848021    7.162257988
    2.181302170    7.104537995    6.973552912    7.150496375
    2.188480801    7.092893165    6.962264668    7.138742477
    2.195659432    7.081256064    6.950983458    7.126996466
    2.202838063    7.069626862    6.939709448    7.115258514
    2.210016694    7.058005728    6.928442802    7.103528790
    2.217195326    7.046392828    6.917183684    7.091807463
    2.224373957    7.034788327    6.905932254    7.080094700
    2.231552588    7.023192389    6.894688673    7.068390664
    2.238731219    7.011605176    6.883453099    7.056695519
    2.245909850    7.000026847    6.872225689    7.045009427
    2.253088481    6.988457562    6.861006597    7.033332547
    2.260267112    6.976897477    6.849795979    7.021665038
    2.267445743    6.965346748    6.838593985    7.010007056
    2.274624374    6.953805529    6.827400766    6.998358755
    2.281803005    6.942273970    6.816216471    6.986720290
    2.288981636    6.930752224    6.805041248    6.975091812
    2.296160267    6.919240439    6.793875243    6.963473470
    2.303338898    6.907738762    6.782718599    6.951865415
    2.310517529    6.896247339    6.771571461    6.940267791
    2.317696160    6.884766315    6.760433969    6.928680745
    2.324874791    6.873295831    6.749306264    6.917104420
    2.332053422    6.861836030    6.738188483    6.905538959
    2.339232053    6.850387050    6.727080765    6.893984501
    2.346410684    6.838949030    6.715983244    6.882441187
    2.353589316    6.827522107    6.704896054    6.870909154
    2.360767947    6.816106414    6.693819329    6.859388537
    2.367946578    6.804702087    6.682753199    6.847879471
    2.375125209    6.793309256    6.671697794    6.836382089
    2.382303840    6.781928052    6.660653242    6.824896523
    2.389482471    6.770558605    6.649619670    6.813422901
    2.396661102    6.759201041    6.638597204    6.801961354
    2.403839733    6.747855487    6.627585968    6.790512007
    2.411018364    6.736522068    6.616586084    6.779074986
    2.418196995    6.725200906    6.605597673    6.767650415
    2.425375626    6.713892123    6.594620856    6.756238417
    2.432554257    6.702595840    6.583655751    6.744839112
    2.439732888    6.691312176    6.572702474    6.733452621
    2.446911519    6.680041247    6.561761142    6.722079061
    2.454090150    6.668783170    6.550831869    6.710718550
    2.461268781    6.657538060    6.539914768    6.699371202
    2.468447412    6.646306029    6.529009951    6.688037131
    2.475626043    6.635087190    6.518117527    6.676716451
    2.482804674    6.623881652    6.507237607    6.665409272
    2.489983306    6.612689525    6.496370297    6.654115703
    2.497161937    6.601510917    6.485515704    6.642835854
    2.504340568    6.590345934    6.474673934    6.631569831
    2.511519199    6.579194681    6.463845089    6.620317740
    2.518697830    6.568057262    6.453029273    6.609079685
    2.525876461    6.556933779    6.442226586    6.597855769
    2.533055092    6.545824332    6.431437128    6.586646094
    2.540233723    6.534729022    6.420660999    6.575450759
