# energy grid [eV]     epsr_x  epsr_y  epsr_z
#
    0.200000000   16.158818778    3.109371542   16.410845931
    0.207178631   16.162510384    3.109624107   16.414511677
    0.214357262   16.166334208    3.109885647   16.418308649
    0.221535893   16.170290464    3.110156169   16.422237052
    0.228714524   16.174379375    3.110435681   16.426297100
    0.235893155   16.178601172    3.110724189   16.430489014
    0.243071786   16.182956093    3.111021703   16.434813023
    0.250250417   16.187444384    3.111328231   16.439269363
    0.257429048   16.192066298    3.111643781   16.443858277
    0.264607679   16.196822097    3.111968361   16.448580016
    0.271786311   16.201712051    3.112301981   16.453434840
    0.278964942   16.206736436    3.112644651   16.458423013
    0.286143573   16.211895539    3.112996379   16.463544809
    0.293322204   16.217189651    3.113357175   16.468800511
    0.300500835   16.222619076    3.113727050   16.474190407
    0.307679466   16.228184121    3.114106014   16.479714794
    0.314858097   16.233885105    3.114494077   16.485373976
    0.322036728   16.239722354    3.114891250   16.491168266
    0.329215359   16.245696202    3.115297544   16.497097985
    0.336393990   16.251806990    3.115712971   16.503163461
    0.343572621   16.258055070    3.116137542   16.509365029
    0.350751252   16.264440801    3.116571269   16.515703034
    0.357929883   16.270964550    3.117014165   16.522177829
    0.365108514   16.277626694    3.117466241   16.528789774
    0.372287145   16.284427617    3.117927511   16.535539238
    0.379465776   16.291367713    3.118397986   16.542426597
    0.386644407   16.298447383    3.118877682   16.549452237
    0.393823038   16.305667039    3.119366610   16.556616552
    0.401001669   16.313027100    3.119864785   16.563919942
    0.408180301   16.320527994    3.120372221   16.571362820
    0.415358932   16.328170160    3.120888932   16.578945603
    0.422537563   16.335954044    3.121414933   16.586668720
    0.429716194   16.343880101    3.121950238   16.594532607
    0.436894825   16.351948797    3.122494863   16.602537709
    0.444073456   16.360160605    3.123048822   16.610684479
    0.451252087   16.368516010    3.123612133   16.618973380
    0.458430718   16.377015504    3.124184811   16.627404885
    0.465609349   16.385659589    3.124766871   16.635979473
    0.472787980   16.394448778    3.125358331   16.644697636
    0.479966611   16.403383593    3.125959208   16.653559870
    0.487145242   16.412464564    3.126569518   16.662566686
    0.494323873   16.421692233    3.127189279   16.671718600
    0.501502504   16.431067152    3.127818509   16.681016139
    0.508681135   16.440589882    3.128457225   16.690459841
    0.515859766   16.450260994    3.129105446   16.700050250
    0.523038397   16.460081070    3.129763190   16.709787924
    0.530217028   16.470050701    3.130430477   16.719673427
    0.537395659   16.480170491    3.131107326   16.729707335
    0.544574290   16.490441052    3.131793755   16.739890233
    0.551752922   16.500863007    3.132489785   16.750222716
    0.558931553   16.511436992    3.133195435   16.760705391
    0.566110184   16.522163650    3.133910727   16.771338873
    0.573288815   16.533043639    3.134635681   16.782123787
    0.580467446   16.544077625    3.135370317   16.793060772
    0.587646077   16.555266286    3.136114657   16.804150473
    0.594824708   16.566610313    3.136868723   16.815393549
    0.602003339   16.578110406    3.137632537   16.826790668
    0.609181970   16.589767279    3.138406120   16.838342510
    0.616360601   16.601581654    3.139189495   16.850049765
    0.623539232   16.613554269    3.139982686   16.861913134
    0.630717863   16.625685871    3.140785715   16.873933331
    0.637896494   16.637977221    3.141598606   16.886111079
    0.645075125   16.650429091    3.142421382   16.898447114
    0.652253756   16.663042265    3.143254068   16.910942184
    0.659432387   16.675817541    3.144096689   16.923597046
    0.666611018   16.688755729    3.144949268   16.936412473
    0.673789649   16.701857651    3.145811832   16.949389247
    0.680968280   16.715124142    3.146684405   16.962528162
    0.688146912   16.728556052    3.147567014   16.975830026
    0.695325543   16.742154242    3.148459684   16.989295658
    0.702504174   16.755919587    3.149362442   17.002925891
    0.709682805   16.769852977    3.150275315   17.016721569
    0.716861436   16.783955313    3.151198330   17.030683551
    0.724040067   16.798227513    3.152131515   17.044812706
    0.731218698   16.812670507    3.153074897   17.059109918
    0.738397329   16.827285240    3.154028505   17.073576086
    0.745575960   16.842072671    3.154992367   17.088212118
    0.752754591   16.857033774    3.155966512   17.103018941
    0.759933222   16.872169537    3.156950969   17.117997491
    0.767111853   16.887480966    3.157945769   17.133148720
    0.774290484   16.902969078    3.158950941   17.148473596
    0.781469115   16.918634908    3.159966515   17.163973099
    0.788647746   16.934479506    3.160992522   17.179648223
    0.795826377   16.950503937    3.162028994   17.195499979
    0.803005008   16.966709285    3.163075961   17.211529391
    0.810183639   16.983096646    3.164133456   17.227737499
    0.817362270   16.999667136    3.165201512   17.244125358
    0.824540902   17.016421886    3.166280160   17.260694040
    0.831719533   17.033362043    3.167369433   17.277444629
    0.838898164   17.050488774    3.168469366   17.294378228
    0.846076795   17.067803262    3.169579992   17.311495956
    0.853255426   17.085306706    3.170701344   17.328798948
    0.860434057   17.103000325    3.171833459   17.346288354
    0.867612688   17.120885357    3.172976371   17.363965342
    0.874791319   17.138963055    3.174130114   17.381831098
    0.881969950   17.157234694    3.175294726   17.399886823
    0.889148581   17.175701566    3.176470242   17.418133739
    0.896327212   17.194364983    3.177656699   17.436573081
    0.903505843   17.213226277    3.178854135   17.455206106
    0.910684474   17.232286799    3.180062585   17.474034087
    0.917863105   17.251547920    3.181282090   17.493058317
    0.925041736   17.271011033    3.182512686   17.512280106
    0.932220367   17.290677549    3.183754413   17.531700786
    0.939398998   17.310548903    3.185007310   17.551321704
    0.946577629   17.330626550    3.186271417   17.571144231
    0.953756260   17.350911966    3.187546773   17.591169755
    0.960934891   17.371406650    3.188833420   17.611399685
    0.968113523   17.392112122    3.190131399   17.631835450
    0.975292154   17.413029928    3.191440750   17.652478502
    0.982470785   17.434161634    3.192761516   17.673330312
    0.989649416   17.455508830    3.194093740   17.694392372
    0.996828047   17.477073131    3.195437463   17.715666197
    1.004006678   17.498856175    3.196792731   17.737153325
    1.011185309   17.520859626    3.198159585   17.758855313
    1.018363940   17.543085170    3.199538072   17.780773745
    1.025542571   17.565534522    3.200928235   17.802910226
    1.032721202   17.588209422    3.202330120   17.825266383
    1.039899833   17.611111634    3.203743772   17.847843869
    1.047078464   17.634242952    3.205169239   17.870644362
    1.054257095   17.657605194    3.206606567   17.893669562
    1.061435726   17.681200208    3.208055802   17.916921197
    1.068614357   17.705029868    3.209516994   17.940401016
    1.075792988   17.729096080    3.210990190   17.964110799
    1.082971619   17.753400774    3.212475440   17.988052349
    1.090150250   17.777945914    3.213972792   18.012227497
    1.097328881   17.802733491    3.215482297   18.036638100
    1.104507513   17.827765529    3.217004005   18.061286044
    1.111686144   17.853044082    3.218537967   18.086173242
    1.118864775   17.878571236    3.220084235   18.111301635
    1.126043406   17.904349107    3.221642861   18.136673195
    1.133222037   17.930379847    3.223213898   18.162289922
    1.140400668   17.956665640    3.224797399   18.188153846
    1.147579299   17.983208705    3.226393417   18.214267028
    1.154757930   18.010011292    3.228002009   18.240631559
    1.161936561   18.037075692    3.229623227   18.267249563
    1.169115192   18.064404227    3.231257129   18.294123195
    1.176293823   18.091999257    3.232903770   18.321254643
    1.183472454   18.119863181    3.234563207   18.348646129
    1.190651085   18.147998434    3.236235497   18.376299906
    1.197829716   18.176407486    3.237920700   18.404218265
    1.205008347   18.205092836    3.239618872   18.432403528
    1.212186978   18.234057002    3.241330075   18.460858048
    1.219365609   18.263302573    3.243054367   18.489584222
    1.226544240   18.292832281    3.244791809   18.518584498
    1.233722871   18.322648820    3.246542463   18.547861348
    1.240901503   18.352754873    3.248306390   18.577417278
    1.248080134   18.383153188    3.250083654   18.607254831
    1.255258765   18.413846569    3.251874317   18.637376595
    1.262437396   18.444837874    3.253678443   18.667785199
    1.269616027   18.476130004    3.255496097   18.698483312
    1.276794658   18.507725910    3.257327345   18.729473645
    1.283973289   18.539628591    3.259172252   18.760758954
    1.291151920   18.571841096    3.261030885   18.792342034
    1.298330551   18.604366522    3.262903312   18.824225722
    1.305509182   18.637208021    3.264789600   18.856412893
    1.312687813   18.670368796    3.266689820   18.888906481
    1.319866444   18.703852103    3.268604040   18.921709503
    1.327045075   18.737661254    3.270532330   18.954824990
    1.334223706   18.771799615    3.272474764   18.988256004
    1.341402337   18.806270612    3.274431411   19.022005668
    1.348580968   18.841077728    3.276402345   19.056077159
    1.355759599   18.876224504    3.278387640   19.090473707
    1.362938230   18.911714543    3.280387370   19.125198594
    1.370116861   18.947551511    3.282401609   19.160255158
    1.377295492   18.983739137    3.284430435   19.195646790
    1.384474124   19.020281214    3.286473924   19.231376939
    1.391652755   19.057181601    3.288532154   19.267449109
    1.398831386   19.094444227    3.290605202   19.303866865
    1.406010017   19.132073087    3.292693149   19.340633830
    1.413188648   19.170072249    3.294796075   19.377753688
    1.420367279   19.208445852    3.296914061   19.415230185
    1.427545910   19.247198110    3.299047189   19.453067133
    1.434724541   19.286333311    3.301195541   19.491268404
    1.441903172   19.325855822    3.303359203   19.529837941
    1.449081803   19.365770088    3.305538258   19.568779753
    1.456260434   19.406080635    3.307732792   19.608097916
    1.463439065   19.446792072    3.309942892   19.647796579
    1.470617696   19.487909092    3.312168646   19.687879963
    1.477796327   19.529436475    3.314410142   19.728352361
    1.484974958   19.571379090    3.316667470   19.769218144
    1.492153589   19.613741897    3.318940721   19.810481757
    1.499332220   19.656529947    3.321229985   19.852147725
    1.506510851   19.699748388    3.323535356   19.894220655
    1.513689482   19.743402464    3.325856928   19.936705234
    1.520868114   19.787497522    3.328194795   19.979606234
    1.528046745   19.832039006    3.330549053   20.022928513
    1.535225376   19.877032470    3.332919798   20.066677017
    1.542404007   19.922483572    3.335307130   20.110856784
    1.549582638   19.968398080    3.337711147   20.155472940
    1.556761269   20.014781877    3.340131949   20.200530705
    1.563939900   20.061640960    3.342569638   20.246035384
    1.571118531   20.108981444    3.345024316   20.291992348
    1.578297162   20.156809566    3.347496087   20.338407076
    1.585475793   20.205131690    3.349985055   20.385285309
    1.592654424   20.253954306    3.352491328   20.432632852
    1.599833055   20.303284036    3.355015013   20.480455486
    1.607011686   20.353127635    3.357556218   20.528759122
    1.614190317   20.403491999    3.360115053   20.577549812
    1.621368948   20.454384163    3.362691629   20.626833733
    1.628547579   20.505811311    3.365286058   20.676617181
    1.635726210   20.557780776    3.367898455   20.726906579
    1.642904841   20.610300041    3.370528934   20.777708472
    1.650083472   20.663376747    3.373177613   20.829029533
    1.657262104   20.717018675    3.375844608   20.880876567
    1.664440735   20.771233726    3.378530039   20.933256506
    1.671619366   20.826029997    3.381234027   20.986176424
    1.678797997   20.881416002    3.383956693   21.039643571
    1.685976628   20.937400333    3.386698163   21.093665328
    1.693155259   20.993991592    3.389458559   21.148249203
    1.700333890   21.051198611    3.392238010   21.203402864
    1.707512521   21.109030455    3.395036642   21.259134141
    1.714691152   21.167496403    3.397854587   21.315451027
    1.721869783   21.226605945    3.400691974   21.372361684
    1.729048414   21.286368786    3.403548937   21.429874444
    1.736227045   21.346794855    3.406425610   21.487997815
    1.743405676   21.407894308    3.409322130   21.546740486
    1.750584307   21.469677535    3.412238633   21.606111332
    1.757762938   21.532155170    3.415175260   21.666119419
    1.764941569   21.595338098    3.418132152   21.726774010
    1.772120200   21.659237460    3.421109451   21.788084568
    1.779298831   21.723864663    3.424107303   21.850060767
    1.786477462   21.789231389    3.427125854   21.912712492
    1.793656093   21.855349604    3.430165252   21.976049848
    1.800834725   21.922231564    3.433225648   22.040083168
    1.808013356   21.989889828    3.436307193   22.104823017
    1.815191987   22.058337267    3.439410043   22.170280200
    1.822370618   22.127587070    3.442534352   22.236465769
    1.829549249   22.197652759    3.445680280   22.303391031
    1.836727880   22.268548208    3.448847986   22.371067555
    1.843906511   22.340287642    3.452037633   22.439507179
    1.851085142   22.412885653    3.455249385   22.508722022
    1.858263773   22.486357206    3.458483408   22.578724489
    1.865442404   22.560717665    3.461739871   22.649527280
    1.872621035   22.635982794    3.465018944   22.721143401
    1.879799666   22.712168786    3.468320801   22.793586175
    1.886978297   22.789292277    3.471645619   22.866869249
    1.894156928   22.867370348    3.474993574   22.941006606
    1.901335559   22.946420541    3.478364846   23.016012575
    1.908514190   23.026460888    3.481759619   23.091901845
    1.915692821   23.107509926    3.485178077   23.168689472
    1.922871452   23.189586711    3.488620408   23.246390898
    1.930050083   23.272710843    3.492086802   23.325021957
    1.937228715   23.356902485    3.495577452   23.404598894
    1.944407346   23.442182380    3.499092553   23.485138376
    1.951585977   23.528571873    3.502632303   23.566657507
    1.958764608   23.616092926    3.506196901   23.649173841
    1.965943239   23.704768149    3.509786549   23.732705405
    1.973121870   23.794620911    3.513401457   23.817270709
    1.980300501   23.885675293    3.517041840   23.902888769
    1.987479132   23.977956024    3.520707907   23.989579117
    1.994657763   24.071488583    3.524399872   24.077361823
    2.001836394   24.166299232    3.528117954   24.166257516
    2.009015025   24.262415176    3.531862374   24.256287412
    2.016193656   24.359864597    3.535633357   24.347473332
    2.023372287   24.458676413    3.539431132   24.439837704
    2.030550918   24.558880437    3.543255928   24.533403582
    2.037729549   24.660507513    3.547107981   24.628194707
    2.044908180   24.763589559    3.550987531   24.724235618
    2.052086811   24.868159531    3.554894823   24.821551505
    2.059265442   24.974251466    3.558830101   24.920168257
    2.066444073   25.081900581    3.562793612   25.020112603
    2.073622705   25.191143396    3.566785608   25.121412102
    2.080801336   25.302017990    3.570806351   25.224095258
    2.087979967   25.414563490    3.574856099   25.328191339
    2.095158598   25.528820213    3.578935102   25.433730453
    2.102337229   25.644830128    3.583043626   25.540743804
    2.109515860   25.762637140    3.587181978   25.649263695
    2.116694491   25.882286555    3.591350442   25.759323343
    2.123873122   26.003825199    3.595549287   25.870957033
    2.131051753   26.127301773    3.599778795   25.984200221
    2.138230384   26.252766917    3.604039254   26.099089557
    2.145409015   26.380273273    3.608330950   26.215662897
    2.152587646   26.509875576    3.612654169   26.333959341
    2.159766277   26.641630815    3.617009229   26.454019559
    2.166944908   26.775598348    3.621396480   26.575885861
    2.174123539   26.911839941    3.625816236   26.699601716
    2.181302170   27.050419953    3.630268799   26.825212067
    2.188480801   27.191405499    3.634754491   26.952763499
    2.195659432   27.334866602    3.639273644   27.082304329
    2.202838063   27.480876333    3.643826600   27.213884979
    2.210016694   27.629510946    3.648413702   27.347557706
    2.217195326   27.780850275    3.653035297   27.483376578
    2.224373957   27.934978114    3.657691751   27.621398175
    2.231552588   28.091981814    3.662383426   27.761680988
    2.238731219   28.251952614    3.667110681   27.904285624
    2.245909850   28.414986467    3.671873877   28.049275217
    2.253088481   28.581184326    3.676673404   28.196715628
    2.260267112   28.750651772    3.681509686   28.346675589
    2.267445743   28.923499596    3.686383119   28.499226562
    2.274624374   29.099844346    3.691294094   28.654443007
    2.281803005   29.279808687    3.696243020   28.812402643
    2.288981636   29.463521802    3.701230317   28.973186612
    2.296160267   29.651119837    3.706256412   29.136879677
    2.303338898   29.842746403    3.711321745   29.303570428
    2.310517529   30.038553132    3.716426760   29.473351519
    2.317696160   30.238700266    3.721571912   29.646319914
    2.324874791   30.443357325    3.726757660   29.822577153
    2.332053422   30.652703816    3.731984466   30.002229630
    2.339232053   30.866930029    3.737252802   30.185388939
    2.346410684   31.086237919    3.742563198   30.372172347
    2.353589316   31.310842041    3.747916180   30.562702981
    2.360767947   31.540970600    3.753312246   30.757110178
    2.367946578   31.776866626    3.758751916   30.955530035
    2.375125209   32.018789262    3.764235727   31.158105897
    2.382303840   32.267015189    3.769764226   31.364988845
    2.389482471   32.521840203    3.775337964   31.576338256
    2.396661102   32.783580943    3.780957449   31.792322355
    2.403839733   33.052576817    3.786623111   32.013118828
    2.411018364   33.329192477    3.792335569   32.238915931
    2.418196995   33.613820474    3.798095823   32.469913557
    2.425375626   33.906883184    3.803904400   32.706322967
    2.432554257   34.208836135    3.809761596   32.948368042
    2.439732888   34.520172390    3.815668313   33.196287572
    2.446911519   34.841426359    3.821625614   33.450336128
    2.454090150   35.173177308    3.827634037   33.710784018
    2.461268781   35.516054914    3.833694129   33.977919395
    2.468447412   35.870745398    3.839806511   34.252050332
    2.475626043   36.237998493    3.845971853   34.533506524
    2.482804674   36.618635692    3.852191103   34.822641894
    2.489983306   37.013558187    3.858465143   35.119836164
    2.497161937   37.423756788    3.864794522   35.425496773
    2.504340568   37.850324889    3.871180083   35.740062464
    2.511519199   38.294472546    3.877622991   36.064006794
    2.518697830   38.757542505    3.884124026   36.397842219
    2.525876461   39.241029918    3.890684144   36.742123602
    2.533055092   39.746605314    3.897304629   37.097453327
    2.540233723   40.276140850    3.903986422   37.464486337
