# energy grid [eV]     ieps_x  ieps_y  ieps_z
#
    0.200000000   10.263454440    1.160707317   10.271709655
    0.207178631   10.261169891    1.160676178   10.269460612
    0.214357262   10.258806056    1.160643955   10.267133480
    0.221535893   10.256363065    1.160610648   10.264728383
    0.228714524   10.253841052    1.160576259   10.262245451
    0.235893155   10.251240158    1.160540790   10.259684817
    0.243071786   10.248560524    1.160504242   10.257046617
    0.250250417   10.245802299    1.160466617   10.254330994
    0.257429048   10.242965634    1.160427915   10.251538092
    0.264607679   10.240050685    1.160388140   10.248668060
    0.271786311   10.237057612    1.160347292   10.245721051
    0.278964942   10.233986578    1.160305374   10.242697223
    0.286143573   10.230837752    1.160262387   10.239596736
    0.293322204   10.227611305    1.160218332   10.236419755
    0.300500835   10.224307415    1.160173212   10.233166448
    0.307679466   10.220926260    1.160127029   10.229836989
    0.314858097   10.217468025    1.160079785   10.226431554
    0.322036728   10.213932898    1.160031481   10.222950322
    0.329215359   10.210321071    1.159982120   10.219393479
    0.336393990   10.206632739    1.159931703   10.215761210
    0.343572621   10.202868103    1.159880234   10.212053708
    0.350751252   10.199027366    1.159827713   10.208271168
    0.357929883   10.195110735    1.159774143   10.204413788
    0.365108514   10.191118421    1.159719527   10.200481771
    0.372287145   10.187050639    1.159663867   10.196475322
    0.379465776   10.182907608    1.159607164   10.192394652
    0.386644407   10.178689550    1.159549422   10.188239974
    0.393823038   10.174396690    1.159490643   10.184011504
    0.401001669   10.170029259    1.159430829   10.179709461
    0.408180301   10.165587489    1.159369982   10.175334071
    0.415358932   10.161071618    1.159308106   10.170885560
    0.422537563   10.156481884    1.159245203   10.166364158
    0.429716194   10.151818533    1.159181275   10.161770099
    0.436894825   10.147081810    1.159116325   10.157103621
    0.444073456   10.142271968    1.159050356   10.152364963
    0.451252087   10.137389259    1.158983371   10.147554370
    0.458430718   10.132433941    1.158915371   10.142672089
    0.465609349   10.127406274    1.158846361   10.137718370
    0.472787980   10.122306524    1.158776342   10.132693466
    0.479966611   10.117134955    1.158705318   10.127597634
    0.487145242   10.111891840    1.158633292   10.122431133
    0.494323873   10.106577452    1.158560266   10.117194228
    0.501502504   10.101192067    1.158486244   10.111887182
    0.508681135   10.095735965    1.158411228   10.106510265
    0.515859766   10.090209430    1.158335222   10.101063750
    0.523038397   10.084612746    1.158258228   10.095547910
    0.530217028   10.078946203    1.158180251   10.089963024
    0.537395659   10.073210093    1.158101292   10.084309372
    0.544574290   10.067404711    1.158021355   10.078587237
    0.551752922   10.061530354    1.157940444   10.072796906
    0.558931553   10.055587322    1.157858562   10.066938668
    0.566110184   10.049575920    1.157775711   10.061012815
    0.573288815   10.043496452    1.157691895   10.055019640
    0.580467446   10.037349228    1.157607118   10.048959441
    0.587646077   10.031134560    1.157521384   10.042832518
    0.594824708   10.024852761    1.157434694   10.036639172
    0.602003339   10.018504148    1.157347053   10.030379710
    0.609181970   10.012089040    1.157258465   10.024054438
    0.616360601   10.005607759    1.157168932   10.017663666
    0.623539232    9.999060630    1.157078459   10.011207706
    0.630717863    9.992447978    1.156987049   10.004686873
    0.637896494    9.985770134    1.156894705    9.998101485
    0.645075125    9.979027429    1.156801432    9.991451859
    0.652253756    9.972220196    1.156707232    9.984738319
    0.659432387    9.965348771    1.156612110    9.977961188
    0.666611018    9.958413493    1.156516069    9.971120792
    0.673789649    9.951414702    1.156419114    9.964217459
    0.680968280    9.944352741    1.156321247    9.957251520
    0.688146912    9.937227955    1.156222472    9.950223307
    0.695325543    9.930040691    1.156122794    9.943133155
    0.702504174    9.922791296    1.156022217    9.935981400
    0.709682805    9.915480123    1.155920743    9.928768381
    0.716861436    9.908107524    1.155818378    9.921494438
    0.724040067    9.900673854    1.155715124    9.914159915
    0.731218698    9.893179469    1.155610987    9.906765154
    0.738397329    9.885624727    1.155505969    9.899310502
    0.745575960    9.878009990    1.155400076    9.891796307
    0.752754591    9.870335618    1.155293310    9.884222919
    0.759933222    9.862601975    1.155185677    9.876590688
    0.767111853    9.854809428    1.155077180    9.868899969
    0.774290484    9.846958341    1.154967822    9.861151114
    0.781469115    9.839049085    1.154857610    9.853344481
    0.788647746    9.831082029    1.154746546    9.845480427
    0.795826377    9.823057544    1.154634634    9.837559311
    0.803005008    9.814976004    1.154521879    9.829581495
    0.810183639    9.806837783    1.154408286    9.821547340
    0.817362270    9.798643256    1.154293858    9.813457209
    0.824540902    9.790392801    1.154178599    9.805311468
    0.831719533    9.782086795    1.154062514    9.797110483
    0.838898164    9.773725620    1.153945608    9.788854621
    0.846076795    9.765309654    1.153827883    9.780544251
    0.853255426    9.756839281    1.153709346    9.772179743
    0.860434057    9.748314883    1.153590000    9.763761468
    0.867612688    9.739736845    1.153469849    9.755289798
    0.874791319    9.731105552    1.153348898    9.746765106
    0.881969950    9.722421389    1.153227151    9.738187767
    0.889148581    9.713684745    1.153104614    9.729558156
    0.896327212    9.704896008    1.152981289    9.720876649
    0.903505843    9.696055565    1.152857182    9.712143624
    0.910684474    9.687163808    1.152732297    9.703359459
    0.917863105    9.678221127    1.152606638    9.694524532
    0.925041736    9.669227913    1.152480211    9.685639224
    0.932220367    9.660184558    1.152353019    9.676703915
    0.939398998    9.651091456    1.152225067    9.667718986
    0.946577629    9.641949000    1.152096360    9.658684821
    0.953756260    9.632757584    1.151966902    9.649601800
    0.960934891    9.623517603    1.151836697    9.640470308
    0.968113523    9.614229452    1.151705751    9.631290729
    0.975292154    9.604893527    1.151574068    9.622063448
    0.982470785    9.595510223    1.151441653    9.612788848
    0.989649416    9.586079939    1.151308510    9.603467317
    0.996828047    9.576603070    1.151174643    9.594099240
    1.004006678    9.567080014    1.151040058    9.584685003
    1.011185309    9.557511170    1.150904759    9.575224993
    1.018363940    9.547896934    1.150768750    9.565719599
    1.025542571    9.538237706    1.150632037    9.556169206
    1.032721202    9.528533883    1.150494624    9.546574204
    1.039899833    9.518785865    1.150356516    9.536934980
    1.047078464    9.508994050    1.150217717    9.527251923
    1.054257095    9.499158837    1.150078233    9.517525420
    1.061435726    9.489280625    1.149938067    9.507755861
    1.068614357    9.479359813    1.149797225    9.497943635
    1.075792988    9.469396801    1.149655711    9.488089131
    1.082971619    9.459391987    1.149513530    9.478192736
    1.090150250    9.449345770    1.149370687    9.468254841
    1.097328881    9.439258549    1.149227187    9.458275835
    1.104507513    9.429130723    1.149083034    9.448256106
    1.111686144    9.418962691    1.148938233    9.438196043
    1.118864775    9.408754850    1.148792788    9.428096034
    1.126043406    9.398507599    1.148646706    9.417956470
    1.133222037    9.388221336    1.148499989    9.407777737
    1.140400668    9.377896459    1.148352644    9.397560225
    1.147579299    9.367533365    1.148204675    9.387304321
    1.154757930    9.357132450    1.148056086    9.377010413
    1.161936561    9.346694112    1.147906883    9.366678889
    1.169115192    9.336218747    1.147757070    9.356310136
    1.176293823    9.325706750    1.147606653    9.345904541
    1.183472454    9.315158517    1.147455635    9.335462490
    1.190651085    9.304574442    1.147304021    9.324984369
    1.197829716    9.293954920    1.147151818    9.314470565
    1.205008347    9.283300345    1.146999028    9.303921462
    1.212186978    9.272611110    1.146845658    9.293337445
    1.219365609    9.261887607    1.146691711    9.282718898
    1.226544240    9.251130228    1.146537194    9.272066205
    1.233722871    9.240339365    1.146382109    9.261379750
    1.240901503    9.229515408    1.146226463    9.250659915
    1.248080134    9.218658746    1.146070260    9.239907081
    1.255258765    9.207769770    1.145913505    9.229121630
    1.262437396    9.196848868    1.145756203    9.218303943
    1.269616027    9.185896426    1.145598358    9.207454400
    1.276794658    9.174912832    1.145439975    9.196573380
    1.283973289    9.163898473    1.145281059    9.185661262
    1.291151920    9.152853731    1.145121616    9.174718422
    1.298330551    9.141778993    1.144961649    9.163745240
    1.305509182    9.130674642    1.144801163    9.152742089
    1.312687813    9.119541059    1.144640164    9.141709347
    1.319866444    9.108378626    1.144478655    9.130647386
    1.327045075    9.097187723    1.144316642    9.119556582
    1.334223706    9.085968730    1.144154130    9.108437306
    1.341402337    9.074722026    1.143991124    9.097289931
    1.348580968    9.063447987    1.143827627    9.086114827
    1.355759599    9.052146989    1.143663645    9.074912364
    1.362938230    9.040819409    1.143499183    9.063682912
    1.370116861    9.029465620    1.143334245    9.052426837
    1.377295492    9.018085995    1.143168836    9.041144507
    1.384474124    9.006680906    1.143002960    9.029836289
    1.391652755    8.995250724    1.142836624    9.018502545
    1.398831386    8.983795817    1.142669830    9.007143641
    1.406010017    8.972316555    1.142502585    8.995759939
    1.413188648    8.960813304    1.142334892    8.984351800
    1.420367279    8.949286430    1.142166757    8.972919584
    1.427545910    8.937736298    1.141998183    8.961463652
    1.434724541    8.926163270    1.141829177    8.949984360
    1.441903172    8.914567709    1.141659742    8.938482066
    1.449081803    8.902949976    1.141489883    8.926957125
    1.456260434    8.891310430    1.141319604    8.915409891
    1.463439065    8.879649428    1.141148911    8.903840718
    1.470617696    8.867967328    1.140977808    8.892249958
    1.477796327    8.856264484    1.140806300    8.880637961
    1.484974958    8.844541251    1.140634391    8.869005076
    1.492153589    8.832797981    1.140462086    8.857351652
    1.499332220    8.821035025    1.140289390    8.845678035
    1.506510851    8.809252732    1.140116306    8.833984570
    1.513689482    8.797451452    1.139942840    8.822271602
    1.520868114    8.785631529    1.139768997    8.810539473
    1.528046745    8.773793311    1.139594780    8.798788524
    1.535225376    8.761937139    1.139420195    8.787019095
    1.542404007    8.750063358    1.139245246    8.775231525
    1.549582638    8.738172307    1.139069937    8.763426150
    1.556761269    8.726264325    1.138894273    8.751603307
    1.563939900    8.714339750    1.138718258    8.739763329
    1.571118531    8.702398919    1.138541898    8.727906548
    1.578297162    8.690442166    1.138365196    8.716033298
    1.585475793    8.678469823    1.138188156    8.704143906
    1.592654424    8.666482223    1.138010785    8.692238701
    1.599833055    8.654479695    1.137833085    8.680318011
    1.607011686    8.642462567    1.137655061    8.668382160
    1.614190317    8.630431165    1.137476718    8.656431472
    1.621368948    8.618385816    1.137298060    8.644466269
    1.628547579    8.606326842    1.137119091    8.632486872
    1.635726210    8.594254564    1.136939816    8.620493599
    1.642904841    8.582169303    1.136760240    8.608486770
    1.650083472    8.570071378    1.136580366    8.596466699
    1.657262104    8.557961105    1.136400199    8.584433700
    1.664440735    8.545838799    1.136219743    8.572388087
    1.671619366    8.533704773    1.136039003    8.560330171
    1.678797997    8.521559339    1.135857982    8.548260262
    1.685976628    8.509402808    1.135676686    8.536178667
    1.693155259    8.497235486    1.135495117    8.524085693
    1.700333890    8.485057682    1.135313282    8.511981644
    1.707512521    8.472869700    1.135131183    8.499866824
    1.714691152    8.460671843    1.134948826    8.487741534
    1.721869783    8.448464412    1.134766214    8.475606074
    1.729048414    8.436247708    1.134583351    8.463460742
    1.736227045    8.424022028    1.134400242    8.451305835
    1.743405676    8.411787668    1.134216890    8.439141647
    1.750584307    8.399544923    1.134033301    8.426968472
    1.757762938    8.387294085    1.133849477    8.414786601
    1.764941569    8.375035446    1.133665424    8.402596324
    1.772120200    8.362769295    1.133481145    8.390397929
    1.779298831    8.350495919    1.133296644    8.378191703
    1.786477462    8.338215604    1.133111926    8.365977930
    1.793656093    8.325928633    1.132926994    8.353756893
    1.800834725    8.313635290    1.132741853    8.341528874
    1.808013356    8.301335854    1.132556506    8.329294153
    1.815191987    8.289030603    1.132370958    8.317053007
    1.822370618    8.276719816    1.132185212    8.304805712
    1.829549249    8.264403766    1.131999273    8.292552543
    1.836727880    8.252082727    1.131813143    8.280293773
    1.843906511    8.239756970    1.131626829    8.268029673
    1.851085142    8.227426766    1.131440332    8.255760513
    1.858263773    8.215092381    1.131253657    8.243486559
    1.865442404    8.202754082    1.131066809    8.231208078
    1.872621035    8.190412133    1.130879790    8.218925333
    1.879799666    8.178066797    1.130692605    8.206638588
    1.886978297    8.165718335    1.130505257    8.194348103
    1.894156928    8.153367005    1.130317751    8.182054137
    1.901335559    8.141013064    1.130130090    8.169756948
    1.908514190    8.128656768    1.129942277    8.157456789
    1.915692821    8.116298370    1.129754318    8.145153917
    1.922871452    8.103938122    1.129566214    8.132848581
    1.930050083    8.091576274    1.129377970    8.120541034
    1.937228715    8.079213074    1.129189591    8.108231522
    1.944407346    8.066848768    1.129001078    8.095920294
    1.951585977    8.054483601    1.128812437    8.083607593
    1.958764608    8.042117816    1.128623670    8.071293664
    1.965943239    8.029751653    1.128434782    8.058978748
    1.973121870    8.017385352    1.128245776    8.046663085
    1.980300501    8.005019149    1.128056655    8.034346913
    1.987479132    7.992653282    1.127867423    8.022030468
    1.994657763    7.980287983    1.127678084    8.009713985
    2.001836394    7.967923485    1.127488641    7.997397697
    2.009015025    7.955560017    1.127299098    7.985081834
    2.016193656    7.943197808    1.127109458    7.972766628
    2.023372287    7.930837086    1.126919724    7.960452304
    2.030550918    7.918478074    1.126729900    7.948139089
    2.037729549    7.906120997    1.126539991    7.935827208
    2.044908180    7.893766074    1.126349997    7.923516883
    2.052086811    7.881413527    1.126159925    7.911208335
    2.059265442    7.869063573    1.125969776    7.898901782
    2.066444073    7.856716427    1.125779554    7.886597443
    2.073622705    7.844372305    1.125589262    7.874295533
    2.080801336    7.832031419    1.125398905    7.861996265
    2.087979967    7.819693980    1.125208484    7.849699853
    2.095158598    7.807360197    1.125018003    7.837406507
    2.102337229    7.795030277    1.124827466    7.825116435
    2.109515860    7.782704426    1.124636876    7.812829845
    2.116694491    7.770382848    1.124446236    7.800546942
    2.123873122    7.758065745    1.124255549    7.788267930
    2.131051753    7.745753317    1.124064819    7.775993012
    2.138230384    7.733445764    1.123874048    7.763722387
    2.145409015    7.721143282    1.123683240    7.751456254
    2.152587646    7.708846067    1.123492398    7.739194810
    2.159766277    7.696554312    1.123301525    7.726938251
    2.166944908    7.684268209    1.123110624    7.714686771
    2.174123539    7.671987949    1.122919698    7.702440561
    2.181302170    7.659713720    1.122728750    7.690199812
    2.188480801    7.647445709    1.122537784    7.677964713
    2.195659432    7.635184100    1.122346801    7.665735451
    2.202838063    7.622929079    1.122155806    7.653512211
    2.210016694    7.610680826    1.121964802    7.641295177
    2.217195326    7.598439521    1.121773790    7.629084531
    2.224373957    7.586205344    1.121582774    7.616880454
    2.231552588    7.573978470    1.121391758    7.604683125
    2.238731219    7.561759076    1.121200743    7.592492721
    2.245909850    7.549547335    1.121009734    7.580309418
    2.253088481    7.537343419    1.120818732    7.568133390
    2.260267112    7.525147498    1.120627740    7.555964810
    2.267445743    7.512959741    1.120436762    7.543803847
    2.274624374    7.500780314    1.120245800    7.531650673
    2.281803005    7.488609385    1.120054856    7.519505453
    2.288981636    7.476447116    1.119863935    7.507368356
    2.296160267    7.464293670    1.119673038    7.495239544
    2.303338898    7.452149207    1.119482168    7.483119182
    2.310517529    7.440013887    1.119291328    7.471007430
    2.317696160    7.427887867    1.119100520    7.458904449
    2.324874791    7.415771303    1.118909748    7.446810397
    2.332053422    7.403664350    1.118719013    7.434725430
    2.339232053    7.391567160    1.118528319    7.422649704
    2.346410684    7.379479886    1.118337668    7.410583373
    2.353589316    7.367402675    1.118147063    7.398526589
    2.360767947    7.355335678    1.117956506    7.386479502
    2.367946578    7.343279040    1.117766000    7.374442262
    2.375125209    7.331232908    1.117575548    7.362415016
    2.382303840    7.319197423    1.117385151    7.350397911
    2.389482471    7.307172729    1.117194812    7.338391092
    2.396661102    7.295158967    1.117004535    7.326394700
    2.403839733    7.283156275    1.116814321    7.314408879
    2.411018364    7.271164792    1.116624172    7.302433768
    2.418196995    7.259184653    1.116434092    7.290469506
    2.425375626    7.247215993    1.116244083    7.278516231
    2.432554257    7.235258946    1.116054146    7.266574079
    2.439732888    7.223313643    1.115864285    7.254643183
    2.446911519    7.211380215    1.115674501    7.242723676
    2.454090150    7.199458790    1.115484798    7.230815691
    2.461268781    7.187549497    1.115295177    7.218919358
    2.468447412    7.175652461    1.115105641    7.207034805
    2.475626043    7.163767807    1.114916191    7.195162159
    2.482804674    7.151895658    1.114726831    7.183301546
    2.489983306    7.140036137    1.114537562    7.171453091
    2.497161937    7.128189363    1.114348387    7.159616918
    2.504340568    7.116355455    1.114159308    7.147793147
    2.511519199    7.104534532    1.113970327    7.135981899
    2.518697830    7.092726709    1.113781446    7.124183293
    2.525876461    7.080932102    1.113592668    7.112397446
    2.533055092    7.069150824    1.113403994    7.100624476
    2.540233723    7.057382988    1.113215427    7.088864497
