# energy grid [eV]     ieps_x  ieps_y  ieps_z
#
    0.200000000    2.382198301    8.119568232    7.575688548
    0.207178631    2.381898449    8.117934605    7.574040234
    0.214357262    2.381588202    8.116244264    7.572334838
    0.221535893    2.381267577    8.114497301    7.570572467
    0.228714524    2.380936593    8.112693810    7.568753231
    0.235893155    2.380595271    8.110833889    7.566877242
    0.243071786    2.380243628    8.108917637    7.564944618
    0.250250417    2.379881687    8.106945157    7.562955477
    0.257429048    2.379509467    8.104916555    7.560909942
    0.264607679    2.379126990    8.102831939    7.558808141
    0.271786311    2.378734279    8.100691423    7.556650201
    0.278964942    2.378331356    8.098495118    7.554436255
    0.286143573    2.377918244    8.096243144    7.552166440
    0.293322204    2.377494966    8.093935619    7.549840893
    0.300500835    2.377061547    8.091572667    7.547459756
    0.307679466    2.376618012    8.089154412    7.545023175
    0.314858097    2.376164385    8.086680982    7.542531298
    0.322036728    2.375700692    8.084152510    7.539984274
    0.329215359    2.375226959    8.081569127    7.537382259
    0.336393990    2.374743214    8.078930970    7.534725408
    0.343572621    2.374249483    8.076238177    7.532013882
    0.350751252    2.373745793    8.073490891    7.529247842
    0.357929883    2.373232173    8.070689254    7.526427455
    0.365108514    2.372708652    8.067833414    7.523552889
    0.372287145    2.372175258    8.064923518    7.520624314
    0.379465776    2.371632021    8.061959720    7.517641904
    0.386644407    2.371078971    8.058942171    7.514605835
    0.393823038    2.370516138    8.055871030    7.511516287
    0.401001669    2.369943553    8.052746455    7.508373441
    0.408180301    2.369361247    8.049568606    7.505177482
    0.415358932    2.368769252    8.046337649    7.501928596
    0.422537563    2.368167600    8.043053747    7.498626973
    0.429716194    2.367556323    8.039717071    7.495272805
    0.436894825    2.366935455    8.036327791    7.491866286
    0.444073456    2.366305028    8.032886079    7.488407613
    0.451252087    2.365665077    8.029392111    7.484896985
    0.458430718    2.365015635    8.025846064    7.481334604
    0.465609349    2.364356737    8.022248118    7.477720674
    0.472787980    2.363688418    8.018598454    7.474055401
    0.479966611    2.363010713    8.014897258    7.470338993
    0.487145242    2.362323657    8.011144714    7.466571661
    0.494323873    2.361627287    8.007341011    7.462753618
    0.501502504    2.360921638    8.003486340    7.458885080
    0.508681135    2.360206748    7.999580892    7.454966263
    0.515859766    2.359482653    7.995624862    7.450997387
    0.523038397    2.358749391    7.991618447    7.446978673
    0.530217028    2.358007000    7.987561845    7.442910345
    0.537395659    2.357255516    7.983455256    7.438792628
    0.544574290    2.356494979    7.979298883    7.434625749
    0.551752922    2.355725427    7.975092929    7.430409938
    0.558931553    2.354946900    7.970837601    7.426145425
    0.566110184    2.354159435    7.966533106    7.421832445
    0.573288815    2.353363073    7.962179655    7.417471231
    0.580467446    2.352557854    7.957777459    7.413062021
    0.587646077    2.351743817    7.953326730    7.408605053
    0.594824708    2.350921003    7.948827684    7.404100567
    0.602003339    2.350089452    7.944280538    7.399548804
    0.609181970    2.349249205    7.939685509    7.394950009
    0.616360601    2.348400304    7.935042819    7.390304427
    0.623539232    2.347542790    7.930352688    7.385612304
    0.630717863    2.346676704    7.925615340    7.380873888
    0.637896494    2.345802088    7.920831000    7.376089429
    0.645075125    2.344918985    7.915999894    7.371259179
    0.652253756    2.344027436    7.911122249    7.366383391
    0.659432387    2.343127484    7.906198296    7.361462317
    0.666611018    2.342219172    7.901228265    7.356496215
    0.673789649    2.341302543    7.896212388    7.351485340
    0.680968280    2.340377640    7.891150899    7.346429952
    0.688146912    2.339444507    7.886044034    7.341330309
    0.695325543    2.338503186    7.880892028    7.336186673
    0.702504174    2.337553722    7.875695119    7.330999306
    0.709682805    2.336596160    7.870453547    7.325768470
    0.716861436    2.335630542    7.865167552    7.320494430
    0.724040067    2.334656913    7.859837375    7.315177452
    0.731218698    2.333675318    7.854463259    7.309817803
    0.738397329    2.332685801    7.849045449    7.304415749
    0.745575960    2.331688408    7.843584189    7.298971560
    0.752754591    2.330683183    7.838079725    7.293485506
    0.759933222    2.329670171    7.832532306    7.287957858
    0.767111853    2.328649418    7.826942180    7.282388887
    0.774290484    2.327620968    7.821309596    7.276778865
    0.781469115    2.326584869    7.815634805    7.271128067
    0.788647746    2.325541165    7.809918060    7.265436766
    0.795826377    2.324489901    7.804159611    7.259705238
    0.803005008    2.323431126    7.798359714    7.253933759
    0.810183639    2.322364883    7.792518622    7.248122606
    0.817362270    2.321291219    7.786636591    7.242272056
    0.824540902    2.320210182    7.780713878    7.236382388
    0.831719533    2.319121816    7.774750739    7.230453880
    0.838898164    2.318026169    7.768747433    7.224486812
    0.846076795    2.316923287    7.762704219    7.218481464
    0.853255426    2.315813217    7.756621356    7.212438117
    0.860434057    2.314696006    7.750499104    7.206357053
    0.867612688    2.313571700    7.744337726    7.200238553
    0.874791319    2.312440347    7.738137481    7.194082900
    0.881969950    2.311301993    7.731898635    7.187890376
    0.889148581    2.310156686    7.725621448    7.181661265
    0.896327212    2.309004473    7.719306185    7.175395851
    0.903505843    2.307845401    7.712953111    7.169094418
    0.910684474    2.306679517    7.706562491    7.162757251
    0.917863105    2.305506869    7.700134590    7.156384634
    0.925041736    2.304327505    7.693669674    7.149976853
    0.932220367    2.303141470    7.687168010    7.143534193
    0.939398998    2.301948814    7.680629865    7.137056941
    0.946577629    2.300749584    7.674055506    7.130545381
    0.953756260    2.299543827    7.667445202    7.123999801
    0.960934891    2.298331591    7.660799221    7.117420487
    0.968113523    2.297112924    7.654117832    7.110807725
    0.975292154    2.295887872    7.647401304    7.104161803
    0.982470785    2.294656485    7.640649907    7.097483006
    0.989649416    2.293418809    7.633863910    7.090771623
    0.996828047    2.292174893    7.627043583    7.084027940
    1.004006678    2.290924784    7.620189198    7.077252245
    1.011185309    2.289668530    7.613301024    7.070444824
    1.018363940    2.288406178    7.606379333    7.063605964
    1.025542571    2.287137777    7.599424396    7.056735953
    1.032721202    2.285863374    7.592436485    7.049835078
    1.039899833    2.284583018    7.585415870    7.042903625
    1.047078464    2.283296755    7.578362823    7.035941881
    1.054257095    2.282004633    7.571277617    7.028950134
    1.061435726    2.280706701    7.564160523    7.021928669
    1.068614357    2.279403006    7.557011813    7.014877773
    1.075792988    2.278093596    7.549831759    7.007797733
    1.082971619    2.276778518    7.542620633    7.000688834
    1.090150250    2.275457820    7.535378708    6.993551362
    1.097328881    2.274131550    7.528106255    6.986385603
    1.104507513    2.272799755    7.520803547    6.979191842
    1.111686144    2.271462484    7.513470855    6.971970364
    1.118864775    2.270119782    7.506108452    6.964721453
    1.126043406    2.268771698    7.498716609    6.957445394
    1.133222037    2.267418280    7.491295598    6.950142470
    1.140400668    2.266059575    7.483845692    6.942812966
    1.147579299    2.264695629    7.476367161    6.935457165
    1.154757930    2.263326491    7.468860276    6.928075349
    1.161936561    2.261952208    7.461325310    6.920667800
    1.169115192    2.260572826    7.453762533    6.913234801
    1.176293823    2.259188394    7.446172216    6.905776632
    1.183472454    2.257798957    7.438554629    6.898293576
    1.190651085    2.256404564    7.430910043    6.890785911
    1.197829716    2.255005260    7.423238728    6.883253918
    1.205008347    2.253601094    7.415540954    6.875697877
    1.212186978    2.252192111    7.407816989    6.868118066
    1.219365609    2.250778359    7.400067104    6.860514763
    1.226544240    2.249359884    7.392291567    6.852888246
    1.233722871    2.247936732    7.384490646    6.845238791
    1.240901503    2.246508950    7.376664609    6.837566675
    1.248080134    2.245076586    7.368813725    6.829872175
    1.255258765    2.243639684    7.360938261    6.822155563
    1.262437396    2.242198291    7.353038482    6.814417116
    1.269616027    2.240752453    7.345114656    6.806657107
    1.276794658    2.239302217    7.337167049    6.798875808
    1.283973289    2.237847628    7.329195926    6.791073492
    1.291151920    2.236388732    7.321201553    6.783250430
    1.298330551    2.234925575    7.313184192    6.775406893
    1.305509182    2.233458203    7.305144110    6.767543151
    1.312687813    2.231986661    7.297081568    6.759659472
    1.319866444    2.230510994    7.288996831    6.751756126
    1.327045075    2.229031249    7.280890160    6.743833380
    1.334223706    2.227547469    7.272761816    6.735891500
    1.341402337    2.226059701    7.264612063    6.727930753
    1.348580968    2.224567990    7.256441158    6.719951402
    1.355759599    2.223072380    7.248249364    6.711953713
    1.362938230    2.221572915    7.240036939    6.703937949
    1.370116861    2.220069642    7.231804141    6.695904371
    1.377295492    2.218562604    7.223551229    6.687853242
    1.384474124    2.217051845    7.215278461    6.679784822
    1.391652755    2.215537411    7.206986092    6.671699371
    1.398831386    2.214019345    7.198674379    6.663597146
    1.406010017    2.212497691    7.190343577    6.655478407
    1.413188648    2.210972493    7.181993940    6.647343409
    1.420367279    2.209443796    7.173625723    6.639192408
    1.427545910    2.207911642    7.165239178    6.631025660
    1.434724541    2.206376075    7.156834557    6.622843417
    1.441903172    2.204837139    7.148412113    6.614645933
    1.449081803    2.203294877    7.139972096    6.606433460
    1.456260434    2.201749332    7.131514756    6.598206248
    1.463439065    2.200200546    7.123040341    6.589964546
    1.470617696    2.198648564    7.114549101    6.581708605
    1.477796327    2.197093427    7.106041283    6.573438670
    1.484974958    2.195535179    7.097517134    6.565154989
    1.492153589    2.193973861    7.088976899    6.556857807
    1.499332220    2.192409515    7.080420823    6.548547369
    1.506510851    2.190842185    7.071849150    6.540223918
    1.513689482    2.189271911    7.063262124    6.531887696
    1.520868114    2.187698737    7.054659988    6.523538944
    1.528046745    2.186122702    7.046042981    6.515177903
    1.535225376    2.184543850    7.037411346    6.506804810
    1.542404007    2.182962221    7.028765321    6.498419904
    1.549582638    2.181377856    7.020105146    6.490023422
    1.556761269    2.179790797    7.011431058    6.481615599
    1.563939900    2.178201084    7.002743294    6.473196669
    1.571118531    2.176608759    6.994042090    6.464766865
    1.578297162    2.175013861    6.985327680    6.456326420
    1.585475793    2.173416432    6.976600300    6.447875564
    1.592654424    2.171816511    6.967860181    6.439414527
    1.599833055    2.170214138    6.959107556    6.430943538
    1.607011686    2.168609355    6.950342657    6.422462824
    1.614190317    2.167002199    6.941565712    6.413972610
    1.621368948    2.165392711    6.932776951    6.405473123
    1.628547579    2.163780931    6.923976602    6.396964585
    1.635726210    2.162166897    6.915164893    6.388447219
    1.642904841    2.160550649    6.906342048    6.379921247
    1.650083472    2.158932225    6.897508294    6.371386889
    1.657262104    2.157311665    6.888663854    6.362844363
    1.664440735    2.155689007    6.879808951    6.354293887
    1.671619366    2.154064289    6.870943807    6.345735678
    1.678797997    2.152437550    6.862068643    6.337169951
    1.685976628    2.150808827    6.853183678    6.328596920
    1.693155259    2.149178159    6.844289132    6.320016798
    1.700333890    2.147545584    6.835385221    6.311429796
    1.707512521    2.145911138    6.826472163    6.302836125
    1.714691152    2.144274860    6.817550173    6.294235993
    1.721869783    2.142636786    6.808619465    6.285629609
    1.729048414    2.140996954    6.799680253    6.277017178
    1.736227045    2.139355400    6.790732749    6.268398907
    1.743405676    2.137712161    6.781777163    6.259774999
    1.750584307    2.136067274    6.772813707    6.251145658
    1.757762938    2.134420774    6.763842590    6.242511083
    1.764941569    2.132772699    6.754864018    6.233871477
    1.772120200    2.131123083    6.745878198    6.225227038
    1.779298831    2.129471963    6.736885337    6.216577963
    1.786477462    2.127819375    6.727885639    6.207924450
    1.793656093    2.126165353    6.718879306    6.199266692
    1.800834725    2.124509933    6.709866542    6.190604885
    1.808013356    2.122853150    6.700847548    6.181939222
    1.815191987    2.121195038    6.691822523    6.173269892
    1.822370618    2.119535634    6.682791666    6.164597087
    1.829549249    2.117874970    6.673755175    6.155920995
    1.836727880    2.116213081    6.664713247    6.147241805
    1.843906511    2.114550002    6.655666077    6.138559702
    1.851085142    2.112885766    6.646613859    6.129874871
    1.858263773    2.111220408    6.637556787    6.121187496
    1.865442404    2.109553960    6.628495052    6.112497761
    1.872621035    2.107886456    6.619428846    6.103805845
    1.879799666    2.106217929    6.610358358    6.095111929
    1.886978297    2.104548413    6.601283776    6.086416192
    1.894156928    2.102877940    6.592205288    6.077718811
    1.901335559    2.101206542    6.583123081    6.069019962
    1.908514190    2.099534253    6.574037339    6.060319820
    1.915692821    2.097861104    6.564948246    6.051618560
    1.922871452    2.096187128    6.555855985    6.042916352
    1.930050083    2.094512356    6.546760738    6.034213369
    1.937228715    2.092836820    6.537662685    6.025509780
    1.944407346    2.091160552    6.528562006    6.016805754
    1.951585977    2.089483583    6.519458878    6.008101458
    1.958764608    2.087805943    6.510353478    5.999397058
    1.965943239    2.086127665    6.501245983    5.990692720
    1.973121870    2.084448779    6.492136567    5.981988605
    1.980300501    2.082769316    6.483025403    5.973284878
    1.987479132    2.081089305    6.473912664    5.964581699
    1.994657763    2.079408777    6.464798521    5.955879227
    2.001836394    2.077727762    6.455683143    5.947177621
    2.009015025    2.076046290    6.446566701    5.938477040
    2.016193656    2.074364390    6.437449361    5.929777637
    2.023372287    2.072682093    6.428331290    5.921079570
    2.030550918    2.070999426    6.419212653    5.912382990
    2.037729549    2.069316420    6.410093615    5.903688051
    2.044908180    2.067633104    6.400974338    5.894994904
    2.052086811    2.065949505    6.391854984    5.886303698
    2.059265442    2.064265652    6.382735715    5.877614582
    2.066444073    2.062581574    6.373616689    5.868927703
    2.073622705    2.060897300    6.364498066    5.860243209
    2.080801336    2.059212856    6.355380002    5.851561243
    2.087979967    2.057528270    6.346262653    5.842881950
    2.095158598    2.055843571    6.337146174    5.834205473
    2.102337229    2.054158786    6.328030720    5.825531951
    2.109515860    2.052473941    6.318916443    5.816861527
    2.116694491    2.050789065    6.309803494    5.808194338
    2.123873122    2.049104183    6.300692023    5.799530523
    2.131051753    2.047419322    6.291582181    5.790870218
    2.138230384    2.045734509    6.282474115    5.782213558
    2.145409015    2.044049771    6.273367971    5.773560678
    2.152587646    2.042365132    6.264263897    5.764911711
    2.159766277    2.040680620    6.255162036    5.756266789
    2.166944908    2.038996260    6.246062532    5.747626041
    2.174123539    2.037312077    6.236965527    5.738989598
    2.181302170    2.035628097    6.227871163    5.730357589
    2.188480801    2.033944345    6.218779580    5.721730139
    2.195659432    2.032260847    6.209690917    5.713107376
    2.202838063    2.030577626    6.200605311    5.704489424
    2.210016694    2.028894707    6.191522900    5.695876406
    2.217195326    2.027212116    6.182443820    5.687268446
    2.224373957    2.025529876    6.173368204    5.678665665
    2.231552588    2.023848011    6.164296187    5.670068182
    2.238731219    2.022166545    6.155227901    5.661476118
    2.245909850    2.020485503    6.146163476    5.652889590
    2.253088481    2.018804907    6.137103044    5.644308715
    2.260267112    2.017124781    6.128046733    5.635733608
    2.267445743    2.015445149    6.118994671    5.627164386
    2.274624374    2.013766032    6.109946985    5.618601160
    2.281803005    2.012087455    6.100903800    5.610044044
    2.288981636    2.010409439    6.091865243    5.601493148
    2.296160267    2.008732008    6.082831435    5.592948584
    2.303338898    2.007055183    6.073802500    5.584410459
    2.310517529    2.005378987    6.064778560    5.575878883
    2.317696160    2.003703442    6.055759734    5.567353963
    2.324874791    2.002028569    6.046746142    5.558835803
    2.332053422    2.000354390    6.037737902    5.550324509
    2.339232053    1.998680927    6.028735131    5.541820185
    2.346410684    1.997008200    6.019737946    5.533322934
    2.353589316    1.995336232    6.010746461    5.524832856
    2.360767947    1.993665042    6.001760792    5.516350054
    2.367946578    1.991994652    5.992781050    5.507874625
    2.375125209    1.990325082    5.983807347    5.499406669
    2.382303840    1.988656353    5.974839796    5.490946283
    2.389482471    1.986988484    5.965878504    5.482493564
    2.396661102    1.985321497    5.956923582    5.474048607
    2.403839733    1.983655410    5.947975138    5.465611506
    2.411018364    1.981990245    5.939033277    5.457182355
    2.418196995    1.980326019    5.930098106    5.448761247
    2.425375626    1.978662753    5.921169730    5.440348271
    2.432554257    1.977000465    5.912248252    5.431943520
    2.439732888    1.975339176    5.903333776    5.423547081
    2.446911519    1.973678903    5.894426402    5.415159044
    2.454090150    1.972019666    5.885526232    5.406779497
    2.461268781    1.970361483    5.876633365    5.398408524
    2.468447412    1.968704372    5.867747901    5.390046212
    2.475626043    1.967048352    5.858869937    5.381692645
    2.482804674    1.965393441    5.849999570    5.373347907
    2.489983306    1.963739657    5.841136896    5.365012081
    2.497161937    1.962087018    5.832282009    5.356685247
    2.504340568    1.960435541    5.823435004    5.348367486
    2.511519199    1.958785243    5.814595974    5.340058879
    2.518697830    1.957136142    5.805765010    5.331759503
    2.525876461    1.955488255    5.796942204    5.323469438
    2.533055092    1.953841600    5.788127646    5.315188759
    2.540233723    1.952196192    5.779321424    5.306917542
