# energy grid [eV]     ieps_x  ieps_y  ieps_z
#
    0.200000000    7.450042932    5.554543415    4.452957294
    0.207178631    7.448636716    5.553434209    4.452132021
    0.214357262    7.447181742    5.552286649    4.451278237
    0.221535893    7.445678094    5.551100812    4.450396002
    0.228714524    7.444125858    5.549876777    4.449485377
    0.235893155    7.442525124    5.548614627    4.448546425
    0.243071786    7.440875984    5.547314445    4.447579210
    0.250250417    7.439178531    5.545976318    4.446583800
    0.257429048    7.437432863    5.544600335    4.445560262
    0.264607679    7.435639077    5.543186587    4.444508665
    0.271786311    7.433797277    5.541735166    4.443429082
    0.278964942    7.431907566    5.540246169    4.442321585
    0.286143573    7.429970050    5.538719694    4.441186249
    0.293322204    7.427984838    5.537155839    4.440023150
    0.300500835    7.425952040    5.535554707    4.438832364
    0.307679466    7.423871771    5.533916401    4.437613972
    0.314858097    7.421744144    5.532241029    4.436368054
    0.322036728    7.419569279    5.530528697    4.435094691
    0.329215359    7.417347295    5.528779517    4.433793968
    0.336393990    7.415078313    5.526993599    4.432465968
    0.343572621    7.412762458    5.525171059    4.431110778
    0.350751252    7.410399857    5.523312012    4.429728485
    0.357929883    7.407990637    5.521416576    4.428319177
    0.365108514    7.405534929    5.519484871    4.426882946
    0.372287145    7.403032865    5.517517018    4.425419881
    0.379465776    7.400484579    5.515513141    4.423930076
    0.386644407    7.397890209    5.513473366    4.422413624
    0.393823038    7.395249891    5.511397818    4.420870620
    0.401001669    7.392563767    5.509286628    4.419301159
    0.408180301    7.389831978    5.507139925    4.417705340
    0.415358932    7.387054667    5.504957841    4.416083260
    0.422537563    7.384231982    5.502740511    4.414435018
    0.429716194    7.381364068    5.500488069    4.412760715
    0.436894825    7.378451076    5.498200654    4.411060452
    0.444073456    7.375493156    5.495878402    4.409334331
    0.451252087    7.372490461    5.493521455    4.407582456
    0.458430718    7.369443145    5.491129953    4.405804932
    0.465609349    7.366351364    5.488704041    4.404001863
    0.472787980    7.363215276    5.486243862    4.402173355
    0.479966611    7.360035039    5.483749563    4.400319517
    0.487145242    7.356810815    5.481221292    4.398440455
    0.494323873    7.353542766    5.478659196    4.396536278
    0.501502504    7.350231056    5.476063426    4.394607097
    0.508681135    7.346875849    5.473434133    4.392653021
    0.515859766    7.343477314    5.470771471    4.390674162
    0.523038397    7.340035617    5.468075593    4.388670631
    0.530217028    7.336550929    5.465346654    4.386642543
    0.537395659    7.333023420    5.462584812    4.384590009
    0.544574290    7.329453263    5.459790223    4.382513145
    0.551752922    7.325840633    5.456963047    4.380412065
    0.558931553    7.322185703    5.454103443    4.378286885
    0.566110184    7.318488650    5.451211574    4.376137721
    0.573288815    7.314749652    5.448287600    4.373964691
    0.580467446    7.310968887    5.445331685    4.371767911
    0.587646077    7.307146537    5.442343994    4.369547500
    0.594824708    7.303282782    5.439324692    4.367303576
    0.602003339    7.299377805    5.436273945    4.365036259
    0.609181970    7.295431789    5.433191921    4.362745670
    0.616360601    7.291444919    5.430078787    4.360431927
    0.623539232    7.287417382    5.426934714    4.358095152
    0.630717863    7.283349364    5.423759871    4.355735468
    0.637896494    7.279241053    5.420554428    4.353352995
    0.645075125    7.275092640    5.417318559    4.350947856
    0.652253756    7.270904313    5.414052436    4.348520175
    0.659432387    7.266676264    5.410756231    4.346070074
    0.666611018    7.262408686    5.407430120    4.343597677
    0.673789649    7.258101772    5.404074278    4.341103110
    0.680968280    7.253755716    5.400688879    4.338586495
    0.688146912    7.249370713    5.397274101    4.336047960
    0.695325543    7.244946959    5.393830121    4.333487629
    0.702504174    7.240484651    5.390357117    4.330905627
    0.709682805    7.235983988    5.386855267    4.328302082
    0.716861436    7.231445167    5.383324750    4.325677120
    0.724040067    7.226868389    5.379765746    4.323030868
    0.731218698    7.222253853    5.376178436    4.320363454
    0.738397329    7.217601761    5.372563001    4.317675004
    0.745575960    7.212912316    5.368919621    4.314965647
    0.752754591    7.208185719    5.365248480    4.312235511
    0.759933222    7.203422174    5.361549759    4.309484725
    0.767111853    7.198621886    5.357823641    4.306713417
    0.774290484    7.193785060    5.354070311    4.303921717
    0.781469115    7.188911901    5.350289952    4.301109754
    0.788647746    7.184002616    5.346482749    4.298277657
    0.795826377    7.179057411    5.342648886    4.295425557
    0.803005008    7.174076495    5.338788548    4.292553583
    0.810183639    7.169060075    5.334901922    4.289661866
    0.817362270    7.164008361    5.330989193    4.286750535
    0.824540902    7.158921563    5.327050547    4.283819723
    0.831719533    7.153799889    5.323086171    4.280869560
    0.838898164    7.148643552    5.319096253    4.277900176
    0.846076795    7.143452763    5.315080979    4.274911703
    0.853255426    7.138227732    5.311040536    4.271904273
    0.860434057    7.132968673    5.306975113    4.268878016
    0.867612688    7.127675798    5.302884898    4.265833065
    0.874791319    7.122349321    5.298770078    4.262769551
    0.881969950    7.116989455    5.294630843    4.259687607
    0.889148581    7.111596415    5.290467380    4.256587364
    0.896327212    7.106170415    5.286279879    4.253468955
    0.903505843    7.100711670    5.282068528    4.250332511
    0.910684474    7.095220397    5.277833516    4.247178165
    0.917863105    7.089696809    5.273575033    4.244006050
    0.925041736    7.084141125    5.269293268    4.240816298
    0.932220367    7.078553561    5.264988411    4.237609042
    0.939398998    7.072934332    5.260660649    4.234384413
    0.946577629    7.067283658    5.256310174    4.231142546
    0.953756260    7.061601755    5.251937175    4.227883572
    0.960934891    7.055888842    5.247541841    4.224607625
    0.968113523    7.050145136    5.243124362    4.221314837
    0.975292154    7.044370856    5.238684926    4.218005340
    0.982470785    7.038566221    5.234223725    4.214679269
    0.989649416    7.032731450    5.229740947    4.211336755
    0.996828047    7.026866761    5.225236782    4.207977931
    1.004006678    7.020972375    5.220711418    4.204602931
    1.011185309    7.015048511    5.216165047    4.201211886
    1.018363940    7.009095388    5.211597855    4.197804930
    1.025542571    7.003113226    5.207010033    4.194382195
    1.032721202    6.997102247    5.202401770    4.190943814
    1.039899833    6.991062669    5.197773254    4.187489920
    1.047078464    6.984994713    5.193124675    4.184020645
    1.054257095    6.978898600    5.188456220    4.180536122
    1.061435726    6.972774551    5.183768078    4.177036482
    1.068614357    6.966622785    5.179060437    4.173521859
    1.075792988    6.960443523    5.174333485    4.169992385
    1.082971619    6.954236987    5.169587409    4.166448191
    1.090150250    6.948003397    5.164822398    4.162889410
    1.097328881    6.941742974    5.160038639    4.159316174
    1.104507513    6.935455939    5.155236318    4.155728615
    1.111686144    6.929142512    5.150415622    4.152126864
    1.118864775    6.922802915    5.145576738    4.148511052
    1.126043406    6.916437368    5.140719852    4.144881313
    1.133222037    6.910046091    5.135845150    4.141237775
    1.140400668    6.903629307    5.130952817    4.137580572
    1.147579299    6.897187234    5.126043038    4.133909833
    1.154757930    6.890720094    5.121115999    4.130225690
    1.161936561    6.884228107    5.116171884    4.126528273
    1.169115192    6.877711494    5.111210877    4.122817713
    1.176293823    6.871170475    5.106233163    4.119094140
    1.183472454    6.864605269    5.101238923    4.115357685
    1.190651085    6.858016097    5.096228342    4.111608477
    1.197829716    6.851403178    5.091201603    4.107846645
    1.205008347    6.844766733    5.086158886    4.104072320
    1.212186978    6.838106980    5.081100375    4.100285631
    1.219365609    6.831424139    5.076026251    4.096486707
    1.226544240    6.824718429    5.070936694    4.092675676
    1.233722871    6.817990068    5.065831884    4.088852668
    1.240901503    6.811239275    5.060712003    4.085017811
    1.248080134    6.804466269    5.055577230    4.081171232
    1.255258765    6.797671267    5.050427743    4.077313061
    1.262437396    6.790854488    5.045263722    4.073443424
    1.269616027    6.784016148    5.040085344    4.069562449
    1.276794658    6.777156466    5.034892787    4.065670263
    1.283973289    6.770275657    5.029686227    4.061766993
    1.291151920    6.763373939    5.024465843    4.057852765
    1.298330551    6.756451528    5.019231808    4.053927707
    1.305509182    6.749508640    5.013984300    4.049991943
    1.312687813    6.742545490    5.008723493    4.046045600
    1.319866444    6.735562294    5.003449561    4.042088803
    1.327045075    6.728559266    4.998162678    4.038121676
    1.334223706    6.721536622    4.992863017    4.034144346
    1.341402337    6.714494574    4.987550751    4.030156937
    1.348580968    6.707433338    4.982226052    4.026159571
    1.355759599    6.700353125    4.976889091    4.022152375
    1.362938230    6.693254150    4.971540040    4.018135470
    1.370116861    6.686136624    4.966179068    4.014108980
    1.377295492    6.679000759    4.960806345    4.010073028
    1.384474124    6.671846768    4.955422040    4.006027737
    1.391652755    6.664674860    4.950026322    4.001973228
    1.398831386    6.657485248    4.944619358    3.997909624
    1.406010017    6.650278140    4.939201315    3.993837045
    1.413188648    6.643053747    4.933772359    3.989755613
    1.420367279    6.635812277    4.928332657    3.985665449
    1.427545910    6.628553940    4.922882374    3.981566673
    1.434724541    6.621278943    4.917421673    3.977459404
    1.441903172    6.613987494    4.911950719    3.973343763
    1.449081803    6.606679800    4.906469675    3.969219868
    1.456260434    6.599356067    4.900978703    3.965087839
    1.463439065    6.592016502    4.895477965    3.960947794
    1.470617696    6.584661310    4.889967622    3.956799850
    1.477796327    6.577290696    4.884447834    3.952644125
    1.484974958    6.569904864    4.878918761    3.948480737
    1.492153589    6.562504017    4.873380562    3.944309802
    1.499332220    6.555088359    4.867833395    3.940131437
    1.506510851    6.547658092    4.862277417    3.935945757
    1.513689482    6.540213418    4.856712785    3.931752878
    1.520868114    6.532754538    4.851139655    3.927552915
    1.528046745    6.525281653    4.845558183    3.923345982
    1.535225376    6.517794962    4.839968523    3.919132195
    1.542404007    6.510294666    4.834370828    3.914911666
    1.549582638    6.502780962    4.828765252    3.910684510
    1.556761269    6.495254049    4.823151947    3.906450838
    1.563939900    6.487714124    4.817531065    3.902210763
    1.571118531    6.480161384    4.811902757    3.897964398
    1.578297162    6.472596025    4.806267171    3.893711853
    1.585475793    6.465018241    4.800624459    3.889453241
    1.592654424    6.457428229    4.794974768    3.885188671
    1.599833055    6.449826180    4.789318245    3.880918253
    1.607011686    6.442212290    4.783655039    3.876642098
    1.614190317    6.434586750    4.777985295    3.872360314
    1.621368948    6.426949752    4.772309159    3.868073011
    1.628547579    6.419301487    4.766626774    3.863780296
    1.635726210    6.411642146    4.760938286    3.859482277
    1.642904841    6.403971917    4.755243837    3.855179062
    1.650083472    6.396290991    4.749543569    3.850870757
    1.657262104    6.388599554    4.743837624    3.846557469
    1.664440735    6.380897795    4.738126143    3.842239303
    1.671619366    6.373185900    4.732409266    3.837916366
    1.678797997    6.365464055    4.726687131    3.833588760
    1.685976628    6.357732445    4.720959877    3.829256592
    1.693155259    6.349991253    4.715227642    3.824919965
    1.700333890    6.342240665    4.709490561    3.820578983
    1.707512521    6.334480862    4.703748772    3.816233747
    1.714691152    6.326712026    4.698002410    3.811884360
    1.721869783    6.318934339    4.692251607    3.807530925
    1.729048414    6.311147981    4.686496499    3.803173543
    1.736227045    6.303353131    4.680737218    3.798812314
    1.743405676    6.295549969    4.674973896    3.794447339
    1.750584307    6.287738672    4.669206663    3.790078717
    1.757762938    6.279919416    4.663435650    3.785706548
    1.764941569    6.272092380    4.657660987    3.781330930
    1.772120200    6.264257738    4.651882802    3.776951963
    1.779298831    6.256415664    4.646101223    3.772569742
    1.786477462    6.248566333    4.640316377    3.768184367
    1.793656093    6.240709917    4.634528391    3.763795933
    1.800834725    6.232846589    4.628737389    3.759404536
    1.808013356    6.224976521    4.622943497    3.755010272
    1.815191987    6.217099881    4.617146837    3.750613236
    1.822370618    6.209216841    4.611347534    3.746213523
    1.829549249    6.201327569    4.605545709    3.741811227
    1.836727880    6.193432233    4.599741484    3.737406441
    1.843906511    6.185531000    4.593934979    3.732999259
    1.851085142    6.177624036    4.588126314    3.728589771
    1.858263773    6.169711506    4.582315607    3.724178072
    1.865442404    6.161793575    4.576502978    3.719764251
    1.872621035    6.153870407    4.570688543    3.715348400
    1.879799666    6.145942165    4.564872418    3.710930608
    1.886978297    6.138009010    4.559054720    3.706510967
    1.894156928    6.130071103    4.553235563    3.702089564
    1.901335559    6.122128604    4.547415062    3.697666489
    1.908514190    6.114181674    4.541593329    3.693241830
    1.915692821    6.106230469    4.535770477    3.688815673
    1.922871452    6.098275148    4.529946618    3.684388107
    1.930050083    6.090315867    4.524121862    3.679959218
    1.937228715    6.082352783    4.518296320    3.675529092
    1.944407346    6.074386049    4.512470101    3.671097814
    1.951585977    6.066415820    4.506643312    3.666665469
    1.958764608    6.058442248    4.500816063    3.662232141
    1.965943239    6.050465487    4.494988459    3.657797914
    1.973121870    6.042485688    4.489160607    3.653362872
    1.980300501    6.034503000    4.483332612    3.648927097
    1.987479132    6.026517573    4.477504578    3.644490671
    1.994657763    6.018529557    4.471676610    3.640053677
    2.001836394    6.010539098    4.465848809    3.635616194
    2.009015025    6.002546343    4.460021278    3.631178303
    2.016193656    5.994551439    4.454194118    3.626740085
    2.023372287    5.986554530    4.448367430    3.622301619
    2.030550918    5.978555761    4.442541314    3.617862984
    2.037729549    5.970555275    4.436715868    3.613424258
    2.044908180    5.962553214    4.430891191    3.608985519
    2.052086811    5.954549720    4.425067379    3.604546845
    2.059265442    5.946544933    4.419244530    3.600108311
    2.066444073    5.938538993    4.413422739    3.595669995
    2.073622705    5.930532038    4.407602102    3.591231971
    2.080801336    5.922524207    4.401782712    3.586794316
    2.087979967    5.914515636    4.395964663    3.582357103
    2.095158598    5.906506462    4.390148049    3.577920406
    2.102337229    5.898496819    4.384332960    3.573484300
    2.109515860    5.890486843    4.378519488    3.569048856
    2.116694491    5.882476665    4.372707724    3.564614148
    2.123873122    5.874466419    4.366897757    3.560180248
    2.131051753    5.866456237    4.361089676    3.555747226
    2.138230384    5.858446248    4.355283570    3.551315154
    2.145409015    5.850436583    4.349479525    3.546884101
    2.152587646    5.842427370    4.343677630    3.542454138
    2.159766277    5.834418739    4.337877968    3.538025334
    2.166944908    5.826410814    4.332080626    3.533597757
    2.174123539    5.818403724    4.326285689    3.529171476
    2.181302170    5.810397593    4.320493239    3.524746558
    2.188480801    5.802392545    4.314703360    3.520323070
    2.195659432    5.794388705    4.308916134    3.515901079
    2.202838063    5.786386194    4.303131643    3.511480651
    2.210016694    5.778385134    4.297349968    3.507061851
    2.217195326    5.770385647    4.291571188    3.502644745
    2.224373957    5.762387853    4.285795383    3.498229397
    2.231552588    5.754391869    4.280022632    3.493815870
    2.238731219    5.746397816    4.274253012    3.489404229
    2.245909850    5.738405809    4.268486601    3.484994536
    2.253088481    5.730415965    4.262723475    3.480586854
    2.260267112    5.722428401    4.256963711    3.476181243
    2.267445743    5.714443230    4.251207382    3.471777767
    2.274624374    5.706460567    4.245454564    3.467376486
    2.281803005    5.698480524    4.239705331    3.462977459
    2.288981636    5.690503213    4.233959755    3.458580747
    2.296160267    5.682528746    4.228217908    3.454186409
    2.303338898    5.674557234    4.222479863    3.449794504
    2.310517529    5.666588784    4.216745690    3.445405091
    2.317696160    5.658623507    4.211015459    3.441018226
    2.324874791    5.650661510    4.205289241    3.436633967
    2.332053422    5.642702900    4.199567104    3.432252372
    2.339232053    5.634747782    4.193849115    3.427873496
    2.346410684    5.626796262    4.188135344    3.423497395
    2.353589316    5.618848445    4.182425856    3.419124125
    2.360767947    5.610904433    4.176720719    3.414753739
    2.367946578    5.602964330    4.171019996    3.410386294
    2.375125209    5.595028237    4.165323754    3.406021841
    2.382303840    5.587096255    4.159632057    3.401660435
    2.389482471    5.579168484    4.153944969    3.397302129
    2.396661102    5.571245024    4.148262551    3.392946974
    2.403839733    5.563325972    4.142584867    3.388595023
    2.411018364    5.555411427    4.136911979    3.384246327
    2.418196995    5.547501485    4.131243946    3.379900937
    2.425375626    5.539596243    4.125580831    3.375558904
    2.432554257    5.531695794    4.119922692    3.371220276
    2.439732888    5.523800234    4.114269589    3.366885105
    2.446911519    5.515909656    4.108621580    3.362553438
    2.454090150    5.508024152    4.102978723    3.358225324
    2.461268781    5.500143815    4.097341075    3.353900811
    2.468447412    5.492268735    4.091708694    3.349579948
    2.475626043    5.484399003    4.086081635    3.345262780
    2.482804674    5.476534708    4.080459953    3.340949354
    2.489983306    5.468675938    4.074843704    3.336639718
    2.497161937    5.460822782    4.069232942    3.332333916
    2.504340568    5.452975325    4.063627720    3.328031993
    2.511519199    5.445133656    4.058028091    3.323733995
    2.518697830    5.437297858    4.052434109    3.319439966
    2.525876461    5.429468016    4.046845824    3.315149949
    2.533055092    5.421644215    4.041263288    3.310863989
    2.540233723    5.413826537    4.035686552    3.306582128
