# energy grid [eV]     epsr_x  epsr_y  epsr_z
#
    0.200000000   15.123085329    2.319655887   15.148647617
    0.207178631   15.126392217    2.319798506   15.151976606
    0.214357262   15.129817460    2.319946191   15.155424757
    0.221535893   15.133361243    2.320098946   15.158992258
    0.228714524   15.137023754    2.320256777   15.162679301
    0.235893155   15.140805191    2.320419686   15.166486086
    0.243071786   15.144705758    2.320587679   15.170412821
    0.250250417   15.148725665    2.320760760   15.174459718
    0.257429048   15.152865128    2.320938933   15.178626998
    0.264607679   15.157124370    2.321122204   15.182914889
    0.271786311   15.161503622    2.321310577   15.187323623
    0.278964942   15.166003121    2.321504058   15.191853441
    0.286143573   15.170623111    2.321702651   15.196504592
    0.293322204   15.175363840    2.321906362   15.201277329
    0.300500835   15.180225568    2.322115197   15.206171915
    0.307679466   15.185208559    2.322329160   15.211188617
    0.314858097   15.190313082    2.322548259   15.216327711
    0.322036728   15.195539417    2.322772498   15.221589480
    0.329215359   15.200887848    2.323001885   15.226974214
    0.336393990   15.206358668    2.323236424   15.232482209
    0.343572621   15.211952176    2.323476123   15.238113770
    0.350751252   15.217668677    2.323720988   15.243869207
    0.357929883   15.223508487    2.323971026   15.249748841
    0.365108514   15.229471925    2.324226243   15.255752996
    0.372287145   15.235559319    2.324486646   15.261882007
    0.379465776   15.241771006    2.324752243   15.268136214
    0.386644407   15.248107327    2.325023041   15.274515966
    0.393823038   15.254568633    2.325299047   15.281021619
    0.401001669   15.261155281    2.325580269   15.287653537
    0.408180301   15.267867637    2.325866714   15.294412090
    0.415358932   15.274706074    2.326158390   15.301297658
    0.422537563   15.281670972    2.326455306   15.308310628
    0.429716194   15.288762719    2.326757469   15.315451395
    0.436894825   15.295981711    2.327064887   15.322720360
    0.444073456   15.303328352    2.327377570   15.330117936
    0.451252087   15.310803053    2.327695525   15.337644540
    0.458430718   15.318406235    2.328018762   15.345300599
    0.465609349   15.326138324    2.328347289   15.353086548
    0.472787980   15.333999757    2.328681116   15.361002830
    0.479966611   15.341990977    2.329020251   15.369049897
    0.487145242   15.350112436    2.329364704   15.377228209
    0.494323873   15.358364595    2.329714485   15.385538233
    0.501502504   15.366747922    2.330069604   15.393980447
    0.508681135   15.375262896    2.330430069   15.402555337
    0.515859766   15.383910000    2.330795892   15.411263396
    0.523038397   15.392689730    2.331167082   15.420105127
    0.530217028   15.401602589    2.331543650   15.429081042
    0.537395659   15.410649088    2.331925606   15.438191662
    0.544574290   15.419829748    2.332312960   15.447437516
    0.551752922   15.429145099    2.332705725   15.456819144
    0.558931553   15.438595678    2.333103910   15.466337093
    0.566110184   15.448182033    2.333507528   15.475991920
    0.573288815   15.457904722    2.333916588   15.485784192
    0.580467446   15.467764310    2.334331103   15.495714485
    0.587646077   15.477761372    2.334751085   15.505783386
    0.594824708   15.487896493    2.335176545   15.515991488
    0.602003339   15.498170269    2.335607495   15.526339398
    0.609181970   15.508583301    2.336043948   15.536827730
    0.616360601   15.519136206    2.336485916   15.547457109
    0.623539232   15.529829605    2.336933411   15.558228171
    0.630717863   15.540664133    2.337386446   15.569141559
    0.637896494   15.551640434    2.337845034   15.580197931
    0.645075125   15.562759161    2.338309188   15.591397950
    0.652253756   15.574020978    2.338778922   15.602742295
    0.659432387   15.585426560    2.339254248   15.614231652
    0.666611018   15.596976592    2.339735181   15.625866718
    0.673789649   15.608671770    2.340221734   15.637648203
    0.680968280   15.620512800    2.340713921   15.649576825
    0.688146912   15.632500399    2.341211756   15.661653316
    0.695325543   15.644635296    2.341715254   15.673878418
    0.702504174   15.656918229    2.342224430   15.686252883
    0.709682805   15.669349951    2.342739297   15.698777478
    0.716861436   15.681931222    2.343259871   15.711452978
    0.724040067   15.694662816    2.343786167   15.724280172
    0.731218698   15.707545520    2.344318200   15.737259859
    0.738397329   15.720580128    2.344855986   15.750392854
    0.745575960   15.733767452    2.345399541   15.763679979
    0.752754591   15.747108311    2.345948880   15.777122072
    0.759933222   15.760603539    2.346504020   15.790719983
    0.767111853   15.774253982    2.347064976   15.804474573
    0.774290484   15.788060498    2.347631766   15.818386719
    0.781469115   15.802023957    2.348204405   15.832457307
    0.788647746   15.816145245    2.348782911   15.846687239
    0.795826377   15.830425257    2.349367302   15.861077431
    0.803005008   15.844864903    2.349957594   15.875628809
    0.810183639   15.859465108    2.350553804   15.890342316
    0.817362270   15.874226807    2.351155951   15.905218907
    0.824540902   15.889150952    2.351764053   15.920259553
    0.831719533   15.904238507    2.352378127   15.935465238
    0.838898164   15.919490450    2.352998192   15.950836959
    0.846076795   15.934907775    2.353624267   15.966375731
    0.853255426   15.950491489    2.354256371   15.982082581
    0.860434057   15.966242614    2.354894522   15.997958552
    0.867612688   15.982162186    2.355538740   16.014004702
    0.874791319   15.998251258    2.356189044   16.030222106
    0.881969950   16.014510897    2.356845454   16.046611853
    0.889148581   16.030942185    2.357507990   16.063175048
    0.896327212   16.047546221    2.358176673   16.079912813
    0.903505843   16.064324119    2.358851522   16.096826285
    0.910684474   16.081277010    2.359532558   16.113916619
    0.917863105   16.098406039    2.360219802   16.131184986
    0.925041736   16.115712371    2.360913276   16.148632575
    0.932220367   16.133197186    2.361613000   16.166260592
    0.939398998   16.150861681    2.362318996   16.184070259
    0.946577629   16.168707071    2.363031287   16.202062817
    0.953756260   16.186734587    2.363749893   16.220239527
    0.960934891   16.204945481    2.364474838   16.238601665
    0.968113523   16.223341019    2.365206144   16.257150528
    0.975292154   16.241922490    2.365943835   16.275887430
    0.982470785   16.260691197    2.366687932   16.294813707
    0.989649416   16.279648465    2.367438460   16.313930711
    0.996828047   16.298795637    2.368195442   16.333239818
    1.004006678   16.318134077    2.368958902   16.352742419
    1.011185309   16.337665167    2.369728864   16.372439931
    1.018363940   16.357390309    2.370505353   16.392333787
    1.025542571   16.377310928    2.371288394   16.412425445
    1.032721202   16.397428467    2.372078010   16.432716380
    1.039899833   16.417744391    2.372874228   16.453208093
    1.047078464   16.438260187    2.373677074   16.473902104
    1.054257095   16.458977362    2.374486572   16.494799958
    1.061435726   16.479897449    2.375302750   16.515903221
    1.068614357   16.501021998    2.376125633   16.537213483
    1.075792988   16.522352586    2.376955248   16.558732357
    1.082971619   16.543890811    2.377791622   16.580461480
    1.090150250   16.565638297    2.378634783   16.602402514
    1.097328881   16.587596689    2.379484758   16.624557145
    1.104507513   16.609767658    2.380341575   16.646927085
    1.111686144   16.632152899    2.381205262   16.669514071
    1.118864775   16.654754132    2.382075847   16.692319866
    1.126043406   16.677573105    2.382953360   16.715346259
    1.133222037   16.700611589    2.383837829   16.738595067
    1.140400668   16.723871382    2.384729285   16.762068134
    1.147579299   16.747354311    2.385627756   16.785767330
    1.154757930   16.771062227    2.386533273   16.809694558
    1.161936561   16.794997012    2.387445866   16.833851744
    1.169115192   16.819160574    2.388365566   16.858240847
    1.176293823   16.843554851    2.389292404   16.882863855
    1.183472454   16.868181811    2.390226412   16.907722787
    1.190651085   16.893043449    2.391167621   16.932819691
    1.197829716   16.918141794    2.392116064   16.958156649
    1.205008347   16.943478903    2.393071772   16.983735772
    1.212186978   16.969056865    2.394034779   17.009559207
    1.219365609   16.994877802    2.395005118   17.035629130
    1.226544240   17.020943869    2.395982822   17.061947756
    1.233722871   17.047257251    2.396967926   17.088517330
    1.240901503   17.073820171    2.397960463   17.115340134
    1.248080134   17.100634882    2.398960468   17.142418486
    1.255258765   17.127703677    2.399967977   17.169754740
    1.262437396   17.155028879    2.400983024   17.197351285
    1.269616027   17.182612853    2.402005646   17.225210551
    1.276794658   17.210457996    2.403035878   17.253335005
    1.283973289   17.238566746    2.404073758   17.281727153
    1.291151920   17.266941578    2.405119322   17.310389542
    1.298330551   17.295585007    2.406172608   17.339324757
    1.305509182   17.324499586    2.407233653   17.368535429
    1.312687813   17.353687910    2.408302496   17.398024226
    1.319866444   17.383152617    2.409379175   17.427793864
    1.327045075   17.412896384    2.410463729   17.457847101
    1.334223706   17.442921933    2.411556199   17.488186738
    1.341402337   17.473232030    2.412656623   17.518815625
    1.348580968   17.503829485    2.413765042   17.549736657
    1.355759599   17.534717153    2.414881498   17.580952776
    1.362938230   17.565897936    2.416006030   17.612466975
    1.370116861   17.597374786    2.417138682   17.644282293
    1.377295492   17.629150700    2.418279495   17.676401823
    1.384474124   17.661228726    2.419428511   17.708828708
    1.391652755   17.693611962    2.420585775   17.741566143
    1.398831386   17.726303557    2.421751329   17.774617379
    1.406010017   17.759306715    2.422925218   17.807985720
    1.413188648   17.792624689    2.424107486   17.841674527
    1.420367279   17.826260792    2.425298178   17.875687217
    1.427545910   17.860218388    2.426497341   17.910027267
    1.434724541   17.894500902    2.427705019   17.944698213
    1.441903172   17.929111815    2.428921260   17.979703652
    1.449081803   17.964054668    2.430146111   18.015047245
    1.456260434   17.999333063    2.431379620   18.050732713
    1.463439065   18.034950664    2.432621834   18.086763847
    1.470617696   18.070911198    2.433872802   18.123144500
    1.477796327   18.107218458    2.435132575   18.159878595
    1.484974958   18.143876302    2.436401201   18.196970126
    1.492153589   18.180888655    2.437678731   18.234423155
    1.499332220   18.218259508    2.438965216   18.272241813
    1.506510851   18.255992913    2.440260707   18.310430290
    1.513689482   18.294092975    2.441565257   18.348992831
    1.520868114   18.332563926    2.442878919   18.387933824
    1.528046745   18.371410128    2.444201746   18.427257816
    1.535225376   18.410635939    2.445533792   18.466969318
    1.542404007   18.450245774    2.446875111   18.507072903
    1.549582638   18.490244146    2.448225760   18.547573250
    1.556761269   18.530635661    2.449585793   18.588475135
    1.563939900   18.571425007    2.450955268   18.629783430
    1.571118531   18.612616957    2.452334241   18.671503095
    1.578297162   18.654216383    2.453722771   18.713639185
    1.585475793   18.696228256    2.455120915   18.756196853
    1.592654424   18.738657627    2.456528734   18.799181346
    1.599833055   18.781509635    2.457946286   18.842598016
    1.607011686   18.824789525    2.459373633   18.886452314
    1.614190317   18.868502638    2.460810837   18.930749799
    1.621368948   18.912654420    2.462257958   18.975496138
    1.628547579   18.957250423    2.463715060   19.020697109
    1.635726210   19.002296305    2.465182207   19.066358604
    1.642904841   19.047797835    2.466659463   19.112486631
    1.650083472   19.093760893    2.468146892   19.159087318
    1.657262104   19.140191478    2.469644561   19.206166916
    1.664440735   19.187095704    2.471152537   19.253731803
    1.671619366   19.234479811    2.472670886   19.301788484
    1.678797997   19.282350159    2.474199678   19.350343600
    1.685976628   19.330713241    2.475738981   19.399403925
    1.693155259   19.379575678    2.477288865   19.448976375
    1.700333890   19.428944225    2.478849402   19.499068009
    1.707512521   19.478825769    2.480420661   19.549686030
    1.714691152   19.529227319    2.482002716   19.600837792
    1.721869783   19.580156056    2.483595640   19.652530808
    1.729048414   19.631619381    2.485199509   19.704772766
    1.736227045   19.683624799    2.486814398   19.757571506
    1.743405676   19.736179926    2.488440382   19.810935031
    1.750584307   19.789292557    2.490077540   19.864871518
    1.757762938   19.842970661    2.491725949   19.919389321
    1.764941569   19.897222365    2.493385687   19.974496955
    1.772120200   19.952055945    2.495056836   20.030203078
    1.779298831   20.007479891    2.496739476   20.086516598
    1.786477462   20.063503030    2.498433689   20.143446841
    1.793656093   20.120134278    2.500139560   20.201003186
    1.800834725   20.177382660    2.501857171   20.259195097
    1.808013356   20.235257437    2.503586608   20.318032300
    1.815191987   20.293768095    2.505327959   20.377524772
    1.822370618   20.352924345    2.507081309   20.437682735
    1.829549249   20.412736117    2.508846749   20.498516648
    1.836727880   20.473213575    2.510624368   20.560037218
    1.843906511   20.534367113    2.512414258   20.622255405
    1.851085142   20.596207371    2.514216509   20.685182432
    1.858263773   20.658745238    2.516031217   20.748829790
    1.865442404   20.721991861    2.517858475   20.813209251
    1.872621035   20.785958654    2.519698380   20.878332873
    1.879799666   20.850657304    2.521551028   20.944213011
    1.886978297   20.916099780    2.523416520   21.010862326
    1.894156928   20.982298347    2.525294953   21.078293798
    1.901335559   21.049265566    2.527186431   21.146520730
    1.908514190   21.117014315    2.529091054   21.215556767
    1.915692821   21.185557789    2.531008928   21.285415900
    1.922871452   21.254909517    2.532940158   21.356112482
    1.930050083   21.325083372    2.534884850   21.427661240
    1.937228715   21.396093578    2.536843114   21.500077287
    1.944407346   21.467954730    2.538815059   21.573376135
    1.951585977   21.540681798    2.540800796   21.647573710
    1.958764608   21.614290148    2.542800439   21.722686367
    1.965943239   21.688795549    2.544814101   21.798730902
    1.973121870   21.764214191    2.546841901   21.875724572
    1.980300501   21.840562697    2.548883954   21.953685110
    1.987479132   21.917858138    2.550940381   22.032630735
    1.994657763   21.996118049    2.553011304   22.112580176
    2.001836394   22.075360459    2.555096844   22.193552709
    2.009015025   22.155603908    2.557197127   22.275568178
    2.016193656   22.236867435    2.559312280   22.358646971
    2.023372287   22.319170600    2.561442431   22.442810059
    2.030550918   22.402533479    2.563587710   22.528079032
    2.037729549   22.486976699    2.565748249   22.614476112
    2.044908180   22.572521715    2.567924182   22.702024186
    2.052086811   22.659190666    2.570115648   22.790746785
    2.059265442   22.747006078    2.572322784   22.880668196
    2.066444073   22.835991162    2.574545730   22.971813713
    2.073622705   22.926169871    2.576784630   23.064209230
    2.080801336   23.017566899    2.579039627   23.157881306
    2.087979967   23.110207708    2.581310869   23.252857397
    2.095158598   23.204118552    2.583598505   23.349165874
    2.102337229   23.299326508    2.585902686   23.446836037
    2.109515860   23.395859512    2.588223567   23.545898146
    2.116694491   23.493746395    2.590561303   23.646383459
    2.123873122   23.593016915    2.592916055   23.748324282
    2.131051753   23.693701808    2.595287983   23.851754007
    2.138230384   23.795832819    2.597677251   23.956707167
    2.145409015   23.899442754    2.600084027   24.063219484
    2.152587646   24.004565524    2.602508479   24.171327921
    2.159766277   24.111236187    2.604950779   24.281070725
    2.166944908   24.219490986    2.607411101   24.392487447
    2.174123539   24.329367416    2.609889622   24.505619052
    2.181302170   24.440904356    2.612386524   24.620508285
    2.188480801   24.554141976    2.614901993   24.737199373
    2.195659432   24.669121864    2.617436215   24.855737912
    2.202838063   24.785887438    2.619989383   24.976171415
    2.210016694   24.904483710    2.622561690   25.098549407
    2.217195326   25.024957125    2.625153332   25.222923153
    2.224373957   25.147355776    2.627764509   25.349345758
    2.231552588   25.271729654    2.630395424   25.477872438
    2.238731219   25.398130662    2.633046285   25.608560546
    2.245909850   25.526612717    2.635717302   25.741469944
    2.253088481   25.657232058    2.638408692   25.876663452
    2.260267112   25.790047172    2.641120673   26.014206175
    2.267445743   25.925119030    2.643853468   26.154165680
    2.274624374   26.062511056    2.646607305   26.296612504
    2.281803005   26.202289044    2.649382414   26.441620271
    2.288981636   26.344521626    2.652179025   26.589265860
    2.296160267   26.489280436    2.654997368   26.739629561
    2.303338898   26.636640222    2.657837676   26.892795319
    2.310517529   26.786678990    2.660700219   27.048851137
    2.317696160   26.939478228    2.663585256   27.207889018
    2.324874791   27.095123309    2.666493061   27.370005162
    2.332053422   27.253703472    2.669423912   27.535300410
    2.339232053   27.415311930    2.672378063   27.703880535
    2.346410684   27.580046328    2.675355778   27.875856545
    2.353589316   27.748009022    2.678357337   28.051345016
    2.360767947   27.919307357    2.681383026   28.230468454
    2.367946578   28.094053956    2.684433139   28.413355681
    2.375125209   28.272367016    2.687507974   28.600142205
    2.382303840   28.454370612    2.690607838   28.790970612
    2.389482471   28.640195359    2.693733043   28.985991312
    2.396661102   28.829979229    2.696883909   29.185363609
    2.403839733   29.023867570    2.700060762   29.389255870
    2.411018364   29.222013188    2.703263936   29.597845445
    2.418196995   29.424577604    2.706493774   29.811320214
    2.425375626   29.631731077    2.709750626   30.029878897
    2.432554257   29.843653537    2.713034851   30.253732124
    2.439732888   30.060535498    2.716346814   30.483103520
    2.446911519   30.282578812    2.719686894   30.718230724
    2.454090150   30.509997688    2.723055474   30.959366855
    2.461268781   30.743019509    2.726452944   31.206781502
    2.468447412   30.981885708    2.729879691   31.460761731
    2.475626043   31.226853155    2.733336122   31.721614014
    2.482804674   31.478195593    2.736822714   31.989666056
    2.489983306   31.736204881    2.740339928   32.265268635
    2.497161937   32.001192549    2.743888195   32.548797741
    2.504340568   32.273491657    2.747467974   32.840656950
    2.511519199   32.553459189    2.751079732   33.141280229
    2.518697830   32.841477970    2.754723943   33.451134874
    2.525876461   33.137958642    2.758401134   33.770724932
    2.533055092   33.443342832    2.762111887   34.100595091
    2.540233723   33.758106330    2.765856738   34.441334626
