# energy grid [eV]     epsr_x  epsr_y  epsr_z
#
    0.200000000   17.307963749   14.831958354   17.152546898
    0.207178631   17.313218469   14.836195844   17.157607925
    0.214357262   17.318670630   14.840590769   17.162858791
    0.221535893   17.324321674   14.845144045   17.168300837
    0.228714524   17.330173132   14.849856638   17.173935483
    0.235893155   17.336226623   14.854729562   17.179764230
    0.243071786   17.342483864   14.859763885   17.185788664
    0.250250417   17.348946672   14.864960726   17.192010463
    0.257429048   17.355616973   14.870321262   17.198431402
    0.264607679   17.362496811   14.875846731   17.205053359
    0.271786311   17.369588351   14.881538431   17.211878322
    0.278964942   17.376893893   14.887397730   17.218908395
    0.286143573   17.384415879   14.893426061   17.226145809
    0.293322204   17.392156904   14.899624934   17.233592929
    0.300500835   17.400119731   14.905995936   17.241252264
    0.307679466   17.408307299   14.912540735   17.249126478
    0.314858097   17.416722743   14.919261088   17.257218403
    0.322036728   17.425369408   14.926158844   17.265531052
    0.329215359   17.434250869   14.933235952   17.274067632
    0.336393990   17.443370948   14.940494466   17.282831566
    0.343572621   17.452733743   14.947936552   17.291826505
    0.350751252   17.462343649   14.955564499   17.301056353
    0.357929883   17.472205392   14.963380722   17.310525289
    0.365108514   17.482324057   14.971387776   17.320237795
    0.372287145   17.492705132   14.979588368   17.330198682
    0.379465776   17.503354547   14.987985362   17.340413126
    0.386644407   17.514278723   14.996581798   17.350886708
    0.393823038   17.525484632   15.005380905   17.361625454
    0.401001669   17.536979857   15.014386115   17.372635884
    0.408180301   17.548772670   15.023601082   17.383925072
    0.415358932   17.560872118   15.033029704   17.395500710
    0.422537563   17.573288122   15.042676142   17.407371181
    0.429716194   17.586031595   15.052544847   17.419545651
    0.436894825   17.599114581   15.062640590   17.432034166
    0.444073456   17.612550414   15.072968490   17.444847775
    0.451252087   17.626353911   15.083534059   17.457998667
    0.458430718   17.640541601   15.094343234   17.471500339
    0.465609349   17.655131996   15.105402434   17.485367794
    0.472787980   17.670145921   15.116718612   17.499617772
    0.479966611   17.685606910   15.128299320   17.514269037
    0.487145242   17.701541690   15.140152789   17.529342719
    0.494323873   17.717980777   15.152288009   17.544862730
    0.501502504   17.734959208   15.164714846   17.560856282
    0.508681135   17.752517457   15.177444156   17.577354516
    0.515859766   17.770702585   15.190487941   17.594393301
    0.523038397   17.789569693   15.203859529   17.612014230
    0.530217028   17.809183787   15.217573795   17.630265892
    0.537395659   17.829622181   15.231647431   17.649205505
    0.544574290   17.850977638   15.246099288   17.668901033
    0.551752922   17.873362518   15.260950804   17.689433974
    0.558931553   17.896914310   15.276226546   17.710903056
    0.566110184   17.921803122   15.291954921   17.733429220
    0.573288815   17.948241918   15.308169102   17.757162406
    0.580467446   17.976500709   15.324908266   17.782290915
    0.587646077   18.006926393   15.342219262   17.809054467
    0.594824708   18.039970724   15.360158891   17.837762538
    0.602003339   18.076229667   15.378797028   17.868820120
    0.609181970   18.116497715   15.398220852   17.902763199
    0.616360601   18.161837876   15.418540250   17.940304436
    0.623539232   18.213652170   15.439893430   17.982379329
    0.630717863   18.273671292   15.462447397   18.030140445
    0.637896494   18.343519991   15.486370536   18.084678446
    0.645075125   18.422473468   15.511685430   18.145577567
    0.652253756   18.497985457   15.537642121   18.204813029
    0.659432387   18.512065830   15.560488088   18.225084579
    0.666611018   18.310616315   15.570107294   18.107167676
    0.673789649   17.882394428   15.565895918   17.843923890
    0.680968280   17.635446570   15.575128240   17.698460593
    0.688146912   17.631660897   15.602129045   17.710826364
    0.695325543   17.708456612   15.636367877   17.776446591
    0.702504174   17.795206608   15.673491017   17.850063643
    0.709682805   17.875618293   15.712846649   17.921511177
    0.716861436   17.948283997   15.754898015   17.990316477
    0.724040067   18.014974292   15.800492722   18.058193436
    0.731218698   18.077832088   15.850742014   18.127287058
    0.738397329   18.138829760   15.907073785   18.199895368
    0.745575960   18.199769420   15.971341164   18.278557072
    0.752754591   18.262382182   16.045912768   18.366182622
    0.759933222   18.328344749   16.133524629   18.465942762
    0.767111853   18.398867607   16.236016334   18.579997921
    0.774290484   18.472550828   16.348440813   18.703448178
    0.781469115   18.536605629   16.435338682   18.799884741
    0.788647746   18.540071933   16.358551672   18.726964424
    0.795826377   18.392696371   15.874144211   18.233243992
    0.803005008   18.193549300   15.247958154   17.592937048
    0.810183639   18.146818361   15.028812997   17.372046522
    0.817362270   18.201714729   15.078805364   17.428428488
    0.824540902   18.283094554   15.194239735   17.552089482
    0.831719533   18.367341180   15.309863789   17.675793729
    0.838898164   18.450591460   15.413180015   17.786705508
    0.846076795   18.534039753   15.504693615   17.885400571
    0.853255426   18.620101943   15.587335996   17.974963590
    0.860434057   18.711639545   15.664049616   18.058502507
    0.867612688   18.811947057   15.737389212   18.138743762
    0.874791319   18.924823523   15.809570884   18.218091633
    0.881969950   19.054135074   15.882507567   18.298676377
    0.889148581   19.201005538   15.957422390   18.381968682
    0.896327212   19.351360971   16.032752078   18.466623221
    0.903505843   19.428397934   16.095885214   18.539919007
    0.910684474   19.181393709   16.103727362   18.557576348
    0.917863105   18.392041714   16.018912599   18.481329237
    0.925041736   17.726003671   15.959053425   18.433623884
    0.932220367   17.603466161   15.998347599   18.489533139
    0.939398998   17.716462405   16.081269515   18.579512787
    0.946577629   17.869495195   16.164654783   18.614019028
    0.953756260   18.008865128   16.222355742   18.485703547
    0.960934891   18.129231742   16.274849551   18.296003014
    0.968113523   18.237934690   16.368176996   18.269890427
    0.975292154   18.337564147   16.495783098   18.356440445
    0.982470785   18.429447876   16.642547101   18.474218639
    0.989649416   18.514629187   16.789288652   18.595523649
    0.996828047   18.590630615   16.862746942   18.704764168
    1.004006678   18.646801983   16.657603149   18.769623829
    1.011185309   18.681334576   16.121729957   18.784167959
    1.018363940   18.728337433   15.811085511   18.841530935
    1.025542571   18.795975327   15.847581338   18.948107072
    1.032721202   18.867926672   15.948044110   18.990658542
    1.039899833   18.929324545   15.868979000   18.765171238
    1.047078464   18.979933847   15.598874695   18.298179270
    1.054257095   19.040023027   15.452595009   18.062673278
    1.061435726   19.109018246   15.428601591   18.077836063
    1.068614357   19.192410858   15.477245741   18.178430177
    1.075792988   19.289154270   15.586054537   18.299947771
    1.082971619   19.367086729   15.704385598   18.415617102
    1.090150250   19.334201464   15.798453715   18.512000843
    1.097328881   19.085487351   15.849401176   18.580973974
    1.104507513   18.844710112   15.892725838   18.644755635
    1.111686144   18.821007270   15.962247116   18.723906335
    1.118864775   18.903951413   16.042751792   18.809124062
    1.126043406   19.003516933   16.120896261   18.887891780
    1.133222037   19.081648661   16.188798137   18.940637993
    1.140400668   19.128699866   16.244626549   18.960368724
    1.147579299   19.184721737   16.304320607   18.999146022
    1.154757930   19.264423494   16.373927825   19.075108611
    1.161936561   19.353470934   16.448420737   19.168705756
    1.169115192   19.445702516   16.525855311   19.271162419
    1.176293823   19.541073720   16.606152891   19.380805186
    1.183472454   19.640647315   16.687335783   19.492531590
    1.190651085   19.742388595   16.757556892   19.578843761
    1.197829716   19.830192083   16.784096547   19.561160187
    1.205008347   19.845312018   16.759527032   19.392697542
    1.212186978   19.690077702   16.742268037   19.145538418
    1.219365609   19.484892905   16.764304949   18.943573861
    1.226544240   19.455299921   16.844086297   18.935532151
    1.233722871   19.537525597   16.952029881   19.035079498
    1.240901503   19.640272725   17.043601066   19.147892978
    1.248080134   19.713162089   17.031567131   19.217635316
    1.255258765   19.726470100   16.830490239   19.208135320
    1.262437396   19.743139783   16.653399382   19.200664823
    1.269616027   19.813955749   16.668679259   19.260300238
    1.276794658   19.910872663   16.776274690   19.350388971
    1.283973289   20.014062310   16.904586742   19.444481227
    1.291151920   20.116754613   17.027488861   19.532044685
    1.298330551   20.210092364   17.114525518   19.597602888
    1.305509182   20.282131075   17.126308461   19.620293397
    1.312687813   20.356908653   17.131535465   19.636040648
    1.319866444   20.461802611   17.213443174   19.690885649
    1.327045075   20.567583911   17.307847006   19.764369724
    1.334223706   20.594595948   17.280595859   19.828596453
    1.341402337   20.430000435   17.028246222   19.866697218
    1.348580968   20.209174924   16.803900951   19.903702629
    1.355759599   20.183920241   16.803596996   19.966282339
    1.362938230   20.288343364   16.912114602   20.042908650
    1.370116861   20.418149098   17.038102691   20.120882343
    1.377295492   20.512570158   17.142045194   20.189580769
    1.384474124   20.530209166   17.202275487   20.239581145
    1.391652755   20.548860314   17.259299819   20.291462321
    1.398831386   20.644217525   17.352852253   20.364964372
    1.406010017   20.780687679   17.466595552   20.450360420
    1.413188648   20.926370853   17.587956451   20.536650015
    1.420367279   21.055409869   17.714032608   20.606682384
    1.427545910   21.126749020   17.841927932   20.629391462
    1.434724541   21.158946026   17.961227460   20.626496140
    1.441903172   21.195993486   18.029163657   20.661611773
    1.449081803   21.155523923   17.982335145   20.713273547
    1.456260434   21.061281942   17.888725792   20.776480040
    1.463439065   20.902850852   17.768952306   20.858928008
    1.470617696   20.760247194   17.676760118   20.953121822
    1.477796327   20.807650804   17.738778871   21.058519281
    1.484974958   20.941477140   17.857590690   21.167510012
    1.492153589   21.016664485   17.877047849   21.265502392
    1.499332220   20.969760048   17.720475876   21.345083175
    1.506510851   20.960621749   17.624934955   21.437724235
    1.513689482   21.062037698   17.698198791   21.540329102
    1.520868114   21.188904253   17.819653886   21.592166632
    1.528046745   21.304554475   17.934938072   21.597614736
    1.535225376   21.428263413   18.066441135   21.671065631
    1.542404007   21.519576472   18.185044401   21.788031419
    1.549582638   21.488326623   18.219461800   21.845529877
    1.556761269   21.400090245   18.207910371   21.845576554
    1.563939900   21.421547006   18.236808443   21.808291279
    1.571118531   21.506943684   18.188930641   21.634691583
    1.578297162   21.611277344   18.037194181   21.531505371
    1.585475793   21.734087520   17.997835948   21.607376475
    1.592654424   21.861393418   18.083375780   21.726121275
    1.599833055   21.981853571   18.205673415   21.851334184
    1.607011686   22.098055898   18.333094798   21.989825000
    1.614190317   22.223725001   18.460013443   22.129867618
    1.621368948   22.356197236   18.560233472   22.171414993
    1.628547579   22.491302393   18.642832553   22.119673987
    1.635726210   22.628420053   18.756241321   22.068301524
    1.642904841   22.761813226   18.894730429   21.979522669
    1.650083472   22.903202829   19.056234779   22.023152890
    1.657262104   23.071894206   19.238087357   22.224344188
    1.664440735   23.254756075   19.413366123   22.461382679
    1.671619366   23.395019427   19.491267860   22.597192526
    1.678797997   23.377449878   19.276381277   22.471029670
    1.685976628   23.168126582   18.809174808   22.143425153
    1.693155259   22.957176251   18.565024524   21.971140967
    1.700333890   22.899536656   18.599915016   22.025204538
    1.707512521   23.006670947   18.729909788   22.160542210
    1.714691152   23.157673633   18.831844187   22.262019341
    1.721869783   23.309720649   18.915848891   22.369603501
    1.729048414   23.376257274   19.043486737   22.471774642
    1.736227045   23.307738794   19.193733786   22.486011334
    1.743405676   23.289293729   19.331682436   22.448794517
    1.750584307   23.371735673   19.426309153   22.441170431
    1.757762938   23.540459034   19.513284881   22.551995865
    1.764941569   23.735186851   19.592017747   22.717411526
    1.772120200   23.845443866   19.602656554   22.834677362
    1.779298831   23.815789804   19.617482849   22.914500086
    1.786477462   23.662529767   19.664642577   23.014836409
    1.793656093   23.629034062   19.761631940   23.187542233
    1.800834725   23.762232131   19.903162238   23.403262808
    1.808013356   23.885929584   20.031619368   23.600574050
    1.815191987   23.964009150   20.145664035   23.737889774
    1.822370618   24.070795300   20.260253682   23.818707108
    1.829549249   24.206575551   20.358924483   23.863542428
    1.836727880   24.252309251   20.358904795   23.785535652
    1.843906511   24.289363241   20.325001469   23.715677279
    1.851085142   24.454205039   20.420213804   23.828995295
    1.858263773   24.654441881   20.585183130   24.027699598
    1.865442404   24.755211990   20.702608316   24.153242438
    1.872621035   24.835096655   20.781239886   24.184114013
    1.879799666   24.971554390   20.853056433   24.179700190
    1.886978297   25.051630958   20.865083057   24.218772837
    1.894156928   24.973043105   20.747384128   24.317503034
    1.901335559   24.915833738   20.672193991   24.444286432
    1.908514190   25.015854476   20.780545063   24.514328134
    1.915692821   25.164817193   20.932453626   24.521152903
    1.922871452   25.246084202   20.957843920   24.548686762
    1.930050083   25.095828621   20.733990299   24.630698479
    1.937228715   24.989216606   20.544515146   24.806349432
    1.944407346   25.174059303   20.653202581   25.095407929
    1.951585977   25.473367709   20.910041658   25.436725371
    1.958764608   25.698347022   21.163212067   25.761888896
    1.965943239   25.778586892   21.327760152   26.008575394
    1.973121870   25.783018411   21.325892028   26.101581328
    1.980300501   25.743749139   21.184665056   26.104461019
    1.987479132   25.810549330   21.163487281   26.241542734
    1.994657763   26.047168926   21.263116715   26.341638644
    2.001836394   26.331739731   21.296578262   26.002772667
    2.009015025   26.604300105   21.317076873   25.531173697
    2.016193656   26.884804392   21.456400037   25.441534505
    2.023372287   27.181455898   21.683924655   25.631539077
    2.030550918   27.433959510   21.931982683   25.844007211
    2.037729549   27.631331942   22.146095822   26.029061692
    2.044908180   27.776098285   22.309773950   26.258449674
    2.052086811   27.686292962   22.402528235   26.371064565
    2.059265442   27.464549294   22.474169262   26.280275390
    2.066444073   27.441182966   22.554689096   26.062183019
    2.073622705   27.474276917   22.551768596   25.790798951
    2.080801336   27.298137857   22.392046703   25.537115199
    2.087979967   26.923087781   22.224010703   25.398348161
    2.095158598   26.728101781   22.265335011   25.557165493
    2.102337229   26.903156830   22.416202423   25.932913414
    2.109515860   27.177279176   22.490045646   26.262164696
    2.116694491   27.377187907   22.521243507   26.420142755
    2.123873122   27.513161651   22.621791126   26.564547250
    2.131051753   27.693083626   22.809944076   26.698940903
    2.138230384   27.841225517   22.990439783   26.630203483
    2.145409015   27.978676140   23.104752140   26.614854017
    2.152587646   28.121408303   23.256424321   26.863678048
    2.159766277   28.121507868   23.462249599   27.208782862
    2.166944908   28.180792165   23.686163519   27.561537726
    2.174123539   28.458974569   23.920131568   27.929441785
    2.181302170   28.867525320   24.134052872   28.274162721
    2.188480801   29.314369043   24.326413632   28.530339126
    2.195659432   29.784873559   24.566728592   28.676913796
    2.202838063   30.231250559   24.833405458   28.670230268
    2.210016694   30.555285639   25.033013435   28.664145433
    2.217195326   30.635160360   25.121750211   28.663806650
    2.224373957   30.523666329   25.177919561   28.759583992
    2.231552588   30.583956318   25.226612259   29.026293614
    2.238731219   30.680463748   25.193631879   29.044153522
    2.245909850   30.250602800   24.947236498   28.393928835
    2.253088481   29.501625762   24.694122809   27.582104366
    2.260267112   29.188055490   24.724917998   26.896581457
    2.267445743   29.241896164   24.874227625   26.671196896
    2.274624374   29.353043355   24.962182621   26.881591024
    2.281803005   29.598636533   25.127160991   27.332380441
    2.288981636   30.019256519   25.409180921   27.881643707
    2.296160267   30.450252762   25.689512749   28.399219867
    2.303338898   30.863706435   26.002496202   28.841031617
    2.310517529   31.306751481   26.368988426   29.272230502
    2.317696160   31.720442003   26.696389334   29.676544795
    2.324874791   31.991668501   26.885986559   29.958178146
    2.332053422   32.223727393   27.034495660   30.223824036
    2.339232053   32.550300136   27.165787375   30.454986351
    2.346410684   32.848216223   27.163232663   30.472224377
    2.353589316   33.081563909   27.235385840   30.478948614
    2.360767947   33.437622846   27.554811314   30.747945559
    2.367946578   33.894565720   27.984159432   31.173750111
    2.375125209   34.292848390   28.261714248   31.523938890
    2.382303840   34.524547299   28.131766292   31.671405837
    2.389482471   34.722440817   27.915616086   31.761505986
    2.396661102   35.000422173   28.039205689   31.881738125
    2.403839733   35.283470139   28.287633966   31.960844704
    2.411018364   35.649535256   28.586144152   32.117583684
    2.418196995   36.163596053   28.923743809   32.469400264
    2.425375626   36.710716689   29.169587958   32.954521129
    2.432554257   37.101043317   29.317539123   33.489216338
    2.439732888   37.210697307   29.417130769   33.964198776
    2.446911519   37.215350707   29.457585097   34.210293772
    2.454090150   37.218989001   29.584021675   34.245969384
    2.461268781   37.477119754   29.822961310   34.186423877
    2.468447412   38.010281982   30.138071874   34.281270480
    2.475626043   38.541227197   30.396364994   34.539108980
    2.482804674   39.015647984   30.628100583   34.677630269
    2.489983306   39.442005353   30.926443103   34.738416360
    2.497161937   39.733728342   31.219974003   34.992013166
    2.504340568   39.739137052   31.411608693   35.159893994
    2.511519199   39.669535449   31.477328348   35.103436471
    2.518697830   40.045063920   31.488653020   35.215846410
    2.525876461   40.800943680   31.642870004   35.442816635
    2.533055092   41.705223634   32.018347075   35.786560008
    2.540233723   42.453753028   32.403745509   36.072811078
