# energy grid [eV]     ieps_x  ieps_y  ieps_z
#
    0.200000000    3.058000263    3.951300471    4.973156581
    0.207178631    3.057520603    3.950591779    4.972445730
    0.214357262    3.057024286    3.949858492    4.971710086
    0.221535893    3.056511337    3.949100650    4.970949678
    0.228714524    3.055981785    3.948318296    4.970164536
    0.235893155    3.055435656    3.947511472    4.969354689
    0.243071786    3.054872979    3.946680224    4.968520167
    0.250250417    3.054293785    3.945824597    4.967661004
    0.257429048    3.053698104    3.944944638    4.966777232
    0.264607679    3.053085967    3.944040396    4.965868884
    0.271786311    3.052457407    3.943111920    4.964935995
    0.278964942    3.051812456    3.942159261    4.963978601
    0.286143573    3.051151149    3.941182472    4.962996738
    0.293322204    3.050473520    3.940181605    4.961990444
    0.300500835    3.049779604    3.939156716    4.960959756
    0.307679466    3.049069439    3.938107860    4.959904714
    0.314858097    3.048343060    3.937035095    4.958825359
    0.322036728    3.047600507    3.935938479    4.957721730
    0.329215359    3.046841817    3.934818072    4.956593869
    0.336393990    3.046067031    3.933673934    4.955441820
    0.343572621    3.045276188    3.932506127    4.954265626
    0.350751252    3.044469329    3.931314716    4.953065331
    0.357929883    3.043646497    3.930099763    4.951840981
    0.365108514    3.042807735    3.928861335    4.950592622
    0.372287145    3.041953084    3.927599499    4.949320300
    0.379465776    3.041082590    3.926314322    4.948024065
    0.386644407    3.040196297    3.925005873    4.946703963
    0.393823038    3.039294252    3.923674223    4.945360046
    0.401001669    3.038376499    3.922319442    4.943992363
    0.408180301    3.037443088    3.920941604    4.942600965
    0.415358932    3.036494064    3.919540781    4.941185906
    0.422537563    3.035529477    3.918117049    4.939747237
    0.429716194    3.034549376    3.916670482    4.938285012
    0.436894825    3.033553811    3.915201158    4.936799286
    0.444073456    3.032542833    3.913709155    4.935290115
    0.451252087    3.031516493    3.912194551    4.933757554
    0.458430718    3.030474842    3.910657426    4.932201660
    0.465609349    3.029417935    3.909097861    4.930622491
    0.472787980    3.028345823    3.907515938    4.929020106
    0.479966611    3.027258561    3.905911741    4.927394564
    0.487145242    3.026156204    3.904285352    4.925745925
    0.494323873    3.025038807    3.902636857    4.924074250
    0.501502504    3.023906426    3.900966343    4.922379600
    0.508681135    3.022759118    3.899273894    4.920662038
    0.515859766    3.021596940    3.897559600    4.918921628
    0.523038397    3.020419949    3.895823550    4.917158432
    0.530217028    3.019228205    3.894065832    4.915372516
    0.537395659    3.018021767    3.892286538    4.913563945
    0.544574290    3.016800693    3.890485759    4.911732786
    0.551752922    3.015565045    3.888663587    4.909879104
    0.558931553    3.014314883    3.886820116    4.908002968
    0.566110184    3.013050268    3.884955439    4.906104446
    0.573288815    3.011771264    3.883069652    4.904183606
    0.580467446    3.010477931    3.881162851    4.902240520
    0.587646077    3.009170334    3.879235131    4.900275256
    0.594824708    3.007848536    3.877286592    4.898287886
    0.602003339    3.006512602    3.875317330    4.896278482
    0.609181970    3.005162595    3.873327445    4.894247116
    0.616360601    3.003798582    3.871317036    4.892193862
    0.623539232    3.002420628    3.869286206    4.890118792
    0.630717863    3.001028799    3.867235053    4.888021982
    0.637896494    2.999623163    3.865163682    4.885903507
    0.645075125    2.998203786    3.863072194    4.883763442
    0.652253756    2.996770736    3.860960693    4.881601864
    0.659432387    2.995324082    3.858829283    4.879418849
    0.666611018    2.993863892    3.856678069    4.877214476
    0.673789649    2.992390235    3.854507158    4.874988822
    0.680968280    2.990903181    3.852316654    4.872741967
    0.688146912    2.989402800    3.850106666    4.870473989
    0.695325543    2.987889162    3.847877299    4.868184970
    0.702504174    2.986362339    3.845628664    4.865874988
    0.709682805    2.984822402    3.843360868    4.863544127
    0.716861436    2.983269422    3.841074021    4.861192466
    0.724040067    2.981703472    3.838768232    4.858820090
    0.731218698    2.980124624    3.836443613    4.856427081
    0.738397329    2.978532951    3.834100274    4.854013521
    0.745575960    2.976928526    3.831738327    4.851579496
    0.752754591    2.975311423    3.829357885    4.849125090
    0.759933222    2.973681716    3.826959059    4.846650387
    0.767111853    2.972039480    3.824541963    4.844155475
    0.774290484    2.970384789    3.822106711    4.841640438
    0.781469115    2.968717718    3.819653417    4.839105363
    0.788647746    2.967038343    3.817182196    4.836550337
    0.795826377    2.965346739    3.814693162    4.833975449
    0.803005008    2.963642982    3.812186431    4.831380787
    0.810183639    2.961927149    3.809662120    4.828766438
    0.817362270    2.960199316    3.807120344    4.826132492
    0.824540902    2.958459560    3.804561221    4.823479039
    0.831719533    2.956707959    3.801984867    4.820806169
    0.838898164    2.954944589    3.799391400    4.818113971
    0.846076795    2.953169529    3.796780938    4.815402538
    0.853255426    2.951382856    3.794153599    4.812671961
    0.860434057    2.949584649    3.791509502    4.809922331
    0.867612688    2.947774986    3.788848767    4.807153740
    0.874791319    2.945953946    3.786171511    4.804366282
    0.881969950    2.944121608    3.783477855    4.801560049
    0.889148581    2.942278050    3.780767918    4.798735134
    0.896327212    2.940423352    3.778041821    4.795891633
    0.903505843    2.938557594    3.775299685    4.793029638
    0.910684474    2.936680856    3.772541629    4.790149245
    0.917863105    2.934793216    3.769767774    4.787250549
    0.925041736    2.932894756    3.766978243    4.784333644
    0.932220367    2.930985556    3.764173155    4.781398628
    0.939398998    2.929065695    3.761352633    4.778445595
    0.946577629    2.927135255    3.758516799    4.775474642
    0.953756260    2.925194317    3.755665774    4.772485867
    0.960934891    2.923242960    3.752799680    4.769479365
    0.968113523    2.921281266    3.749918640    4.766455236
    0.975292154    2.919309316    3.747022776    4.763413575
    0.982470785    2.917327192    3.744112211    4.760354482
    0.989649416    2.915334974    3.741187067    4.757278055
    0.996828047    2.913332744    3.738247467    4.754184392
    1.004006678    2.911320583    3.735293534    4.751073593
    1.011185309    2.909298574    3.732325391    4.747945756
    1.018363940    2.907266797    3.729343161    4.744800982
    1.025542571    2.905225335    3.726346968    4.741639369
    1.032721202    2.903174269    3.723336933    4.738461018
    1.039899833    2.901113680    3.720313181    4.735266029
    1.047078464    2.899043652    3.717275834    4.732054503
    1.054257095    2.896964266    3.714225017    4.728826540
    1.061435726    2.894875603    3.711160851    4.725582242
    1.068614357    2.892777746    3.708083462    4.722321709
    1.075792988    2.890670777    3.704992971    4.719045043
    1.082971619    2.888554778    3.701889502    4.715752346
    1.090150250    2.886429831    3.698773179    4.712443719
    1.097328881    2.884296017    3.695644124    4.709119265
    1.104507513    2.882153419    3.692502460    4.705779086
    1.111686144    2.880002120    3.689348312    4.702423283
    1.118864775    2.877842200    3.686181801    4.699051961
    1.126043406    2.875673742    3.683003051    4.695665220
    1.133222037    2.873496828    3.679812184    4.692263165
    1.140400668    2.871311540    3.676609324    4.688845898
    1.147579299    2.869117959    3.673394592    4.685413523
    1.154757930    2.866916168    3.670168113    4.681966142
    1.161936561    2.864706248    3.666930006    4.678503860
    1.169115192    2.862488280    3.663680397    4.675026779
    1.176293823    2.860262347    3.660419405    4.671535004
    1.183472454    2.858028530    3.657147153    4.668028639
    1.190651085    2.855786910    3.653863764    4.664507787
    1.197829716    2.853537568    3.650569358    4.660972552
    1.205008347    2.851280587    3.647264057    4.657423038
    1.212186978    2.849016047    3.643947982    4.653859350
    1.219365609    2.846744029    3.640621255    4.650281592
    1.226544240    2.844464614    3.637283996    4.646689868
    1.233722871    2.842177884    3.633936326    4.643084283
    1.240901503    2.839883917    3.630578365    4.639464941
    1.248080134    2.837582797    3.627210234    4.635831946
    1.255258765    2.835274601    3.623832052    4.632185404
    1.262437396    2.832959412    3.620443940    4.628525418
    1.269616027    2.830637309    3.617046015    4.624852094
    1.276794658    2.828308373    3.613638399    4.621165536
    1.283973289    2.825972682    3.610221209    4.617465848
    1.291151920    2.823630317    3.606794565    4.613753137
    1.298330551    2.821281358    3.603358584    4.610027505
    1.305509182    2.818925883    3.599913385    4.606289058
    1.312687813    2.816563972    3.596459086    4.602537902
    1.319866444    2.814195704    3.592995803    4.598774139
    1.327045075    2.811821157    3.589523655    4.594997875
    1.334223706    2.809440412    3.586042757    4.591209216
    1.341402337    2.807053544    3.582553227    4.587408264
    1.348580968    2.804660635    3.579055181    4.583595126
    1.355759599    2.802261760    3.575548734    4.579769905
    1.362938230    2.799856998    3.572034002    4.575932706
    1.370116861    2.797446427    3.568511100    4.572083634
    1.377295492    2.795030124    3.564980143    4.568222793
    1.384474124    2.792608167    3.561441245    4.564350287
    1.391652755    2.790180631    3.557894520    4.560466221
    1.398831386    2.787747595    3.554340082    4.556570698
    1.406010017    2.785309134    3.550778045    4.552663824
    1.413188648    2.782865325    3.547208520    4.548745702
    1.420367279    2.780416245    3.543631622    4.544816436
    1.427545910    2.777961967    3.540047461    4.540876129
    1.434724541    2.775502570    3.536456149    4.536924887
    1.441903172    2.773038126    3.532857798    4.532962811
    1.449081803    2.770568713    3.529252519    4.528990007
    1.456260434    2.768094404    3.525640422    4.525006577
    1.463439065    2.765615274    3.522021617    4.521012625
    1.470617696    2.763131397    3.518396213    4.517008253
    1.477796327    2.760642848    3.514764321    4.512993565
    1.484974958    2.758149700    3.511126048    4.508968665
    1.492153589    2.755652026    3.507481503    4.504933654
    1.499332220    2.753149900    3.503830794    4.500888635
    1.506510851    2.750643395    3.500174028    4.496833711
    1.513689482    2.748132583    3.496511312    4.492768984
    1.520868114    2.745617537    3.492842753    4.488694557
    1.528046745    2.743098328    3.489168457    4.484610531
    1.535225376    2.740575029    3.485488528    4.480517008
    1.542404007    2.738047711    3.481803074    4.476414090
    1.549582638    2.735516445    3.478112196    4.472301878
    1.556761269    2.732981301    3.474416001    4.468180473
    1.563939900    2.730442352    3.470714592    4.464049978
    1.571118531    2.727899666    3.467008072    4.459910492
    1.578297162    2.725353314    3.463296543    4.455762117
    1.585475793    2.722803365    3.459580107    4.451604952
    1.592654424    2.720249889    3.455858868    4.447439099
    1.599833055    2.717692955    3.452132924    4.443264657
    1.607011686    2.715132631    3.448402379    4.439081726
    1.614190317    2.712568986    3.444667330    4.434890406
    1.621368948    2.710002088    3.440927879    4.430690797
    1.628547579    2.707432005    3.437184124    4.426482997
    1.635726210    2.704858803    3.433436164    4.422267106
    1.642904841    2.702282551    3.429684098    4.418043222
    1.650083472    2.699703315    3.425928022    4.413811444
    1.657262104    2.697121161    3.422168034    4.409571871
    1.664440735    2.694536155    3.418404231    4.405324599
    1.671619366    2.691948364    3.414636708    4.401069728
    1.678797997    2.689357852    3.410865561    4.396807354
    1.685976628    2.686764685    3.407090886    4.392537575
    1.693155259    2.684168928    3.403312776    4.388260488
    1.700333890    2.681570644    3.399531326    4.383976189
    1.707512521    2.678969899    3.395746628    4.379684776
    1.714691152    2.676366754    3.391958777    4.375386343
    1.721869783    2.673761275    3.388167864    4.371080989
    1.729048414    2.671153524    3.384373981    4.366768807
    1.736227045    2.668543564    3.380577219    4.362449893
    1.743405676    2.665931457    3.376777670    4.358124343
    1.750584307    2.663317265    3.372975422    4.353792252
    1.757762938    2.660701050    3.369170567    4.349453713
    1.764941569    2.658082872    3.365363193    4.345108821
    1.772120200    2.655462794    3.361553388    4.340757670
    1.779298831    2.652840875    3.357741241    4.336400353
    1.786477462    2.650217176    3.353926839    4.332036965
    1.793656093    2.647591756    3.350110269    4.327667597
    1.800834725    2.644964675    3.346291617    4.323292343
    1.808013356    2.642335993    3.342470969    4.318911296
    1.815191987    2.639705768    3.338648411    4.314524546
    1.822370618    2.637074058    3.334824027    4.310132186
    1.829549249    2.634440922    3.330997902    4.305734308
    1.836727880    2.631806417    3.327170118    4.301331003
    1.843906511    2.629170601    3.323340759    4.296922360
    1.851085142    2.626533530    3.319509908    4.292508472
    1.858263773    2.623895262    3.315677646    4.288089428
    1.865442404    2.621255852    3.311844055    4.283665317
    1.872621035    2.618615356    3.308009216    4.279236230
    1.879799666    2.615973831    3.304173209    4.274802255
    1.886978297    2.613331331    3.300336113    4.270363482
    1.894156928    2.610687911    3.296498009    4.265919998
    1.901335559    2.608043625    3.292658974    4.261471892
    1.908514190    2.605398528    3.288819086    4.257019252
    1.915692821    2.602752674    3.284978424    4.252562165
    1.922871452    2.600106115    3.281137064    4.248100718
    1.930050083    2.597458905    3.277295083    4.243634999
    1.937228715    2.594811096    3.273452555    4.239165092
    1.944407346    2.592162740    3.269609558    4.234691085
    1.951585977    2.589513891    3.265766165    4.230213063
    1.958764608    2.586864598    3.261922451    4.225731111
    1.965943239    2.584214914    3.258078489    4.221245314
    1.973121870    2.581564889    3.254234353    4.216755758
    1.980300501    2.578914573    3.250390114    4.212262525
    1.987479132    2.576264018    3.246545846    4.207765700
    1.994657763    2.573613271    3.242701619    4.203265367
    2.001836394    2.570962384    3.238857505    4.198761608
    2.009015025    2.568311404    3.235013573    4.194254507
    2.016193656    2.565660381    3.231169894    4.189744145
    2.023372287    2.563009363    3.227326537    4.185230605
    2.030550918    2.560358397    3.223483571    4.180713968
    2.037729549    2.557707532    3.219641063    4.176194316
    2.044908180    2.555056814    3.215799082    4.171671728
    2.052086811    2.552406291    3.211957694    4.167146287
    2.059265442    2.549756009    3.208116967    4.162618072
    2.066444073    2.547106013    3.204276966    4.158087162
    2.073622705    2.544456351    3.200437756    4.153553638
    2.080801336    2.541807066    3.196599404    4.149017577
    2.087979967    2.539158205    3.192761972    4.144479059
    2.095158598    2.536509812    3.188925525    4.139938162
    2.102337229    2.533861932    3.185090127    4.135394963
    2.109515860    2.531214608    3.181255839    4.130849540
    2.116694491    2.528567883    3.177422725    4.126301970
    2.123873122    2.525921803    3.173590847    4.121752330
    2.131051753    2.523276408    3.169760265    4.117200695
    2.138230384    2.520631743    3.165931040    4.112647142
    2.145409015    2.517987848    3.162103233    4.108091746
    2.152587646    2.515344767    3.158276902    4.103534583
    2.159766277    2.512702540    3.154452108    4.098975726
    2.166944908    2.510061209    3.150628909    4.094415250
    2.174123539    2.507420814    3.146807363    4.089853229
    2.181302170    2.504781397    3.142987527    4.085289736
    2.188480801    2.502142997    3.139169459    4.080724845
    2.195659432    2.499505654    3.135353216    4.076158628
    2.202838063    2.496869408    3.131538853    4.071591158
    2.210016694    2.494234297    3.127726425    4.067022506
    2.217195326    2.491600362    3.123915989    4.062452744
    2.224373957    2.488967639    3.120107598    4.057881942
    2.231552588    2.486336167    3.116301307    4.053310172
    2.238731219    2.483705984    3.112497169    4.048737504
    2.245909850    2.481077127    3.108695238    4.044164008
    2.253088481    2.478449634    3.104895565    4.039589753
    2.260267112    2.475823541    3.101098202    4.035014808
    2.267445743    2.473198885    3.097303203    4.030439242
    2.274624374    2.470575702    3.093510616    4.025863123
    2.281803005    2.467954027    3.089720494    4.021286519
    2.288981636    2.465333896    3.085932886    4.016709498
    2.296160267    2.462715345    3.082147842    4.012132127
    2.303338898    2.460098407    3.078365410    4.007554472
    2.310517529    2.457483118    3.074585640    4.002976599
    2.317696160    2.454869511    3.070808580    3.998398575
    2.324874791    2.452257621    3.067034278    3.993820464
    2.332053422    2.449647480    3.063262780    3.989242333
    2.339232053    2.447039123    3.059494133    3.984664245
    2.346410684    2.444432582    3.055728384    3.980086265
    2.353589316    2.441827889    3.051965579    3.975508457
    2.360767947    2.439225077    3.048205762    3.970930883
    2.367946578    2.436624177    3.044448979    3.966353608
    2.375125209    2.434025222    3.040695274    3.961776694
    2.382303840    2.431428242    3.036944692    3.957200203
    2.389482471    2.428833269    3.033197275    3.952624196
    2.396661102    2.426240332    3.029453067    3.948048736
    2.403839733    2.423649464    3.025712110    3.943473884
    2.411018364    2.421060693    3.021974446    3.938899699
    2.418196995    2.418474049    3.018240118    3.934326243
    2.425375626    2.415889562    3.014509166    3.929753574
    2.432554257    2.413307261    3.010781631    3.925181754
    2.439732888    2.410727175    3.007057554    3.920610839
    2.446911519    2.408149332    3.003336974    3.916040890
    2.454090150    2.405573761    2.999619931    3.911471965
    2.461268781    2.403000489    2.995906465    3.906904121
    2.468447412    2.400429544    2.992196613    3.902337415
    2.475626043    2.397860954    2.988490414    3.897771906
    2.482804674    2.395294745    2.984787905    3.893207648
    2.489983306    2.392730945    2.981089125    3.888644700
    2.497161937    2.390169579    2.977394110    3.884083116
    2.504340568    2.387610675    2.973702896    3.879522952
    2.511519199    2.385054257    2.970015520    3.874964264
    2.518697830    2.382500352    2.966332016    3.870407105
    2.525876461    2.379948985    2.962652422    3.865851531
    2.533055092    2.377400181    2.958976771    3.861297594
    2.540233723    2.374853965    2.955305097    3.856745350
