# energy grid [eV]     ieps_x  ieps_y  ieps_z
#
    0.200000000    6.812377927    6.254391298    5.275228947
    0.207178631    6.811107263    6.253242529    5.274382045
    0.214357262    6.809792396    6.252053797    5.273505647
    0.221535893    6.808433390    6.250825160    5.272599793
    0.228714524    6.807030307    6.249556673    5.271664520
    0.235893155    6.805583214    6.248248399    5.270699870
    0.243071786    6.804092179    6.246900397    5.269705885
    0.250250417    6.802557273    6.245512732    5.268682606
    0.257429048    6.800978567    6.244085468    5.267630079
    0.264607679    6.799356136    6.242618673    5.266548348
    0.271786311    6.797690056    6.241112416    5.265437460
    0.278964942    6.795980405    6.239566767    5.264297463
    0.286143573    6.794227263    6.237981798    5.263128405
    0.293322204    6.792430712    6.236357584    5.261930338
    0.300500835    6.790590836    6.234694200    5.260703312
    0.307679466    6.788707722    6.232991725    5.259447380
    0.314858097    6.786781457    6.231250237    5.258162595
    0.322036728    6.784812131    6.229469818    5.256849013
    0.329215359    6.782799836    6.227650551    5.255506689
    0.336393990    6.780744664    6.225792520    5.254135681
    0.343572621    6.778646713    6.223895811    5.252736048
    0.350751252    6.776506079    6.221960513    5.251307848
    0.357929883    6.774322861    6.219986716    5.249851143
    0.365108514    6.772097160    6.217974510    5.248365995
    0.372287145    6.769829081    6.215923988    5.246852466
    0.379465776    6.767518726    6.213835246    5.245310620
    0.386644407    6.765166203    6.211708379    5.243740524
    0.393823038    6.762771620    6.209543486    5.242142242
    0.401001669    6.760335088    6.207340665    5.240515844
    0.408180301    6.757856718    6.205100019    5.238861396
    0.415358932    6.755336623    6.202821650    5.237178970
    0.422537563    6.752774921    6.200505662    5.235468636
    0.429716194    6.750171727    6.198152161    5.233730465
    0.436894825    6.747527160    6.195761255    5.231964530
    0.444073456    6.744841342    6.193333052    5.230170906
    0.451252087    6.742114395    6.190867663    5.228349667
    0.458430718    6.739346442    6.188365201    5.226500890
    0.465609349    6.736537609    6.185825779    5.224624652
    0.472787980    6.733688024    6.183249511    5.222721030
    0.479966611    6.730797816    6.180636515    5.220790104
    0.487145242    6.727867115    6.177986908    5.218831955
    0.494323873    6.724896053    6.175300810    5.216846662
    0.501502504    6.721884765    6.172578342    5.214834309
    0.508681135    6.718833386    6.169819626    5.212794979
    0.515859766    6.715742052    6.167024787    5.210728756
    0.523038397    6.712610902    6.164193948    5.208635724
    0.530217028    6.709440077    6.161327237    5.206515970
    0.537395659    6.706229718    6.158424782    5.204369582
    0.544574290    6.702979967    6.155486712    5.202196646
    0.551752922    6.699690971    6.152513158    5.199997252
    0.558931553    6.696362873    6.149504251    5.197771490
    0.566110184    6.692995823    6.146460125    5.195519451
    0.573288815    6.689589969    6.143380914    5.193241225
    0.580467446    6.686145462    6.140266755    5.190936907
    0.587646077    6.682662453    6.137117785    5.188606588
    0.594824708    6.679141095    6.133934141    5.186250364
    0.602003339    6.675581543    6.130715964    5.183868330
    0.609181970    6.671983953    6.127463395    5.181460581
    0.616360601    6.668348482    6.124176575    5.179027215
    0.623539232    6.664675288    6.120855648    5.176568329
    0.630717863    6.660964533    6.117500759    5.174084022
    0.637896494    6.657216376    6.114112053    5.171574394
    0.645075125    6.653430980    6.110689676    5.169039544
    0.652253756    6.649608509    6.107233778    5.166479574
    0.659432387    6.645749129    6.103744506    5.163894585
    0.666611018    6.641853004    6.100222011    5.161284681
    0.673789649    6.637920302    6.096666445    5.158649963
    0.680968280    6.633951193    6.093077959    5.155990537
    0.688146912    6.629945845    6.089456708    5.153306508
    0.695325543    6.625904430    6.085802844    5.150597980
    0.702504174    6.621827120    6.082116525    5.147865061
    0.709682805    6.617714087    6.078397907    5.145107857
    0.716861436    6.613565506    6.074647146    5.142326476
    0.724040067    6.609381553    6.070864401    5.139521027
    0.731218698    6.605162404    6.067049833    5.136691619
    0.738397329    6.600908235    6.063203600    5.133838362
    0.745575960    6.596619226    6.059325865    5.130961365
    0.752754591    6.592295557    6.055416789    5.128060742
    0.759933222    6.587937407    6.051476537    5.125136602
    0.767111853    6.583544958    6.047505271    5.122189059
    0.774290484    6.579118392    6.043503156    5.119218226
    0.781469115    6.574657893    6.039470359    5.116224216
    0.788647746    6.570163645    6.035407045    5.113207145
    0.795826377    6.565635834    6.031313383    5.110167126
    0.803005008    6.561074644    6.027189540    5.107104275
    0.810183639    6.556480264    6.023035685    5.104018709
    0.817362270    6.551852881    6.018851988    5.100910543
    0.824540902    6.547192683    6.014638619    5.097779896
    0.831719533    6.542499860    6.010395751    5.094626885
    0.838898164    6.537774603    6.006123553    5.091451628
    0.846076795    6.533017101    6.001822200    5.088254244
    0.853255426    6.528227547    5.997491864    5.085034853
    0.860434057    6.523406134    5.993132719    5.081793573
    0.867612688    6.518553054    5.988744941    5.078530526
    0.874791319    6.513668501    5.984328704    5.075245833
    0.881969950    6.508752671    5.979884184    5.071939614
    0.889148581    6.503805758    5.975411557    5.068611991
    0.896327212    6.498827958    5.970911002    5.065263087
    0.903505843    6.493819468    5.966382694    5.061893023
    0.910684474    6.488780485    5.961826814    5.058501924
    0.917863105    6.483711206    5.957243539    5.055089912
    0.925041736    6.478611831    5.952633048    5.051657112
    0.932220367    6.473482557    5.947995522    5.048203647
    0.939398998    6.468323585    5.943331141    5.044729643
    0.946577629    6.463135114    5.938640085    5.041235224
    0.953756260    6.457917345    5.933922536    5.037720516
    0.960934891    6.452670479    5.929178675    5.034185644
    0.968113523    6.447394718    5.924408685    5.030630735
    0.975292154    6.442090262    5.919612748    5.027055915
    0.982470785    6.436757315    5.914791046    5.023461310
    0.989649416    6.431396080    5.909943764    5.019847049
    0.996828047    6.426006758    5.905071085    5.016213257
    1.004006678    6.420589555    5.900173193    5.012560064
    1.011185309    6.415144674    5.895250272    5.008887596
    1.018363940    6.409672320    5.890302507    5.005195982
    1.025542571    6.404172696    5.885330083    5.001485351
    1.032721202    6.398646008    5.880333185    4.997755831
    1.039899833    6.393092461    5.875311998    4.994007551
    1.047078464    6.387512261    5.870266710    4.990240641
    1.054257095    6.381905613    5.865197504    4.986455230
    1.061435726    6.376272724    5.860104569    4.982651447
    1.068614357    6.370613800    5.854988090    4.978829422
    1.075792988    6.364929047    5.849848254    4.974989286
    1.082971619    6.359218672    5.844685248    4.971131169
    1.090150250    6.353482882    5.839499259    4.967255201
    1.097328881    6.347721885    5.834290474    4.963361512
    1.104507513    6.341935886    5.829059081    4.959450234
    1.111686144    6.336125094    5.823805267    4.955521497
    1.118864775    6.330289717    5.818529219    4.951575432
    1.126043406    6.324429961    5.813231126    4.947612171
    1.133222037    6.318546034    5.807911175    4.943631845
    1.140400668    6.312638145    5.802569553    4.939634584
    1.147579299    6.306706501    5.797206450    4.935620521
    1.154757930    6.300751310    5.791822052    4.931589787
    1.161936561    6.294772780    5.786416548    4.927542514
    1.169115192    6.288771119    5.780990126    4.923478833
    1.176293823    6.282746534    5.775542973    4.919398877
    1.183472454    6.276699234    5.770075278    4.915302776
    1.190651085    6.270629427    5.764587229    4.911190663
    1.197829716    6.264537320    5.759079014    4.907062670
    1.205008347    6.258423122    5.753550819    4.902918928
    1.212186978    6.252287039    5.748002834    4.898759570
    1.219365609    6.246129280    5.742435246    4.894584728
    1.226544240    6.239950052    5.736848243    4.890394533
    1.233722871    6.233749562    5.731242012    4.886189117
    1.240901503    6.227528018    5.725616740    4.881968612
    1.248080134    6.221285627    5.719972615    4.877733151
    1.255258765    6.215022596    5.714309824    4.873482865
    1.262437396    6.208739132    5.708628554    4.869217886
    1.269616027    6.202435441    5.702928992    4.864938345
    1.276794658    6.196111730    5.697211324    4.860644374
    1.283973289    6.189768204    5.691475737    4.856336106
    1.291151920    6.183405071    5.685722417    4.852013670
    1.298330551    6.177022535    5.679951550    4.847677200
    1.305509182    6.170620802    5.674163323    4.843326826
    1.312687813    6.164200078    5.668357919    4.838962680
    1.319866444    6.157760568    5.662535526    4.834584892
    1.327045075    6.151302475    5.656696328    4.830193595
    1.334223706    6.144826005    5.650840509    4.825788917
    1.341402337    6.138331361    5.644968255    4.821370992
    1.348580968    6.131818748    5.639079749    4.816939949
    1.355759599    6.125288368    5.633175176    4.812495918
    1.362938230    6.118740425    5.627254719    4.808039030
    1.370116861    6.112175122    5.621318561    4.803569416
    1.377295492    6.105592660    5.615366885    4.799087205
    1.384474124    6.098993242    5.609399875    4.794592527
    1.391652755    6.092377069    5.603417711    4.790085511
    1.398831386    6.085744342    5.597420576    4.785566288
    1.406010017    6.079095263    5.591408652    4.781034987
    1.413188648    6.072430031    5.585382120    4.776491736
    1.420367279    6.065748846    5.579341160    4.771936665
    1.427545910    6.059051908    5.573285953    4.767369902
    1.434724541    6.052339415    5.567216678    4.762791575
    1.441903172    6.045611567    5.561133516    4.758201813
    1.449081803    6.038868561    5.555036644    4.753600744
    1.456260434    6.032110594    5.548926243    4.748988495
    1.463439065    6.025337864    5.542802489    4.744365194
    1.470617696    6.018550567    5.536665561    4.739730969
    1.477796327    6.011748899    5.530515636    4.735085945
    1.484974958    6.004933055    5.524352891    4.730430250
    1.492153589    5.998103231    5.518177501    4.725764010
    1.499332220    5.991259621    5.511989643    4.721087351
    1.506510851    5.984402419    5.505789492    4.716400400
    1.513689482    5.977531817    5.499577223    4.711703281
    1.520868114    5.970648009    5.493353009    4.706996120
    1.528046745    5.963751187    5.487117025    4.702279042
    1.535225376    5.956841541    5.480869444    4.697552171
    1.542404007    5.949919264    5.474610439    4.692815632
    1.549582638    5.942984545    5.468340181    4.688069548
    1.556761269    5.936037574    5.462058842    4.683314044
    1.563939900    5.929078540    5.455766593    4.678549243
    1.571118531    5.922107631    5.449463604    4.673775267
    1.578297162    5.915125036    5.443150046    4.668992240
    1.585475793    5.908130941    5.436826087    4.664200284
    1.592654424    5.901125533    5.430491897    4.659399520
    1.599833055    5.894108997    5.424147642    4.654590070
    1.607011686    5.887081519    5.417793491    4.649772056
    1.614190317    5.880043283    5.411429611    4.644945598
    1.621368948    5.872994473    5.405056167    4.640110817
    1.628547579    5.865935273    5.398673326    4.635267833
    1.635726210    5.858865863    5.392281251    4.630416766
    1.642904841    5.851786427    5.385880108    4.625557735
    1.650083472    5.844697144    5.379470061    4.620690858
    1.657262104    5.837598197    5.373051271    4.615816256
    1.664440735    5.830489762    5.366623902    4.610934045
    1.671619366    5.823372021    5.360188115    4.606044344
    1.678797997    5.816245150    5.353744072    4.601147269
    1.685976628    5.809109327    5.347291932    4.596242939
    1.693155259    5.801964729    5.340831855    4.591331469
    1.700333890    5.794811531    5.334364001    4.586412975
    1.707512521    5.787649909    5.327888528    4.581487574
    1.714691152    5.780480036    5.321405593    4.576555380
    1.721869783    5.773302087    5.314915354    4.571616509
    1.729048414    5.766116234    5.308417966    4.566671074
    1.736227045    5.758922649    5.301913585    4.561719191
    1.743405676    5.751721503    5.295402366    4.556760971
    1.750584307    5.744512967    5.288884464    4.551796529
    1.757762938    5.737297210    5.282360031    4.546825977
    1.764941569    5.730074401    5.275829220    4.541849426
    1.772120200    5.722844708    5.269292184    4.536866990
    1.779298831    5.715608298    5.262749073    4.531878780
    1.786477462    5.708365339    5.256200037    4.526884905
    1.793656093    5.701115994    5.249645228    4.521885476
    1.800834725    5.693860430    5.243084794    4.516880604
    1.808013356    5.686598810    5.236518882    4.511870398
    1.815191987    5.679331297    5.229947642    4.506854966
    1.822370618    5.672058053    5.223371218    4.501834418
    1.829549249    5.664779241    5.216789759    4.496808860
    1.836727880    5.657495020    5.210203408    4.491778401
    1.843906511    5.650205550    5.203612310    4.486743148
    1.851085142    5.642910991    5.197016610    4.481703208
    1.858263773    5.635611500    5.190416449    4.476658685
    1.865442404    5.628307235    5.183811972    4.471609687
    1.872621035    5.620998352    5.177203318    4.466556318
    1.879799666    5.613685006    5.170590628    4.461498682
    1.886978297    5.606367354    5.163974043    4.456436884
    1.894156928    5.599045547    5.157353702    4.451371027
    1.901335559    5.591719740    5.150729743    4.446301215
    1.908514190    5.584390084    5.144102304    4.441227550
    1.915692821    5.577056730    5.137471521    4.436150134
    1.922871452    5.569719830    5.130837531    4.431069069
    1.930050083    5.562379532    5.124200469    4.425984455
    1.937228715    5.555035986    5.117560469    4.420896395
    1.944407346    5.547689338    5.110917665    4.415804986
    1.951585977    5.540339737    5.104272190    4.410710330
    1.958764608    5.532987327    5.097624175    4.405612524
    1.965943239    5.525632255    5.090973754    4.400511669
    1.973121870    5.518274664    5.084321055    4.395407861
    1.980300501    5.510914698    5.077666208    4.390301198
    1.987479132    5.503552500    5.071009344    4.385191777
    1.994657763    5.496188210    5.064350588    4.380079694
    2.001836394    5.488821970    5.057690070    4.374965047
    2.009015025    5.481453920    5.051027916    4.369847929
    2.016193656    5.474084199    5.044364250    4.364728436
    2.023372287    5.466712945    5.037699199    4.359606662
    2.030550918    5.459340294    5.031032886    4.354482701
    2.037729549    5.451966385    5.024365435    4.349356647
    2.044908180    5.444591351    5.017696968    4.344228591
    2.052086811    5.437215327    5.011027607    4.339098627
    2.059265442    5.429838448    5.004357473    4.333966846
    2.066444073    5.422460845    4.997686686    4.328833340
    2.073622705    5.415082652    4.991015366    4.323698198
    2.080801336    5.407703998    4.984343630    4.318561511
    2.087979967    5.400325015    4.977671597    4.313423370
    2.095158598    5.392945831    4.970999383    4.308283861
    2.102337229    5.385566574    4.964327106    4.303143076
    2.109515860    5.378187373    4.957654879    4.298001100
    2.116694491    5.370808353    4.950982818    4.292858023
    2.123873122    5.363429641    4.944311036    4.287713930
    2.131051753    5.356051362    4.937639646    4.282568908
    2.138230384    5.348673638    4.930968761    4.277423044
    2.145409015    5.341296595    4.924298491    4.272276422
    2.152587646    5.333920352    4.917628948    4.267129127
    2.159766277    5.326545033    4.910960240    4.261981243
    2.166944908    5.319170756    4.904292477    4.256832855
    2.174123539    5.311797643    4.897625767    4.251684045
    2.181302170    5.304425811    4.890960218    4.246534897
    2.188480801    5.297055378    4.884295935    4.241385491
    2.195659432    5.289686461    4.877633025    4.236235911
    2.202838063    5.282319177    4.870971593    4.231086236
    2.210016694    5.274953639    4.864311742    4.225936548
    2.217195326    5.267589964    4.857653576    4.220786926
    2.224373957    5.260228263    4.850997198    4.215637450
    2.231552588    5.252868650    4.844342710    4.210488199
    2.238731219    5.245511236    4.837690212    4.205339251
    2.245909850    5.238156132    4.831039805    4.200190685
    2.253088481    5.230803448    4.824391588    4.195042576
    2.260267112    5.223453293    4.817745660    4.189895004
    2.267445743    5.216105775    4.811102119    4.184748042
    2.274624374    5.208761002    4.804461061    4.179601768
    2.281803005    5.201419080    4.797822584    4.174456257
    2.288981636    5.194080114    4.791186782    4.169311583
    2.296160267    5.186744210    4.784553751    4.164167820
    2.303338898    5.179411471    4.777923584    4.159025042
    2.310517529    5.172082001    4.771296376    4.153883322
    2.317696160    5.164755901    4.764672217    4.148742734
    2.324874791    5.157433273    4.758051200    4.143603347
    2.332053422    5.150114218    4.751433416    4.138465236
    2.339232053    5.142798835    4.744818955    4.133328469
    2.346410684    5.135487223    4.738207907    4.128193118
    2.353589316    5.128179479    4.731600359    4.123059253
    2.360767947    5.120875703    4.724996401    4.117926944
    2.367946578    5.113575988    4.718396118    4.112796258
    2.375125209    5.106280432    4.711799599    4.107667265
    2.382303840    5.098989128    4.705206927    4.102540032
    2.389482471    5.091702171    4.698618188    4.097414628
    2.396661102    5.084419653    4.692033466    4.092291118
    2.403839733    5.077141667    4.685452845    4.087169569
    2.411018364    5.069868305    4.678876408    4.082050046
    2.418196995    5.062599655    4.672304235    4.076932616
    2.425375626    5.055335810    4.665736409    4.071817343
    2.432554257    5.048076856    4.659173009    4.066704291
    2.439732888    5.040822884    4.652614116    4.061593524
    2.446911519    5.033573979    4.646059809    4.056485106
    2.454090150    5.026330228    4.639510165    4.051379099
    2.461268781    5.019091717    4.632965262    4.046275565
    2.468447412    5.011858532    4.626425178    4.041174566
    2.475626043    5.004630755    4.619889988    4.036076163
    2.482804674    4.997408471    4.613359768    4.030980418
    2.489983306    4.990191762    4.606834591    4.025887390
    2.497161937    4.982980710    4.600314534    4.020797140
    2.504340568    4.975775395    4.593799667    4.015709726
    2.511519199    4.968575899    4.587290065    4.010625207
    2.518697830    4.961382299    4.580785798    4.005543641
    2.525876461    4.954194676    4.574286939    4.000465087
    2.533055092    4.947013107    4.567793557    3.995389602
    2.540233723    4.939837669    4.561305723    3.990317242
