# energy grid [eV]     epsr_x  epsr_y  epsr_z
#
    0.200000000   16.042203578   20.020554990   19.808032240
    0.207178631   16.047252383   20.027671499   19.815116427
    0.214357262   16.052491708   20.035066985   19.822477191
    0.221535893   16.057923023   20.042744997   19.830117863
    0.228714524   16.063547881   20.050709339   19.838042000
    0.235893155   16.069367924   20.058964089   19.846253402
    0.243071786   16.075384889   20.067513620   19.854756132
    0.250250417   16.081600613   20.076362630   19.863554537
    0.257429048   16.088017036   20.085516170   19.872653268
    0.264607679   16.094636214   20.094979671   19.882057314
    0.271786311   16.101460322   20.104758987   19.891772021
    0.278964942   16.108491664   20.114860432   19.901803135
    0.286143573   16.115732684   20.125290825   19.912156832
    0.293322204   16.123185974   20.136057547   19.922839761
    0.300500835   16.130854286   20.147168593   19.933859095
    0.307679466   16.138740546   20.158632646   19.945222579
    0.314858097   16.146847868   20.170459152   19.956938595
    0.322036728   16.155179573   20.182658404   19.969016227
    0.329215359   16.163739202   20.195241651   19.981465346
    0.336393990   16.172530541   20.208221209   19.994296694
    0.343572621   16.181557647   20.221610598   20.007521996
    0.350751252   16.190824867   20.235424701   20.021154076
    0.357929883   16.200336880   20.249679948   20.035207000
    0.365108514   16.210098724   20.264394530   20.049696240
    0.372287145   16.220115844   20.279588652   20.064638867
    0.379465776   16.230394134   20.295284837   20.080053780
    0.386644407   16.240940000   20.311508282   20.095961971
    0.393823038   16.251760423   20.328287282   20.112386848
    0.401001669   16.262863039   20.345653749   20.129354618
    0.408180301   16.274256230   20.363643828   20.146894744
    0.415358932   16.285949243   20.382298656   20.165040512
    0.422537563   16.297952316   20.401665288   20.183829705
    0.429716194   16.310276854   20.421797837   20.203305448
    0.436894825   16.322935625   20.442758901   20.223517242
    0.444073456   16.335943011   20.464621338   20.244522265
    0.451252087   16.349315329   20.487470519   20.266387005
    0.458430718   16.363071218   20.511407205   20.289189335
    0.465609349   16.377232155   20.536551239   20.313021186
    0.472787980   16.391823099   20.563046369   20.337992006
    0.479966611   16.406873346   20.591066578   20.364233305
    0.487145242   16.422417658   20.620824517   20.391904682
    0.494323873   16.438497760   20.652582859   20.421201929
    0.501502504   16.455164391   20.686669780   20.452368052
    0.508681135   16.472480099   20.723500312   20.485708449
    0.515859766   16.490523138   20.763606144   20.521612045
    0.523038397   16.509392923   20.807677518   20.560580978
    0.530217028   16.529217706   20.856622319   20.603272401
    0.537395659   16.550165241   20.911648374   20.650556662
    0.544574290   16.572456943   20.974372849   20.703594590
    0.551752922   16.596383954   21.046946415   20.763925264
    0.558931553   16.622314443   21.132109003   20.833505820
    0.566110184   16.650645161   21.232811558   20.914446488
    0.573288815   16.681506565   21.349919197   21.007397744
    0.580467446   16.713463162   21.472092521   21.104441819
    0.587646077   16.738532451   21.537010429   21.161848028
    0.594824708   16.730157953   21.337743150   21.034289089
    0.602003339   16.662993573   20.676764068   20.583058391
    0.609181970   16.606880529   20.097521744   20.190103616
    0.616360601   16.611026346   19.982816948   20.124517712
    0.623539232   16.642664005   20.077286961   20.207025359
    0.630717863   16.680020414   20.211128581   20.318507340
    0.637896494   16.717294384   20.338850943   20.427242898
    0.645075125   16.753681245   20.453839697   20.528897522
    0.652253756   16.789537326   20.558504600   20.625571783
    0.659432387   16.825418816   20.656802023   20.720576082
    0.666611018   16.861875535   20.752615993   20.817312539
    0.673789649   16.899417446   20.849394069   20.918966869
    0.680968280   16.938470261   20.949321949   21.027548937
    0.688146912   16.979122390   21.049363027   21.139382428
    0.695325543   17.020062466   21.125372326   21.227153731
    0.702504174   17.055683719   21.089224111   21.191534993
    0.709682805   17.078780755   20.828068193   20.905469561
    0.716861436   17.104776217   20.559932473   20.615331603
    0.724040067   17.150138319   20.515802571   20.582331615
    0.731218698   17.208477241   20.587323467   20.685165374
    0.738397329   17.274876098   20.683150670   20.822090504
    0.745575960   17.349301830   20.777442101   20.965749029
    0.752754591   17.433750370   20.866263019   21.114110378
    0.759933222   17.531087185   20.950886178   21.271600443
    0.767111853   17.644026763   21.033378505   21.443293049
    0.774290484   17.771338413   21.114988914   21.628868749
    0.781469115   17.892145264   21.193239999   21.801586065
    0.788647746   17.910749834   21.252238556   21.834958113
    0.795826377   17.579226831   21.249093154   21.399896916
    0.803005008   16.901585064   21.185258953   20.502136147
    0.810183639   16.529516790   21.176390412   20.008455767
    0.817362270   16.537208004   21.236310917   20.017719999
    0.824540902   16.668787468   21.320707671   20.189890689
    0.831719533   16.816827087   21.411585528   20.382182635
    0.838898164   16.957281659   21.505876638   20.562286896
    0.846076795   17.088391867   21.604797725   20.725994961
    0.853255426   17.211436494   21.710711695   20.867262847
    0.860434057   17.322603830   21.826175244   20.955948425
    0.867612688   17.416002382   21.954158258   20.952966464
    0.874791319   17.515637448   22.100260703   20.946942234
    0.881969950   17.644096774   22.266751291   21.027414331
    0.889148581   17.785237509   22.435389625   21.153350438
    0.896327212   17.892489057   22.517358190   21.286622580
    0.903505843   17.849945202   22.259109952   21.403195346
    0.910684474   17.623560277   21.581428967   21.499475123
    0.917863105   17.531144495   21.173874849   21.625841535
    0.925041736   17.659685327   21.221558877   21.797418135
    0.932220367   17.869661244   21.424041075   21.986707171
    0.939398998   18.042689919   21.572866308   22.132209115
    0.946577629   17.999348514   21.439975450   22.081227146
    0.953756260   17.679623848   20.994071238   21.797285155
    0.960934891   17.419007857   20.745059481   21.595931167
    0.968113523   17.062082648   20.758479096   21.316070172
    0.975292154   16.446075766   20.820870652   20.726820214
    0.982470785   16.140082649   20.915327676   20.330460333
    0.989649416   16.218031402   21.049941778   20.349809999
    0.996828047   16.422847750   21.193430230   20.544268274
    1.004006678   16.637628015   21.330039813   20.764750760
    1.011185309   16.827941043   21.455165059   20.959815604
    1.018363940   16.960459769   21.559609460   21.075353518
    1.025542571   16.991733811   21.629339590   21.041555900
    1.032721202   17.002045884   21.692973673   20.978217839
    1.039899833   17.093569721   21.785100422   21.042142499
    1.047078464   17.213382815   21.879422891   21.167210953
    1.054257095   17.270249030   21.918107036   21.264950139
    1.061435726   17.208865034   21.860127280   21.292297646
    1.068614357   17.163066728   21.816762847   21.319249906
    1.075792988   17.188539620   21.833214806   21.364850347
    1.082971619   17.217012340   21.851877416   21.389040084
    1.090150250   17.287439588   21.904801655   21.450473860
    1.097328881   17.406018558   21.996173406   21.560142205
    1.104507513   17.542605536   22.099581178   21.687352933
    1.111686144   17.685173652   22.204362364   21.820083402
    1.118864775   17.827131204   22.307550104   21.955901991
    1.126043406   17.944538773   22.403264278   22.088444450
    1.133222037   17.980662582   22.477511415   22.192213710
    1.140400668   17.905481707   22.524595330   22.201902039
    1.147579299   17.670797967   22.535265153   21.997056923
    1.154757930   17.388415275   22.537656462   21.707533892
    1.161936561   17.343497006   22.602684048   21.645736442
    1.169115192   17.459494640   22.712557494   21.742425878
    1.176293823   17.619359638   22.839932634   21.880594977
    1.183472454   17.786787816   22.977600072   22.022680033
    1.190651085   17.954823047   23.124732340   22.161515051
    1.197829716   18.114012514   23.274432158   22.293823173
    1.205008347   18.215830265   23.387653444   22.402474632
    1.212186978   18.114043163   23.345754684   22.433277378
    1.219365609   17.747806190   23.092442828   22.363449896
    1.226544240   17.510480801   22.911956677   22.338959753
    1.233722871   17.511381490   22.813914339   22.392625159
    1.240901503   17.585039218   22.673898061   22.464038326
    1.248080134   17.699175025   22.668770103   22.567179915
    1.255258765   17.838378729   22.801905507   22.699710474
    1.262437396   17.982070246   22.978599906   22.845894847
    1.269616027   18.125185567   23.162944801   23.000567062
    1.276794658   18.268063359   23.346495715   23.157732248
    1.283973289   18.405826344   23.515214466   23.285347040
    1.291151920   18.509585066   23.610304388   23.270075665
    1.298330551   18.513786635   23.513860361   22.968695382
    1.305509182   18.445231126   23.304182771   22.623493795
    1.312687813   18.425544861   23.254867027   22.554195021
    1.319866444   18.371691337   23.303438105   22.650526949
    1.327045075   18.304021373   23.375993452   22.788439712
    1.334223706   18.338366137   23.486513154   22.942549271
    1.341402337   18.357726903   23.529278113   23.097441458
    1.348580968   18.286297504   23.457018183   23.246642648
    1.355759599   18.284697902   23.460994122   23.395793596
    1.362938230   18.375166643   23.567805646   23.532056309
    1.370116861   18.442522979   23.645820365   23.605522318
    1.377295492   18.450683793   23.651012554   23.599455246
    1.384474124   18.495887286   23.699480566   23.637831058
    1.391652755   18.578817297   23.795038307   23.730728232
    1.398831386   18.650737398   23.873966406   23.751602024
    1.406010017   18.720950970   23.940531339   23.595872768
    1.413188648   18.810563539   24.028568822   23.432057184
    1.420367279   18.933062031   24.165275975   23.469515351
    1.427545910   19.074380866   24.327860930   23.617106924
    1.434724541   19.225879916   24.498908263   23.789837125
    1.441903172   19.386562566   24.670620465   23.960916593
    1.449081803   19.553315955   24.838513845   24.124757791
    1.456260434   19.702385477   24.995788901   24.283277237
    1.463439065   19.743688520   25.070777220   24.409272093
    1.470617696   19.573909141   24.967350144   24.461907432
    1.477796327   19.383712477   24.825685556   24.497381022
    1.484974958   19.289985252   24.745726822   24.546640987
    1.492153589   19.191496313   24.703918670   24.581952790
    1.499332220   19.108251776   24.730465377   24.619009560
    1.506510851   19.103019689   24.852384855   24.664789101
    1.513689482   19.040505547   25.001640357   24.595906003
    1.520868114   18.951948438   25.156997362   24.490916300
    1.528046745   19.019796440   25.347810975   24.566842976
    1.535225376   19.184523140   25.505406081   24.760919471
    1.542404007   19.369040727   25.520658766   24.985750817
    1.549582638   19.544670461   25.483276985   25.195137938
    1.556761269   19.682087652   25.526448074   25.310045907
    1.563939900   19.739080584   25.477511799   25.231794499
    1.571118531   19.751381915   25.338190229   25.125349173
    1.578297162   19.758551530   25.306424812   25.173797230
    1.585475793   19.771158403   25.384578169   25.283794481
    1.592654424   19.819756951   25.543793154   25.348031639
    1.599833055   19.890131836   25.732333834   25.299851768
    1.607011686   19.960940117   25.897933569   25.242623362
    1.614190317   20.029675001   26.032707645   25.290673975
    1.621368948   20.150948948   26.221487897   25.453253138
    1.628547579   20.317380670   26.466024328   25.674734604
    1.635726210   20.485191931   26.714816362   25.884475840
    1.642904841   20.610850371   26.910325457   26.025890369
    1.650083472   20.691911249   27.035035552   26.126935118
    1.657262104   20.733931023   27.101888771   26.273969881
    1.664440735   20.649126173   26.943990443   26.424473211
    1.671619366   20.525251236   26.589396670   26.545531825
    1.678797997   20.526485663   26.440476329   26.689726294
    1.685976628   20.551986768   26.584175805   26.838829382
    1.693155259   20.584424387   26.816527808   26.987551103
    1.700333890   20.701818823   27.000934311   27.163800691
    1.707512521   20.825608654   27.162392254   27.312272151
    1.714691152   20.893673962   27.246137419   27.308228506
    1.721869783   20.949328207   27.168808458   27.014258854
    1.729048414   21.040921939   27.126368232   26.746541156
    1.736227045   21.152085318   27.283017294   26.806917102
    1.743405676   21.250379662   27.478885810   27.000775581
    1.750584307   21.354189712   27.545616640   27.138940939
    1.757762938   21.413295520   27.320375287   27.067971981
    1.764941569   21.436538926   27.046197178   26.922085078
    1.772120200   21.544340571   27.070807807   26.943193210
    1.779298831   21.755315409   27.356575255   27.212402410
    1.786477462   22.001010794   27.725910510   27.589729477
    1.793656093   22.213114721   28.081665497   27.949745344
    1.800834725   22.297840327   28.372096001   28.173473318
    1.808013356   22.159110566   28.557714881   28.120608272
    1.815191987   21.905182555   28.504473375   27.878400382
    1.822370618   21.838207636   28.223810890   27.829066076
    1.829549249   21.947973613   28.058262820   28.004154467
    1.836727880   22.068504413   28.054318039   28.154721964
    1.843906511   22.090776242   28.092404103   28.116183124
    1.851085142   22.111520201   28.243722686   28.052356322
    1.858263773   22.197477435   28.506328146   28.135874410
    1.865442404   22.259866695   28.742440509   28.283383882
    1.872621035   22.339078627   28.932839612   28.394234388
    1.879799666   22.522663145   29.154469447   28.447422532
    1.886978297   22.780977576   29.442080460   28.618839105
    1.894156928   23.055737947   29.758721022   28.933150098
    1.901335559   23.301223489   30.067090376   29.285693569
    1.908514190   23.452489347   30.317070065   29.571066855
    1.915692821   23.503033315   30.296009614   29.595894980
    1.922871452   23.534569451   30.032417035   29.460447265
    1.930050083   23.655396780   29.918857636   29.475447882
    1.937228715   23.885952834   30.036267032   29.610788651
    1.944407346   24.096766474   30.265232220   29.852672169
    1.951585977   24.074258902   30.433847033   30.214824372
    1.958764608   23.720826773   30.544624275   30.447615193
    1.965943239   23.347441564   30.666833205   30.318554858
    1.973121870   23.194650053   30.870432392   29.957021868
    1.980300501   23.341050938   31.180904774   29.969512229
    1.987479132   23.601226833   31.420172502   30.332609631
    1.994657763   23.895598221   31.551533562   30.612498853
    2.001836394   24.174699349   31.651622720   30.561132713
    2.009015025   24.241436911   31.725577693   30.284754905
    2.016193656   23.998366968   31.737962726   30.156313903
    2.023372287   23.592945595   31.642205595   30.201317996
    2.030550918   23.423177388   31.571877758   30.460740369
    2.037729549   23.600747575   31.685607157   30.930610294
    2.044908180   23.984117580   32.104041242   31.483974374
    2.052086811   24.403728864   32.527199360   31.952252765
    2.059265442   24.729885708   32.702224528   32.211331391
    2.066444073   24.788526773   32.621086378   32.111530946
    2.073622705   24.543460087   32.345071165   31.844821795
    2.080801336   24.122939341   31.918293889   31.782818455
    2.087979967   23.887073832   31.570245496   31.605707987
    2.095158598   23.932098045   31.625206737   31.307811973
    2.102337229   24.025898665   31.943067821   30.944781806
    2.109515860   24.077095233   32.176361343   30.730991636
    2.116694491   24.023590482   32.261263999   30.906147049
    2.123873122   23.731736494   32.201160448   31.103410314
    2.131051753   23.318024156   31.975831710   31.075820810
    2.138230384   23.297904603   32.065523843   31.242030393
    2.145409015   23.520943699   32.374535686   31.625330075
    2.152587646   23.663313394   32.645766116   31.986949798
    2.159766277   23.664167168   32.895188305   32.115040029
    2.166944908   23.735871497   33.064995284   31.904907026
    2.174123539   24.006106055   33.216489124   31.705744090
    2.181302170   24.375715096   33.441827727   31.830097687
    2.188480801   24.737446677   33.783604103   32.167933634
    2.195659432   24.985495433   34.123306162   32.317673372
    2.202838063   25.147354317   34.409689376   32.358252688
    2.210016694   25.398203654   34.746382881   32.568370196
    2.217195326   25.704539819   35.134145231   32.843606598
    2.224373957   25.939942419   35.505634076   33.145526054
    2.231552588   26.098503341   35.625949281   33.502529462
    2.238731219   26.266064261   35.451027881   33.954549153
    2.245909850   26.447306087   35.424437597   34.344182100
    2.253088481   26.538535158   35.583966486   34.417149899
    2.260267112   26.596480715   35.739727603   34.333769310
    2.267445743   26.668617755   35.967356031   34.360801287
    2.274624374   26.759365229   36.322878763   34.537765005
    2.281803005   26.932724628   36.719647324   34.843720776
    2.288981636   27.205998690   37.187191682   35.319986066
    2.296160267   27.511596157   37.679963127   35.894527924
    2.303338898   27.778072371   38.088782944   36.428038868
    2.310517529   28.028430049   38.400869133   36.849799839
    2.317696160   28.263798175   38.630620239   37.186654824
    2.324874791   28.503148591   38.901126876   37.552497358
    2.332053422   28.712993087   39.325528794   38.079775577
    2.339232053   28.929646168   39.853267972   38.701627438
    2.346410684   29.182662912   40.380471193   39.200797668
    2.353589316   29.396900426   40.758141065   39.278866561
    2.360767947   29.595321155   41.082571374   38.966282465
    2.367946578   29.836770471   41.497917273   38.540593310
    2.375125209   30.124913928   42.009197167   38.316583088
    2.382303840   30.486189375   42.671353338   38.573427277
    2.389482471   30.874576013   43.394073390   39.066643999
    2.396661102   31.208642781   43.936862153   39.472711532
    2.403839733   31.320750390   43.938209805   39.490400899
    2.411018364   31.257218504   43.608925719   39.360905345
    2.418196995   31.325308766   43.523127567   39.585970588
    2.425375626   31.591866789   43.790479413   40.128703750
    2.432554257   31.959962603   44.296932271   40.734076520
    2.439732888   32.372434782   44.930407316   41.357228954
    2.446911519   32.778643536   45.531485774   41.947928021
    2.454090150   33.087257400   45.898922790   42.341162691
    2.461268781   33.354893760   46.270892657   42.693879890
    2.468447412   33.643812063   46.851726663   43.265385016
    2.475626043   34.022354242   47.545179890   43.966798332
    2.482804674   34.522871188   48.309337793   44.657201342
    2.489983306   35.061756302   49.124043130   45.252422773
    2.497161937   35.439061153   49.752899355   45.616658202
    2.504340568   35.618370128   50.075614951   45.781549735
    2.511519199   35.936099037   50.477619416   46.035792709
    2.518697830   36.540586851   51.369114632   46.662623352
    2.525876461   37.286718638   52.548420772   47.562140353
    2.533055092   38.003283653   53.669751296   48.495444851
    2.540233723   38.671373643   54.527617584   49.279998877
