# energy grid [eV]     epsr_x  epsr_y  epsr_z
#
    0.200000000   10.613096751    9.499064689    4.923469525
    0.207178631   10.614883149    9.500930366    4.924173864
    0.214357262   10.616733268    9.502862818    4.924903344
    0.221535893   10.618647182    9.504862149    4.925657997
    0.228714524   10.620624971    9.506928468    4.926437856
    0.235893155   10.622666717    9.509061885    4.927242955
    0.243071786   10.624772504    9.511262515    4.928073330
    0.250250417   10.626942420    9.513530478    4.928929017
    0.257429048   10.629176555    9.515865896    4.929810054
    0.264607679   10.631475000    9.518268895    4.930716480
    0.271786311   10.633837852    9.520739605    4.931648335
    0.278964942   10.636265209    9.523278161    4.932605659
    0.286143573   10.638757172    9.525884701    4.933588496
    0.293322204   10.641313844    9.528559366    4.934596888
    0.300500835   10.643935332    9.531302302    4.935630881
    0.307679466   10.646621745    9.534113658    4.936690520
    0.314858097   10.649373195    9.536993588    4.937775853
    0.322036728   10.652189798    9.539942250    4.938886927
    0.329215359   10.655071671    9.542959805    4.940023792
    0.336393990   10.658018934    9.546046418    4.941186498
    0.343572621   10.661031711    9.549202259    4.942375099
    0.350751252   10.664110129    9.552427501    4.943589645
    0.357929883   10.667254316    9.555722323    4.944830193
    0.365108514   10.670464405    9.559086905    4.946096797
    0.372287145   10.673740531    9.562521434    4.947389514
    0.379465776   10.677082832    9.566026100    4.948708402
    0.386644407   10.680491448    9.569601097    4.950053521
    0.393823038   10.683966525    9.573246625    4.951424931
    0.401001669   10.687508207    9.576962884    4.952822694
    0.408180301   10.691116647    9.580750084    4.954246872
    0.415358932   10.694791995    9.584608434    4.955697531
    0.422537563   10.698534409    9.588538152    4.957174736
    0.429716194   10.702344046    9.592539457    4.958678554
    0.436894825   10.706221070    9.596612574    4.960209052
    0.444073456   10.710165646    9.600757732    4.961766302
    0.451252087   10.714177941    9.604975165    4.963350373
    0.458430718   10.718258127    9.609265112    4.964961338
    0.465609349   10.722406378    9.613627814    4.966599271
    0.472787980   10.726622872    9.618063519    4.968264246
    0.479966611   10.730907790    9.622572480    4.969956339
    0.487145242   10.735261316    9.627154953    4.971675630
    0.494323873   10.739683637    9.631811200    4.973422196
    0.501502504   10.744174943    9.636541488    4.975196117
    0.508681135   10.748735429    9.641346087    4.976997477
    0.515859766   10.753365292    9.646225274    4.978826358
    0.523038397   10.758064731    9.651179330    4.980682845
    0.530217028   10.762833951    9.656208541    4.982567025
    0.537395659   10.767673158    9.661313198    4.984478984
    0.544574290   10.772582563    9.666493597    4.986418812
    0.551752922   10.777562380    9.671750040    4.988386599
    0.558931553   10.782612826    9.677082833    4.990382438
    0.566110184   10.787734122    9.682492289    4.992406422
    0.573288815   10.792926492    9.687978723    4.994458645
    0.580467446   10.798190164    9.693542459    4.996539206
    0.587646077   10.803525369    9.699183824    4.998648202
    0.594824708   10.808932342    9.704903151    5.000785732
    0.602003339   10.814411321    9.710700780    5.002951897
    0.609181970   10.819962548    9.716577055    5.005146801
    0.616360601   10.825586270    9.722532326    5.007370549
    0.623539232   10.831282735    9.728566948    5.009623245
    0.630717863   10.837052196    9.734681284    5.011904998
    0.637896494   10.842894911    9.740875700    5.014215917
    0.645075125   10.848811140    9.747150569    5.016556113
    0.652253756   10.854801147    9.753506272    5.018925698
    0.659432387   10.860865201    9.759943193    5.021324787
    0.666611018   10.867003573    9.766461724    5.023753496
    0.673789649   10.873216540    9.773062261    5.026211942
    0.680968280   10.879504382    9.779745210    5.028700246
    0.688146912   10.885867383    9.786510980    5.031218527
    0.695325543   10.892305830    9.793359988    5.033766910
    0.702504174   10.898820015    9.800292657    5.036345518
    0.709682805   10.905410235    9.807309416    5.038954479
    0.716861436   10.912076789    9.814410701    5.041593920
    0.724040067   10.918819982    9.821596957    5.044263973
    0.731218698   10.925640123    9.828868631    5.046964768
    0.738397329   10.932537523    9.836226182    5.049696441
    0.745575960   10.939512501    9.843670073    5.052459126
    0.752754591   10.946565377    9.851200774    5.055252963
    0.759933222   10.953696477    9.858818763    5.058078089
    0.767111853   10.960906131    9.866524527    5.060934647
    0.774290484   10.968194674    9.874318556    5.063822782
    0.781469115   10.975562443    9.882201352    5.066742637
    0.788647746   10.983009784    9.890173422    5.069694361
    0.795826377   10.990537044    9.898235281    5.072678104
    0.803005008   10.998144575    9.906387452    5.075694018
    0.810183639   11.005832734    9.914630466    5.078742256
    0.817362270   11.013601885    9.922964862    5.081822974
    0.824540902   11.021452393    9.931391186    5.084936331
    0.831719533   11.029384629    9.939909995    5.088082487
    0.838898164   11.037398971    9.948521850    5.091261604
    0.846076795   11.045495800    9.957227325    5.094473847
    0.853255426   11.053675502    9.966027000    5.097719384
    0.860434057   11.061938467    9.974921463    5.100998382
    0.867612688   11.070285093    9.983911313    5.104311014
    0.874791319   11.078715780    9.992997156    5.107657454
    0.881969950   11.087230935   10.002179609    5.111037878
    0.889148581   11.095830971   10.011459296    5.114452464
    0.896327212   11.104516303   10.020836853    5.117901393
    0.903505843   11.113287354   10.030312922    5.121384849
    0.910684474   11.122144552   10.039888157    5.124903017
    0.917863105   11.131088331   10.049563222    5.128456087
    0.925041736   11.140119128   10.059338789    5.132044248
    0.932220367   11.149237388   10.069215542    5.135667695
    0.939398998   11.158443560   10.079194175    5.139326623
    0.946577629   11.167738102   10.089275391    5.143021231
    0.953756260   11.177121472   10.099459903    5.146751720
    0.960934891   11.186594140   10.109748439    5.150518295
    0.968113523   11.196156577   10.120141732    5.154321162
    0.975292154   11.205809263   10.130640530    5.158160530
    0.982470785   11.215552683   10.141245592    5.162036612
    0.989649416   11.225387327   10.151957686    5.165949624
    0.996828047   11.235313694   10.162777593    5.169899782
    1.004006678   11.245332286   10.173706107    5.173887308
    1.011185309   11.255443613   10.184744031    5.177912426
    1.018363940   11.265648192   10.195892184    5.181975362
    1.025542571   11.275946545   10.207151393    5.186076347
    1.032721202   11.286339201   10.218522502    5.190215613
    1.039899833   11.296826696   10.230006363    5.194393396
    1.047078464   11.307409572   10.241603846    5.198609936
    1.054257095   11.318088379   10.253315830    5.202865475
    1.061435726   11.328863673   10.265143209    5.207160259
    1.068614357   11.339736017   10.277086891    5.211494536
    1.075792988   11.350705981   10.289147798    5.215868558
    1.082971619   11.361774142   10.301326866    5.220282582
    1.090150250   11.372941085   10.313625044    5.224736866
    1.097328881   11.384207401   10.326043296    5.229231673
    1.104507513   11.395573689   10.338582604    5.233767269
    1.111686144   11.407040556   10.351243961    5.238343923
    1.118864775   11.418608616   10.364028376    5.242961908
    1.126043406   11.430278491   10.376936877    5.247621502
    1.133222037   11.442050811   10.389970504    5.252322985
    1.140400668   11.453926212   10.403130316    5.257066641
    1.147579299   11.465905341   10.416417386    5.261852759
    1.154757930   11.477988851   10.429832806    5.266681631
    1.161936561   11.490177403   10.443377685    5.271553552
    1.169115192   11.502471668   10.457053147    5.276468824
    1.176293823   11.514872324   10.470860338    5.281427749
    1.183472454   11.527380058   10.484800418    5.286430637
    1.190651085   11.539995565   10.498874567    5.291477799
    1.197829716   11.552719550   10.513083985    5.296569553
    1.205008347   11.565552725   10.527429889    5.301706219
    1.212186978   11.578495814   10.541913518    5.306888124
    1.219365609   11.591549546   10.556536128    5.312115596
    1.226544240   11.604714663   10.571298998    5.317388970
    1.233722871   11.617991914   10.586203426    5.322708586
    1.240901503   11.631382058   10.601250731    5.328074786
    1.248080134   11.644885865   10.616442254    5.333487920
    1.255258765   11.658504113   10.631779359    5.338948340
    1.262437396   11.672237590   10.647263430    5.344456405
    1.269616027   11.686087095   10.662895876    5.350012478
    1.276794658   11.700053436   10.678678128    5.355616927
    1.283973289   11.714137433   10.694611640    5.361270124
    1.291151920   11.728339915   10.710697893    5.366972450
    1.298330551   11.742661722   10.726938389    5.372724286
    1.305509182   11.757103704   10.743334658    5.378526024
    1.312687813   11.771666723   10.759888256    5.384378056
    1.319866444   11.786351652   10.776600762    5.390280783
    1.327045075   11.801159375   10.793473785    5.396234612
    1.334223706   11.816090787   10.810508961    5.402239954
    1.341402337   11.831146795   10.827707952    5.408297225
    1.348580968   11.846328317   10.845072452    5.414406850
    1.355759599   11.861636284   10.862604182    5.420569258
    1.362938230   11.877071639   10.880304892    5.426784885
    1.370116861   11.892635336   10.898176361    5.433054171
    1.377295492   11.908328342   10.916220388    5.439377566
    1.384474124   11.924151637   10.934438763    5.445755523
    1.391652755   11.940106211   10.952833274    5.452188504
    1.398831386   11.956193072   10.971405934    5.458676976
    1.406010017   11.972413241   10.990158882    5.465221415
    1.413188648   11.988767750   11.009094042    5.471822304
    1.420367279   12.005257644   11.028213352    5.478480130
    1.427545910   12.021883981   11.047518838    5.485195388
    1.434724541   12.038647836   11.067012582    5.491968582
    1.441903172   12.055550297   11.086696708    5.498800223
    1.449081803   12.072592465   11.106573378    5.505690828
    1.456260434   12.089775458   11.126644795    5.512640923
    1.463439065   12.107100408   11.146913203    5.519651041
    1.470617696   12.124568462   11.167380886    5.526721726
    1.477796327   12.142180783   11.188050171    5.533853525
    1.484974958   12.159938549   11.208923429    5.541046998
    1.492153589   12.177842954   11.230003072    5.548302710
    1.499332220   12.195895209   11.251291563    5.555621237
    1.506510851   12.214096540   11.272791406    5.563003162
    1.513689482   12.232448191   11.294505157    5.570449078
    1.520868114   12.250951421   11.316435418    5.577959587
    1.528046745   12.269607510   11.338584843    5.585535299
    1.535225376   12.288417751   11.360956137    5.593176836
    1.542404007   12.307383458   11.383552057    5.600884827
    1.549582638   12.326505962   11.406375413    5.608659911
    1.556761269   12.345786613   11.429429073    5.616502739
    1.563939900   12.365226778   11.452715960    5.624413971
    1.571118531   12.384827845   11.476239055    5.632394277
    1.578297162   12.404591220   11.500001399    5.640444337
    1.585475793   12.424518331   11.524006094    5.648564844
    1.592654424   12.444610622   11.548256305    5.656756499
    1.599833055   12.464869562   11.572755261    5.665020017
    1.607011686   12.485296636   11.597506258    5.673356123
    1.614190317   12.505893355   11.622512658    5.681765554
    1.621368948   12.526661247   11.647777895    5.690249058
    1.628547579   12.547601864   11.673305473    5.698807397
    1.635726210   12.568716781   11.699098970    5.707441344
    1.642904841   12.590007595   11.725162038    5.716151684
    1.650083472   12.611475923   11.751498410    5.724939218
    1.657262104   12.633123411   11.778111894    5.733804756
    1.664440735   12.654951723   11.805006383    5.742749124
    1.671619366   12.676962552   11.832185854    5.751773161
    1.678797997   12.699157614   11.859654369    5.760877721
    1.685976628   12.721538648   11.887416080    5.770063670
    1.693155259   12.744107422   11.915475229    5.779331892
    1.700333890   12.766865729   11.943836147    5.788683284
    1.707512521   12.789815386   11.972503244    5.798118757
    1.714691152   12.812958241   12.001481016    5.807639240
    1.721869783   12.836296167   12.030774151    5.817245677
    1.729048414   12.859831066   12.060387467    5.826939027
    1.736227045   12.883564868   12.090325788    5.836720263
    1.743405676   12.907499522   12.120594045    5.846590364
    1.750584307   12.931636997   12.151197307    5.856550304
    1.757762938   12.955979320   12.182140767    5.866601126
    1.764941569   12.980528590   12.213429744    5.876743963
    1.772120200   13.005286888   12.245069681    5.886979879
    1.779298831   13.030256309   12.277066154    5.897309926
    1.786477462   13.055438991   12.309424870    5.907735192
    1.793656093   13.080837113   12.342151676    5.918256800
    1.800834725   13.106452887   12.375252561    5.928875892
    1.808013356   13.132288562   12.408733663    5.939593632
    1.815191987   13.158346420   12.442601268    5.950411207
    1.822370618   13.184628782   12.476861823    5.961329824
    1.829549249   13.211138003   12.511521935    5.972350712
    1.836727880   13.237876477   12.546588377    5.983475124
    1.843906511   13.264846634   12.582068099    5.994704335
    1.851085142   13.292050946   12.617968226    6.006039645
    1.858263773   13.319491923   12.654296068    6.017482378
    1.865442404   13.347172116   12.691059128    6.029033881
    1.872621035   13.375094116   12.728265106    6.040695529
    1.879799666   13.403260559   12.765921904    6.052468724
    1.886978297   13.431674121   12.804037639    6.064354892
    1.894156928   13.460337526   12.842620644    6.076355488
    1.901335559   13.489253539   12.881679481    6.088471996
    1.908514190   13.518424974   12.921222945    6.100705927
    1.915692821   13.547854689   12.961260075    6.113058824
    1.922871452   13.577545593   13.001800162    6.125532258
    1.930050083   13.607500643   13.042852757    6.138127833
    1.937228715   13.637722845   13.084427685    6.150847185
    1.944407346   13.668215257   13.126535048    6.163691982
    1.951585977   13.698980989   13.169185243    6.176663926
    1.958764608   13.730023206   13.212388968    6.189764752
    1.965943239   13.761345124   13.256157234    6.202996234
    1.973121870   13.792950019   13.300501379    6.216360180
    1.980300501   13.824841221   13.345433073    6.229858435
    1.987479132   13.857022120   13.390964333    6.243492884
    1.994657763   13.889496165   13.437107567    6.257265450
    2.001836394   13.922266869   13.483875582    6.271178097
    2.009015025   13.955337801   13.531281545    6.285232825
    2.016193656   13.988712594   13.579339029    6.299431664
    2.023372287   14.022394943   13.628062046    6.313776679
    2.030550918   14.056388627   13.677465058    6.328270044
    2.037729549   14.090697502   13.727562998    6.342914002
    2.044908180   14.125325470   13.778371280    6.357710765
    2.052086811   14.160276507   13.829905823    6.372662591
    2.059265442   14.195554662   13.882183076    6.387771802
    2.066444073   14.231164066   13.935220041    6.403040779
    2.073622705   14.267108925   13.989034294    6.418471958
    2.080801336   14.303393523   14.043644012    6.434067829
    2.087979967   14.340022219   14.099067992    6.449830937
    2.095158598   14.376999455   14.155325689    6.465763882
    2.102337229   14.414329783   14.212437272    6.481869337
    2.109515860   14.452017845   14.270423636    6.498150034
    2.116694491   14.490068344   14.329306392    6.514608761
    2.123873122   14.528486078   14.389107945    6.531248370
    2.131051753   14.567275943   14.449851530    6.548071784
    2.138230384   14.606442935   14.511561251    6.565081994
    2.145409015   14.645992150   14.574262123    6.582282065
    2.152587646   14.685928783   14.637980114    6.599675136
    2.159766277   14.726258137   14.702742193    6.617264419
    2.166944908   14.766985621   14.768576382    6.635053207
    2.174123539   14.808116755   14.835511811    6.653044876
    2.181302170   14.849657172   14.903578771    6.671242881
    2.188480801   14.891612622   14.972808782    6.689650767
    2.195659432   14.933988975   15.043234651    6.708272167
    2.202838063   14.976792222   15.114890545    6.727110806
    2.210016694   15.020028482   15.187812064    6.746170505
    2.217195326   15.063703999   15.262036322    6.765455183
    2.224373957   15.107825159   15.337602029    6.784968859
    2.231552588   15.152398493   15.414549586    6.804715660
    2.238731219   15.197430665   15.492921176    6.824699819
    2.245909850   15.242928480   15.572760866    6.844925684
    2.253088481   15.288898897   15.654114721    6.865397716
    2.260267112   15.335349030   15.737030928    6.886120500
    2.267445743   15.382286154   15.821559913    6.907098742
    2.274624374   15.429717708   15.907754489    6.928337280
    2.281803005   15.477651301   15.995669995    6.949841083
    2.288981636   15.526094713   16.085364454    6.971615259
    2.296160267   15.575055900   16.176898722    6.993665057
    2.303338898   15.624542981   16.270336647    7.015995868
    2.310517529   15.674564281   16.365745362    7.038613243
    2.317696160   15.725128410   16.463195714    7.061522922
    2.324874791   15.776244151   16.562762110    7.084730789
    2.332053422   15.827920437   16.664522749    7.108242888
    2.339232053   15.880166429   16.768560050    7.132065447
    2.346410684   15.932991519   16.874960828    7.156204882
    2.353589316   15.986405342   16.983816952    7.180667799
    2.360767947   16.040417775   17.095225944    7.205461008
    2.367946578   16.095038955   17.209290499    7.230591529
    2.375125209   16.150279272   17.326119107    7.256066596
    2.382303840   16.206149385   17.445826828    7.281893668
    2.389482471   16.262660227   17.568535748    7.308080439
    2.396661102   16.319823002   17.694375475    7.334634846
    2.403839733   16.377649152   17.823483687    7.361565077
    2.411018364   16.436150416   17.956006733    7.388879582
    2.418196995   16.495339180   18.092100617    7.416587113
    2.425375626   16.555228150   18.231932339    7.444696705
    2.432554257   16.615830078   18.375679978    7.473217677
    2.439732888   16.677158101   18.523533248    7.502159658
    2.446911519   16.739225794   18.675695298    7.531532599
    2.454090150   16.802047144   18.832383993    7.561346741
    2.461268781   16.865636527   18.993833180    7.591612496
    2.468447412   16.930008710   19.160294186    7.622340349
    2.475626043   16.995179032   19.332037604    7.653541970
    2.482804674   17.061163467   19.509355235    7.685230527
    2.489983306   17.127978275   19.692562055    7.717418192
    2.497161937   17.195640172   19.881998729    7.750117158
    2.504340568   17.264166465   20.078034411    7.783340405
    2.511519199   17.333575061   20.281069849    7.817101547
    2.518697830   17.403884479   20.491540927    7.851414752
    2.525876461   17.475113879   20.709922676    7.886294734
    2.533055092   17.547283085   20.936733861    7.921756770
    2.540233723   17.620412631   21.172542403    7.957816737
