# energy grid [eV]     epsr_x  epsr_y  epsr_z
#
    0.200000000   11.915869035   13.649064460   11.980168401
    0.207178631   11.918545005   13.652267054   11.982728157
    0.214357262   11.921317176   13.655584953   11.985380046
    0.221535893   11.924185745   13.659018414   11.988124267
    0.228714524   11.927150915   13.662567700   11.990961029
    0.235893155   11.930212898   13.666233086   11.993890550
    0.243071786   11.933371913   13.670014858   11.996913054
    0.250250417   11.936628188   13.673913311   12.000028773
    0.257429048   11.939981956   13.677928753   12.003237951
    0.264607679   11.943433462   13.682061499   12.006540836
    0.271786311   11.946982955   13.686311878   12.009937689
    0.278964942   11.950630696   13.690680229   12.013428776
    0.286143573   11.954376952   13.695166904   12.017014376
    0.293322204   11.958222000   13.699772265   12.020694773
    0.300500835   11.962166125   13.704496686   12.024470265
    0.307679466   11.966209619   13.709340555   12.028341156
    0.314858097   11.970352787   13.714304270   12.032307763
    0.322036728   11.974595941   13.719388243   12.036370410
    0.329215359   11.978939401   13.724592900   12.040529433
    0.336393990   11.983383498   13.729918678   12.044785180
    0.343572621   11.987928573   13.735366030   12.049138008
    0.350751252   11.992574977   13.740935422   12.053588286
    0.357929883   11.997323070   13.746627335   12.058136394
    0.365108514   12.002173224   13.752442265   12.062782724
    0.372287145   12.007125820   13.758380722   12.067527682
    0.379465776   12.012181251   13.764443233   12.072371683
    0.386644407   12.017339920   13.770630341   12.077315159
    0.393823038   12.022602244   13.776942607   12.082358552
    0.401001669   12.027968649   13.783380606   12.087502319
    0.408180301   12.033439574   13.789944936   12.092746933
    0.415358932   12.039015472   13.796636209   12.098092880
    0.422537563   12.044696806   13.803455058   12.103540661
    0.429716194   12.050484055   13.810402136   12.109090793
    0.436894825   12.056377709   13.817478118   12.114743811
    0.444073456   12.062378275   13.824683698   12.120500266
    0.451252087   12.068486271   13.832019595   12.126360727
    0.458430718   12.074702234   13.839486550   12.132325780
    0.465609349   12.081026713   13.847085328   12.138396033
    0.472787980   12.087460276   13.854816720   12.144572113
    0.479966611   12.094003506   13.862681545   12.150854667
    0.487145242   12.100657003   13.870680648   12.157244365
    0.494323873   12.107421387   13.878814904   12.163741899
    0.501502504   12.114297295   13.887085219   12.170347987
    0.508681135   12.121285385   13.895492531   12.177063371
    0.515859766   12.128386335   13.904037813   12.183888820
    0.523038397   12.135600844   13.912722073   12.190825129
    0.530217028   12.142929634   13.921546356   12.197873126
    0.537395659   12.150373450   13.930511749   12.205033667
    0.544574290   12.157933063   13.939619380   12.212307643
    0.551752922   12.165609268   13.948870424   12.219695977
    0.558931553   12.173402888   13.958266101   12.227199632
    0.566110184   12.181314776   13.967807685   12.234819607
    0.573288815   12.189345815   13.977496503   12.242556945
    0.580467446   12.197496918   13.987333938   12.250412730
    0.587646077   12.205769034   13.997321439   12.258388096
    0.594824708   12.214163149   14.007460518   12.266484224
    0.602003339   12.222680285   14.017752762   12.274702352
    0.609181970   12.231321507   14.028199831   12.283043773
    0.616360601   12.240087922   14.038803470   12.291509841
    0.623539232   12.248980686   14.049565514   12.300101977
    0.630717863   12.258001002   14.060487893   12.308821674
    0.637896494   12.267150130   14.071572643   12.317670499
    0.645075125   12.276429385   14.082821915   12.326650105
    0.652253756   12.285840146   14.094237983   12.335762232
    0.659432387   12.295383859   14.105823256   12.345008718
    0.666611018   12.305062041   14.117580294   12.354391509
    0.673789649   12.314876292   14.129511817   12.363912661
    0.680968280   12.324828295   14.141620725   12.373574362
    0.688146912   12.334919828   14.153910117   12.383378932
    0.695325543   12.345152773   14.166383307   12.393328845
    0.702504174   12.355529122   14.179043853   12.403426742
    0.709682805   12.366050994   14.191895581   12.413675443
    0.716861436   12.376720645   14.204942616   12.424077973
    0.724040067   12.387540480   14.218189417   12.434637581
    0.731218698   12.398513076   14.231640821   12.445357763
    0.738397329   12.409641194   14.245302083   12.456242295
    0.745575960   12.420927809   14.259178937   12.467295261
    0.752754591   12.432376128   14.273277658   12.478521094
    0.759933222   12.443989625   14.287605131   12.489924619
    0.767111853   12.455772073   14.302168947   12.501511101
    0.774290484   12.467727586   14.316977494   12.513286308
    0.781469115   12.479860669   14.332040090   12.525256577
    0.788647746   12.492176267   14.347367117   12.537428896
    0.795826377   12.504679842   14.362970201   12.549810999
    0.803005008   12.517377447   14.378862414   12.562411482
    0.810183639   12.530275825   14.395058528   12.575239935
    0.817362270   12.543382527   14.411575323   12.588307107
    0.824540902   12.556706054   14.428431955   12.601625102
    0.831719533   12.570256033   14.445650424   12.615207616
    0.838898164   12.584043434   14.463256146   12.629070231
    0.846076795   12.598080842   14.481278674   12.643230772
    0.853255426   12.612382796   14.499752605   12.657709755
    0.860434057   12.626966224   14.518718742   12.672530943
    0.867612688   12.641850993   14.538225586   12.687722050
    0.874791319   12.657060632   14.558331272   12.703315639
    0.881969950   12.672623269   14.579106123   12.719350278
    0.889148581   12.688572878   14.600636034   12.735872038
    0.896327212   12.704950945   14.623027026   12.752936466
    0.903505843   12.721808740   14.646411448   12.770611214
    0.910684474   12.739210422   14.670956512   12.788979571
    0.917863105   12.757237367   14.696876174   12.808145272
    0.925041736   12.775994228   14.724447822   12.828239130
    0.932220367   12.795617428   14.754035715   12.849428216
    0.939398998   12.816286948   14.786123507   12.871928588
    0.946577629   12.838241819   14.821357107   12.896022576
    0.953756260   12.861797266   14.860592073   12.922080584
    0.960934891   12.887350348   14.904909213   12.950581757
    0.968113523   12.915317034   14.955440237   12.982104109
    0.975292154   12.945768762   15.012360710   13.017158483
    0.982470785   12.976851896   15.070510294   13.055361873
    0.989649416   12.998948572   15.103211378   13.092262093
    0.996828047   12.983455419   15.031168986   13.113047282
    1.004006678   12.917633005   14.819010969   13.110435125
    1.011185309   12.878050496   14.678694113   13.120215146
    1.018363940   12.885650002   14.667519327   13.127329667
    1.025542571   12.893856314   14.654645589   13.037343376
    1.032721202   12.885755781   14.593036639   12.839536994
    1.039899833   12.893194200   14.575186370   12.733429555
    1.047078464   12.920367673   14.613090101   12.744875763
    1.054257095   12.953426760   14.666369988   12.794281592
    1.061435726   12.986779864   14.718459695   12.847861244
    1.068614357   13.019485580   14.766155732   12.898063512
    1.075792988   13.051850890   14.809737458   12.944473060
    1.082971619   13.084459183   14.850100214   12.988198820
    1.090150250   13.117969374   14.888100429   13.030550153
    1.097328881   13.153111189   14.924451716   13.072800678
    1.104507513   13.190717705   14.959743693   13.116201884
    1.111686144   13.231703670   14.994470429   13.161984904
    1.118864775   13.276752065   15.029007280   13.211067727
    1.126043406   13.324786776   15.063380753   13.262519797
    1.133222037   13.366724644   15.096254256   13.307209682
    1.140400668   13.365579656   15.121659584   13.307538595
    1.147579299   13.247940414   15.127600182   13.188762148
    1.154757930   13.071719484   15.123710797   13.009962938
    1.161936561   13.010013332   15.138601325   12.947604849
    1.169115192   13.034777210   15.167713889   12.973143139
    1.176293823   13.081949931   15.200546638   13.021318731
    1.183472454   13.129734160   15.233560758   13.069941637
    1.190651085   13.173711204   15.266080381   13.114529627
    1.197829716   13.213826283   15.298149371   13.155044809
    1.205008347   13.250850514   15.329950598   13.192288516
    1.212186978   13.285557090   15.361673147   13.227062341
    1.219365609   13.318571007   15.393491329   13.260015588
    1.226544240   13.350375048   15.425570397   13.291651932
    1.233722871   13.381343849   15.458077346   13.322364677
    1.240901503   13.411775139   15.491188381   13.352468879
    1.248080134   13.441908511   15.525076850   13.382219552
    1.255258765   13.471914228   15.559819434   13.411794207
    1.262437396   13.501781547   15.594973268   13.441152267
    1.269616027   13.530855818   15.627958774   13.469461307
    1.276794658   13.556745366   15.650287169   13.493745236
    1.283973289   13.577390083   15.654644322   13.511438381
    1.291151920   13.599468604   15.663732375   13.530769664
    1.298330551   13.627177664   15.691749864   13.556900867
    1.305509182   13.657545197   15.728297215   13.586135883
    1.312687813   13.688734551   15.766868816   13.616177512
    1.319866444   13.720323186   15.805800808   13.646470184
    1.327045075   13.752330954   15.844926255   13.676997608
    1.334223706   13.784891213   15.884434490   13.707873835
    1.341402337   13.818173650   15.924591037   13.739244282
    1.348580968   13.852374839   15.965685036   13.771269012
    1.355759599   13.887727838   16.008034935   13.804127584
    1.362938230   13.924519433   16.052010959   13.838030812
    1.370116861   13.963112080   16.098063767   13.873235932
    1.377295492   14.003965236   16.146750272   13.910062115
    1.384474124   14.047631103   16.198722297   13.948893168
    1.391652755   14.094618510   16.254534703   13.990110547
    1.398831386   14.144694258   16.313693990   14.033724621
    1.406010017   14.194050636   16.370838179   14.077855531
    1.413188648   14.227642544   16.405457570   14.114606970
    1.420367279   14.226080269   16.391529454   14.133820597
    1.427545910   14.225909178   16.380284928   14.155721044
    1.434724541   14.253187472   16.415640427   14.194958654
    1.441903172   14.242492951   16.434574335   14.214107353
    1.449081803   14.129663313   16.353922613   14.154412855
    1.456260434   14.020460590   16.225344971   14.049090142
    1.463439065   14.015943745   16.196185112   14.021068959
    1.470617696   14.067744558   16.247840313   14.060994140
    1.477796327   14.130542966   16.320562112   14.119262629
    1.484974958   14.188313882   16.390704212   14.174515037
    1.492153589   14.238990618   16.454255675   14.223308657
    1.499332220   14.290468558   16.518426617   14.275393713
    1.506510851   14.344632212   16.585228912   14.332920565
    1.513689482   14.399657884   16.653302326   14.393388776
    1.520868114   14.455343931   16.722858972   14.456551775
    1.528046745   14.512404152   16.795008070   14.523522980
    1.535225376   14.571706505   16.870963419   14.595894707
    1.542404007   14.633493166   16.950890934   14.675113455
    1.549582638   14.694747175   17.029635991   14.760492424
    1.556761269   14.739704836   17.081378258   14.841392150
    1.563939900   14.722803933   17.033637719   14.874375762
    1.571118531   14.627129674   16.868076257   14.766854443
    1.578297162   14.570122090   16.776339411   14.504658835
    1.585475793   14.591628207   16.803711886   14.331446771
    1.592654424   14.641657529   16.863336093   14.311528470
    1.599833055   14.692382077   16.916593601   14.332323221
    1.607011686   14.747400209   16.978499113   14.386927201
    1.614190317   14.807068159   17.051012770   14.467580046
    1.621368948   14.867418127   17.125171572   14.552782047
    1.628547579   14.927345407   17.197848235   14.635416192
    1.635726210   14.987214682   17.269001614   14.715393273
    1.642904841   15.047759266   17.339324909   14.794374428
    1.650083472   15.109766254   17.409594085   14.874254153
    1.657262104   15.173870148   17.480509951   14.956442350
    1.664440735   15.239822511   17.552524093   15.039897915
    1.671619366   15.303558275   17.625142373   15.113416884
    1.678797997   15.348856673   17.694840481   15.133771374
    1.685976628   15.351828887   17.755492168   15.037415657
    1.693155259   15.350092145   17.812635044   14.921733185
    1.700333890   15.390794397   17.871410872   14.912703171
    1.707512521   15.447325631   17.932252984   14.963604771
    1.714691152   15.485814285   17.998068197   15.030934875
    1.721869783   15.515300136   18.070566200   15.101804478
    1.729048414   15.578280793   18.163438511   15.185352364
    1.736227045   15.667842833   18.273629282   15.277584772
    1.743405676   15.766332093   18.394285604   15.368807123
    1.750584307   15.856873560   18.515398913   15.437079607
    1.757762938   15.902980800   18.606503313   15.426181563
    1.764941569   15.883350093   18.627196711   15.323684617
    1.772120200   15.863506690   18.600201720   15.266860174
    1.779298831   15.865199345   18.552732742   15.300048371
    1.786477462   15.786934841   18.333138976   15.362173890
    1.793656093   15.639890803   18.007476897   15.408761330
    1.800834725   15.577792374   17.881659203   15.445992797
    1.808013356   15.626570018   17.947141974   15.507222839
    1.815191987   15.728018461   18.086439937   15.588847064
    1.822370618   15.839799126   18.236576578   15.676391661
    1.829549249   15.949815298   18.380802973   15.764253597
    1.836727880   16.056596228   18.515672725   15.847229657
    1.843906511   16.160025519   18.635654792   15.909986994
    1.851085142   16.260372635   18.736889576   15.939353536
    1.858263773   16.362658314   18.843304178   15.976576487
    1.865442404   16.465679333   18.969449213   16.040513082
    1.872621035   16.565209666   19.106522919   16.107569366
    1.879799666   16.675921007   19.248972942   16.189440515
    1.886978297   16.789043764   19.374084171   16.289412523
    1.894156928   16.839254379   19.402183310   16.377318821
    1.901335559   16.751706035   19.249009138   16.387042952
    1.908514190   16.593659014   19.061251877   16.266887281
    1.915692821   16.419943592   18.991776075   16.160291412
    1.922871452   16.299875234   19.033505864   16.172263060
    1.930050083   16.341008915   19.156543144   16.262482280
    1.937228715   16.470105972   19.312309681   16.380385565
    1.944407346   16.619150251   19.474587283   16.504566826
    1.951585977   16.768376821   19.637978966   16.630288554
    1.958764608   16.911541023   19.801272194   16.753946012
    1.965943239   17.031791827   19.954303779   16.857446003
    1.973121870   17.081237293   20.062594311   16.888393995
    1.980300501   17.051825127   20.109449994   16.836338547
    1.987479132   17.061474193   20.145975890   16.839543926
    1.994657763   17.108332399   20.108289593   16.910485252
    2.001836394   17.140538477   19.955467534   16.956733720
    2.009015025   17.195131672   19.826579614   16.977026518
    2.016193656   17.296723985   19.852585794   17.013395546
    2.023372287   17.403475872   19.959018342   17.052032780
    2.030550918   17.487795270   20.087462634   17.135539630
    2.037729549   17.561405479   20.227144041   17.251525638
    2.044908180   17.591753992   20.360591857   17.333419716
    2.052086811   17.519939396   20.462835013   17.329479175
    2.059265442   17.480087444   20.573428677   17.335233631
    2.066444073   17.557002542   20.708403501   17.434662028
    2.073622705   17.690642915   20.819575251   17.579001896
    2.080801336   17.836888449   20.882955834   17.718665449
    2.087979967   17.984795652   20.974219442   17.860358039
    2.095158598   18.129785558   21.111108854   17.941982332
    2.102337229   18.262969251   21.238711332   17.776121213
    2.109515860   18.388643540   21.346550471   17.417548489
    2.116694491   18.523629420   21.476289206   17.292950532
    2.123873122   18.644722468   21.606622263   17.392270264
    2.131051753   18.725029468   21.716668105   17.553880083
    2.138230384   18.737788558   21.817268342   17.702651512
    2.145409015   18.626427187   21.884209211   17.803440229
    2.152587646   18.512875103   21.941361317   17.895540501
    2.159766277   18.549654000   22.038464496   17.997334342
    2.166944908   18.701739447   22.195852909   18.125152487
    2.174123539   18.885828590   22.379285545   18.264407266
    2.181302170   19.050242048   22.535079675   18.374350824
    2.188480801   19.146011024   22.650776829   18.466451751
    2.195659432   19.149003280   22.725005233   18.549462629
    2.202838063   19.190874972   22.848582952   18.658454226
    2.210016694   19.310092320   23.042323600   18.804985206
    2.217195326   19.411184761   23.213559854   18.949361886
    2.224373957   19.464884404   23.301889255   19.062186421
    2.231552588   19.535358356   23.350450462   19.134732851
    2.238731219   19.563527228   23.291053217   19.095026092
    2.245909850   19.573559518   23.161298198   18.987962768
    2.253088481   19.662488865   23.090977865   18.921816097
    2.260267112   19.783737564   23.098754229   18.917886726
    2.267445743   19.934186478   23.260105476   19.037515157
    2.274624374   20.108789297   23.484298732   19.208472470
    2.281803005   20.261595698   23.694597635   19.373058997
    2.288981636   20.379519628   23.921785319   19.546029670
    2.296160267   20.512258454   24.182915488   19.709006755
    2.303338898   20.680120577   24.453995902   19.862925294
    2.310517529   20.858603261   24.660893907   20.048393155
    2.317696160   20.996832475   24.673075626   20.218138349
    2.324874791   21.099936274   24.594435863   20.310703499
    2.332053422   21.215315968   24.633183783   20.328006410
    2.339232053   21.340754316   24.750671927   20.363825756
    2.346410684   21.462520083   24.870664776   20.401431664
    2.353589316   21.602150075   25.033009331   20.416255571
    2.360767947   21.768035941   25.287912957   20.472022505
    2.367946578   21.975333594   25.574144106   20.654648352
    2.375125209   22.217526974   25.825609501   20.847204477
    2.382303840   22.451694262   26.028040238   20.901940484
    2.389482471   22.681079556   26.236523923   20.913335480
    2.396661102   22.902425150   26.493432372   21.019547387
    2.403839733   23.039136619   26.747983919   21.138682426
    2.411018364   23.069952472   27.002328417   21.260847716
    2.418196995   23.154480427   27.268598092   21.457284380
    2.425375626   23.310829238   27.427232363   21.634993055
    2.432554257   23.456632463   27.517994969   21.730499336
    2.439732888   23.607425374   27.767329054   21.749378012
    2.446911519   23.757257095   28.159424533   21.685122748
    2.454090150   23.978295796   28.610068809   21.741950424
    2.461268781   24.208979920   28.941641376   21.839680158
    2.468447412   24.259552423   28.955985299   21.882335347
    2.475626043   23.880522315   28.534099965   22.001443602
    2.482804674   23.254278592   27.942633893   22.211443051
    2.489983306   23.077014627   27.843995904   22.468137491
    2.497161937   23.269104759   28.009014299   22.645704237
    2.504340568   23.620543747   28.258208113   22.773782349
    2.511519199   24.056179910   28.687264098   22.836551827
    2.518697830   24.488830947   29.152506515   22.563761566
    2.525876461   24.897508013   29.586920641   22.279610337
    2.533055092   25.275725584   29.981157846   22.341852941
    2.540233723   25.591062835   30.305863531   22.599932772
