# energy grid [eV]     epsr_x  epsr_y  epsr_z
#
    0.200000000   14.691190953   13.660513309    9.605942371
    0.207178631   14.694429680   13.663486308    9.607728260
    0.214357262   14.697784322   13.666565746    9.609577951
    0.221535893   14.701255059   13.669751792    9.611491533
    0.228714524   14.704842078   13.673044621    9.613469096
    0.235893155   14.708545570   13.676444414    9.615510732
    0.243071786   14.712365736   13.679951359    9.617616539
    0.250250417   14.716302780   13.683565648    9.619786616
    0.257429048   14.720356915   13.687287480    9.622021065
    0.264607679   14.724528360   13.691117061    9.624319993
    0.271786311   14.728817340   13.695054602    9.626683508
    0.278964942   14.733224086   13.699100321    9.629111723
    0.286143573   14.737748838   13.703254443    9.631604752
    0.293322204   14.742391839   13.707517197    9.634162714
    0.300500835   14.747153343   13.711888819    9.636785731
    0.307679466   14.752033607   13.716369554    9.639473929
    0.314858097   14.757032897   13.720959650    9.642227434
    0.322036728   14.762151485   13.725659363    9.645046379
    0.329215359   14.767389650   13.730468955    9.647930897
    0.336393990   14.772747678   13.735388695    9.650881128
    0.343572621   14.778225861   13.740418859    9.653897213
    0.350751252   14.783824500   13.745559727    9.656979295
    0.357929883   14.789543900   13.750811590    9.660127524
    0.365108514   14.795384377   13.756174741    9.663342050
    0.372287145   14.801346250   13.761649483    9.666623028
    0.379465776   14.807429849   13.767236124    9.669970616
    0.386644407   14.813635508   13.772934980    9.673384977
    0.393823038   14.819963569   13.778746374    9.676866274
    0.401001669   14.826414384   13.784670634    9.680414676
    0.408180301   14.832988308   13.790708098    9.684030356
    0.415358932   14.839685707   13.796859107    9.687713488
    0.422537563   14.846506953   13.803124014    9.691464253
    0.429716194   14.853452424   13.809503174    9.695282831
    0.436894825   14.860522510   13.815996953    9.699169410
    0.444073456   14.867717603   13.822605724    9.703124179
    0.451252087   14.875038108   13.829329864    9.707147332
    0.458430718   14.882484434   13.836169761    9.711239066
    0.465609349   14.890056998   13.843125809    9.715399580
    0.472787980   14.897756229   13.850198409    9.719629081
    0.479966611   14.905582558   13.857387971    9.723927776
    0.487145242   14.913536428   13.864694912    9.728295876
    0.494323873   14.921618290   13.872119655    9.732733598
    0.501502504   14.929828600   13.879662634    9.737241162
    0.508681135   14.938167827   13.887324288    9.741818790
    0.515859766   14.946636444   13.895105065    9.746466709
    0.523038397   14.955234934   13.903005421    9.751185152
    0.530217028   14.963963789   13.911025821    9.755974354
    0.537395659   14.972823510   13.919166736    9.760834552
    0.544574290   14.981814604   13.927428647    9.765765991
    0.551752922   14.990937589   13.935812043    9.770768918
    0.558931553   15.000192991   13.944317421    9.775843584
    0.566110184   15.009581345   13.952945286    9.780990243
    0.573288815   15.019103194   13.961696153    9.786209157
    0.580467446   15.028759093   13.970570544    9.791500588
    0.587646077   15.038549602   13.979568990    9.796864805
    0.594824708   15.048475292   13.988692033    9.802302079
    0.602003339   15.058536745   13.997940221    9.807812687
    0.609181970   15.068734550   14.007314113    9.813396909
    0.616360601   15.079069307   14.016814276    9.819055032
    0.623539232   15.089541623   14.026441286    9.824787344
    0.630717863   15.100152118   14.036195730    9.830594140
    0.637896494   15.110901420   14.046078202    9.836475718
    0.645075125   15.121790168   14.056089308    9.842432380
    0.652253756   15.132819009   14.066229662    9.848464436
    0.659432387   15.143988602   14.076499888    9.854572196
    0.666611018   15.155299615   14.086900620    9.860755979
    0.673789649   15.166752727   14.097432502    9.867016105
    0.680968280   15.178348627   14.108096188    9.873352900
    0.688146912   15.190088015   14.118892343    9.879766698
    0.695325543   15.201971602   14.129821640    9.886257832
    0.702504174   15.214000108   14.140884766    9.892826645
    0.709682805   15.226174266   14.152082415    9.899473482
    0.716861436   15.238494819   14.163415293    9.906198694
    0.724040067   15.250962521   14.174884119    9.913002637
    0.731218698   15.263578138   14.186489619    9.919885672
    0.738397329   15.276342447   14.198232534    9.926848166
    0.745575960   15.289256236   14.210113613    9.933890491
    0.752754591   15.302320306   14.222133619    9.941013022
    0.759933222   15.315535469   14.234293323    9.948216142
    0.767111853   15.328902548   14.246593513    9.955500239
    0.774290484   15.342422381   14.259034984    9.962865705
    0.781469115   15.356095815   14.271618545    9.970312940
    0.788647746   15.369923712   14.284345017    9.977842346
    0.795826377   15.383906945   14.297215233    9.985454335
    0.803005008   15.398046400   14.310230039    9.993149320
    0.810183639   15.412342976   14.323390293   10.000927724
    0.817362270   15.426797587   14.336696867   10.008789974
    0.824540902   15.441411156   14.350150645   10.016736502
    0.831719533   15.456184624   14.363752523   10.024767747
    0.838898164   15.471118941   14.377503413   10.032884154
    0.846076795   15.486215076   14.391404239   10.041086174
    0.853255426   15.501474007   14.405455938   10.049374264
    0.860434057   15.516896729   14.419659463   10.057748889
    0.867612688   15.532484251   14.434015779   10.066210516
    0.874791319   15.548237596   14.448525868   10.074759624
    0.881969950   15.564157801   14.463190724   10.083396694
    0.889148581   15.580245919   14.478011358   10.092122215
    0.896327212   15.596503018   14.492988793   10.100936684
    0.903505843   15.612930180   14.508124067   10.109840603
    0.910684474   15.629528505   14.523418219   10.118834480
    0.917863105   15.646299107   14.538872274   10.127918831
    0.925041736   15.663243115   14.554487271   10.137094177
    0.932220367   15.680361676   14.570264436   10.146361053
    0.939398998   15.697655954   14.586204976   10.155719998
    0.946577629   15.715127129   14.602309968   10.165171557
    0.953756260   15.732776395   14.618580525   10.174716279
    0.960934891   15.750604967   14.635017804   10.184354724
    0.968113523   15.768614075   14.651622991   10.194087458
    0.975292154   15.786804968   14.668397290   10.203915057
    0.982470785   15.805178913   14.685341922   10.213838102
    0.989649416   15.823737192   14.702458128   10.223857184
    0.996828047   15.842481111   14.719747167   10.233972900
    1.004006678   15.861411989   14.737210317   10.244185858
    1.011185309   15.880531168   14.754848873   10.254496671
    1.018363940   15.899840006   14.772664150   10.264905962
    1.025542571   15.919339885   14.790657485   10.275414362
    1.032721202   15.939032201   14.808830232   10.286022510
    1.039899833   15.958918376   14.827183766   10.296731054
    1.047078464   15.978999848   14.845719484   10.307540652
    1.054257095   15.999278077   14.864438802   10.318451968
    1.061435726   16.019754546   14.883343158   10.329465677
    1.068614357   16.040430757   14.902434012   10.340582462
    1.075792988   16.061308235   14.921712846   10.351803018
    1.082971619   16.082388526   14.941181164   10.363128045
    1.090150250   16.103673200   14.960840493   10.374558255
    1.097328881   16.125163848   14.980692384   10.386094370
    1.104507513   16.146862086   15.000738410   10.397737121
    1.111686144   16.168769551   15.020980170   10.409487248
    1.118864775   16.190887907   15.041419284   10.421345503
    1.126043406   16.213218841   15.062057401   10.433312646
    1.133222037   16.235764063   15.082896192   10.445389450
    1.140400668   16.258525310   15.103937356   10.457576696
    1.147579299   16.281504344   15.125182616   10.469875176
    1.154757930   16.304702954   15.146633724   10.482285695
    1.161936561   16.328122953   15.168292457   10.494809066
    1.169115192   16.351766183   15.190160621   10.507446115
    1.176293823   16.375634511   15.212240050   10.520197679
    1.183472454   16.399729835   15.234532605   10.533064606
    1.190651085   16.424054077   15.257040179   10.546047755
    1.197829716   16.448609192   15.279764692   10.559148000
    1.205008347   16.473397160   15.302708096   10.572366223
    1.212186978   16.498419995   15.325872373   10.585703320
    1.219365609   16.523679737   15.349259537   10.599160199
    1.226544240   16.549178459   15.372871634   10.612737782
    1.233722871   16.574918265   15.396710741   10.626437002
    1.240901503   16.600901290   15.420778970   10.640258806
    1.248080134   16.627129703   15.445078465   10.654204153
    1.255258765   16.653605705   15.469611401   10.668274018
    1.262437396   16.680331529   15.494379987   10.682469386
    1.269616027   16.707309443   15.519386487   10.696791258
    1.276794658   16.734541747   15.544633191   10.711240645
    1.283973289   16.762030766   15.570122403   10.725818567
    1.291151920   16.789778860   15.595856458   10.740526056
    1.298330551   16.817788471   15.621837803   10.755364195
    1.305509182   16.846062080   15.648068919   10.770334079
    1.312687813   16.874602154   15.674552265   10.785436784
    1.319866444   16.903411207   15.701290346   10.800673404
    1.327045075   16.932491798   15.728285722   10.816045055
    1.334223706   16.961846527   15.755540998   10.831552867
    1.341402337   16.991478035   15.783058824   10.847197986
    1.348580968   17.021389023   15.810841901   10.862981598
    1.355759599   17.051582226   15.838892975   10.878904894
    1.362938230   17.082060412   15.867214831   10.894969070
    1.370116861   17.112826395   15.895810304   10.911175342
    1.377295492   17.143883035   15.924682278   10.927524948
    1.384474124   17.175233241   15.953833687   10.944019142
    1.391652755   17.206879967   15.983267515   10.960659197
    1.398831386   17.238826216   16.012986801   10.977446408
    1.406010017   17.271075039   16.042994632   10.994382085
    1.413188648   17.303629535   16.073294154   11.011467560
    1.420367279   17.336492857   16.103888564   11.028704182
    1.427545910   17.369668206   16.134781119   11.046093324
    1.434724541   17.403158837   16.165975132   11.063636375
    1.441903172   17.436968060   16.197473975   11.081334747
    1.449081803   17.471099237   16.229281081   11.099189874
    1.456260434   17.505555789   16.261399945   11.117203210
    1.463439065   17.540341192   16.293834125   11.135376231
    1.470617696   17.575458980   16.326587244   11.153710437
    1.477796327   17.610912747   16.359662989   11.172207348
    1.484974958   17.646706148   16.393065119   11.190868509
    1.492153589   17.682842900   16.426797459   11.209695490
    1.499332220   17.719326782   16.460863905   11.228689881
    1.506510851   17.756161639   16.495268428   11.247853300
    1.513689482   17.793351380   16.530015068   11.267187390
    1.520868114   17.830899984   16.565107935   11.286693815
    1.528046745   17.868811494   16.600551207   11.306374267
    1.535225376   17.907090030   16.636349178   11.326230468
    1.542404007   17.945739782   16.672506256   11.346264170
    1.549582638   17.984765012   16.709026874   11.366477147
    1.556761269   18.024170054   16.745915547   11.386871197
    1.563939900   18.063959313   16.783176886   11.407448144
    1.571118531   18.104137269   16.820815598   11.428209836
    1.578297162   18.144708507   16.858836483   11.449158173
    1.585475793   18.185677708   16.897244430   11.470295095
    1.592654424   18.227049600   16.936044415   11.491622525
    1.599833055   18.268828996   16.975241525   11.513142429
    1.607011686   18.311020812   17.014841007   11.534856878
    1.614190317   18.353630050   17.054848174   11.556767933
    1.621368948   18.396661799   17.095268415   11.578877651
    1.628547579   18.440121245   17.136107239   11.601188138
    1.635726210   18.484013669   17.177370280   11.623701541
    1.642904841   18.528344453   17.219063293   11.646420047
    1.650083472   18.573119077   17.261192149   11.669345878
    1.657262104   18.618343124   17.303762838   11.692481296
    1.664440735   18.664022269   17.346781470   11.715828597
    1.671619366   18.710162283   17.390254268   11.739390114
    1.678797997   18.756769092   17.434187616   11.763168220
    1.685976628   18.803848781   17.478588116   11.787165344
    1.693155259   18.851407479   17.523462452   11.811383948
    1.700333890   18.899451423   17.568817406   11.835826534
    1.707512521   18.947986994   17.614659923   11.860495649
    1.714691152   18.997020689   17.660997115   11.885393879
    1.721869783   19.046559138   17.707836260   11.910523855
    1.729048414   19.096609105   17.755184795   11.935888259
    1.736227045   19.147177488   17.803050328   11.961489818
    1.743405676   19.198271325   17.851440643   11.987331310
    1.750584307   19.249897794   17.900363700   12.013415562
    1.757762938   19.302064221   17.949827642   12.039745450
    1.764941569   19.354778079   17.999840806   12.066323905
    1.772120200   19.408046996   18.050411722   12.093153909
    1.779298831   19.461878754   18.101549122   12.120238498
    1.786477462   19.516281300   18.153261947   12.147580767
    1.793656093   19.571262746   18.205559354   12.175183863
    1.800834725   19.626831372   18.258450720   12.203050997
    1.808013356   19.682995636   18.311945652   12.231185436
    1.815191987   19.739764174   18.366053993   12.259590510
    1.822370618   19.797145806   18.420785832   12.288269612
    1.829549249   19.855149544   18.476151507   12.317226198
    1.836727880   19.913784593   18.532161620   12.346463792
    1.843906511   19.973060358   18.588827042   12.375985985
    1.851085142   20.032986451   18.646158921   12.405796437
    1.858263773   20.093572688   18.704168693   12.435898879
    1.865442404   20.154829098   18.762868092   12.466297118
    1.872621035   20.216765959   18.822269163   12.496995031
    1.879799666   20.279393802   18.882384281   12.527996577
    1.886978297   20.342723361   18.943226139   12.559305792
    1.894156928   20.406765603   19.004807774   12.590926791
    1.901335559   20.471531758   19.067142573   12.622863775
    1.908514190   20.537033317   19.130244291   12.655121030
    1.915692821   20.603282042   19.194127080   12.687702929
    1.922871452   20.670289973   19.258805500   12.720613938
    1.930050083   20.738069412   19.324294486   12.753858612
    1.937228715   20.806632960   19.390609405   12.787441604
    1.944407346   20.875993540   19.457766110   12.821367666
    1.951585977   20.946164226   19.525780862   12.855641651
    1.958764608   21.017158152   19.594670319   12.890268511
    1.965943239   21.088989289   19.664451742   12.925253303
    1.973121870   21.161672705   19.735143075   12.960601186
    1.980300501   21.235222892   19.806762581   12.996317407
    1.987479132   21.309654390   19.879328976   13.032407356
    1.994657763   21.384982629   19.952861694   13.068876621
    2.001836394   21.461223420   20.027380841   13.105730874
    2.009015025   21.538392823   20.102907181   13.142975894
    2.016193656   21.616507256   20.179462117   13.180617567
    2.023372287   21.695583765   20.257068139   13.218661936
    2.030550918   21.775639706   20.335747923   13.257115168
    2.037729549   21.856692862   20.415524768   13.295983576
    2.044908180   21.938761545   20.496422912   13.335273635
    2.052086811   22.021864572   20.578467476   13.374991969
    2.059265442   22.106021275   20.661684453   13.415145361
    2.066444073   22.191251516   20.746100739   13.455740758
    2.073622705   22.277575708   20.831744170   13.496785280
    2.080801336   22.365014828   20.918643543   13.538286213
    2.087979967   22.453590442   21.006828626   13.580251012
    2.095158598   22.543324725   21.096330292   13.622687328
    2.102337229   22.634240496   21.187180860   13.665603070
    2.109515860   22.726361205   21.279413716   13.709006325
    2.116694491   22.819710879   21.373063231   13.752905335
    2.123873122   22.914313938   21.468165012   13.797308562
    2.131051753   23.010195201   21.564755978   13.842224700
    2.138230384   23.107381619   21.662875093   13.887662702
    2.145409015   23.205901742   21.762563160   13.933631769
    2.152587646   23.305783756   21.863862019   13.980141324
    2.159766277   23.407056062   21.966815037   14.027201030
    2.166944908   23.509747872   22.071467416   14.074820803
    2.174123539   23.613889724   22.177866400   14.123010914
    2.181302170   23.719513366   22.286061326   14.171782006
    2.188480801   23.826651359   22.396103614   14.221144907
    2.195659432   23.935337179   22.508046926   14.271110725
    2.202838063   24.045605584   22.621947337   14.321690935
    2.210016694   24.157492959   22.737863489   14.372897392
    2.217195326   24.271036523   22.855856708   14.424742261
    2.224373957   24.386274489   22.975991170   14.477238079
    2.231552588   24.503246507   23.098334085   14.530397905
    2.238731219   24.621993608   23.222955867   14.584235136
    2.245909850   24.742558298   23.349930473   14.638763545
    2.253088481   24.864984706   23.479335755   14.693997458
    2.260267112   24.989318432   23.611253320   14.749951613
    2.267445743   25.115606666   23.745768899   14.806641208
    2.274624374   25.243898354   23.882972785   14.864081996
    2.281803005   25.374244272   24.022960131   14.922290332
    2.288981636   25.506697075   24.165831278   14.981283133
    2.296160267   25.641311426   24.311692151   15.041077895
    2.303338898   25.778144206   24.460654731   15.101692764
    2.310517529   25.917254467   24.612837432   15.163146534
    2.317696160   26.058703472   24.768365537   15.225458575
    2.324874791   26.202554903   24.927371765   15.288648756
    2.332053422   26.348875098   25.089997081   15.352738307
    2.339232053   26.497733207   25.256391697   15.417750190
    2.346410684   26.649200829   25.426715055   15.483706939
    2.353589316   26.803352910   25.601136714   15.550631970
    2.360767947   26.960268838   25.779837976   15.618551030
    2.367946578   27.120030471   25.963012566   15.687490276
    2.375125209   27.282722678   26.150867470   15.757476529
    2.382303840   27.448434394   26.343624254   15.828538090
    2.389482471   27.617258722   26.541520725   15.900704747
    2.396661102   27.789293031   26.744812473   15.974007750
    2.403839733   27.964639564   26.953774638   16.048479825
    2.411018364   28.143405824   27.168703907   16.124155190
    2.418196995   28.325704165   27.389921186   16.201070250
    2.425375626   28.511652504   27.617774060   16.279263972
    2.432554257   28.701374660   27.852638751   16.358777463
    2.439732888   28.895001324   28.094925427   16.439654486
    2.446911519   29.092670105   28.345081176   16.521940450
    2.454090150   29.294525590   28.603592821   16.605683673
    2.461268781   29.500720359   28.870992882   16.690935775
    2.468447412   29.711415793   29.147864623   16.777751961
    2.475626043   29.926782795   29.434849703   16.866191499
    2.482804674   30.147002335   29.732665007   16.956318275
    2.489983306   30.372266176   30.042103806   17.048200899
    2.497161937   30.602777965   30.364037883   17.141913223
    2.504340568   30.838754354   30.699440189   17.237535676
    2.511519199   31.080426618   31.049400828   17.335155797
    2.518697830   31.328041953   31.415143670   17.434868924
    2.525876461   31.581864577   31.798048058   17.536779599
    2.533055092   31.842178163   32.199675339   17.641003056
    2.540233723   32.109287369   32.621800755   17.747666884
