# energy grid [eV]     epsr_x  epsr_y  epsr_z
#
    0.200000000    2.389995161   15.835699166   15.801708645
    0.207178631    2.390196354   15.839436174   15.805395087
    0.214357262    2.390404838   15.843307364   15.809213851
    0.221535893    2.390620635   15.847312992   15.813165185
    0.228714524    2.390843766   15.851453323   15.817249343
    0.235893155    2.391074255   15.855728631   15.821466593
    0.243071786    2.391312126   15.860139200   15.825817208
    0.250250417    2.391557404   15.864685324   15.830301473
    0.257429048    2.391810115   15.869367308   15.834919682
    0.264607679    2.392070287   15.874185466   15.839672138
    0.271786311    2.392337948   15.879140120   15.844559154
    0.278964942    2.392613127   15.884231605   15.849581053
    0.286143573    2.392895854   15.889460266   15.854738168
    0.293322204    2.393186162   15.894826458   15.860030842
    0.300500835    2.393484082   15.900330546   15.865459428
    0.307679466    2.393789649   15.905972907   15.871024288
    0.314858097    2.394102897   15.911753927   15.876725798
    0.322036728    2.394423864   15.917674005   15.882564341
    0.329215359    2.394752586   15.923733551   15.888540312
    0.336393990    2.395089103   15.929932984   15.894654117
    0.343572621    2.395433456   15.936272738   15.900906174
    0.350751252    2.395785686   15.942753256   15.907296911
    0.357929883    2.396145837   15.949374995   15.913826766
    0.365108514    2.396513953   15.956138423   15.920496192
    0.372287145    2.396890081   15.963044020   15.927305651
    0.379465776    2.397274270   15.970092279   15.934255618
    0.386644407    2.397666570   15.977283706   15.941346581
    0.393823038    2.398067031   15.984618820   15.948579038
    0.401001669    2.398475708   15.992098154   15.955953502
    0.408180301    2.398892656   15.999722253   15.963470498
    0.415358932    2.399317933   16.007491677   15.971130564
    0.422537563    2.399751599   16.015407001   15.978934252
    0.429716194    2.400193714   16.023468812   15.986882126
    0.436894825    2.400644344   16.031677715   15.994974768
    0.444073456    2.401103554   16.040034329   16.003212769
    0.451252087    2.401571414   16.048539287   16.011596740
    0.458430718    2.402047995   16.057193240   16.020127302
    0.465609349    2.402533372   16.065996856   16.028805095
    0.472787980    2.403027621   16.074950819   16.037630774
    0.479966611    2.403530822   16.084055829   16.046605010
    0.487145242    2.404043059   16.093312607   16.055728490
    0.494323873    2.404564418   16.102721890   16.065001920
    0.501502504    2.405094988   16.112284435   16.074426021
    0.508681135    2.405634864   16.122001021   16.084001535
    0.515859766    2.406184143   16.131872443   16.093729221
    0.523038397    2.406742925   16.141899521   16.103609858
    0.530217028    2.407311317   16.152083095   16.113644245
    0.537395659    2.407889427   16.162424028   16.123833202
    0.544574290    2.408477372   16.172923208   16.134177571
    0.551752922    2.409075271   16.183581547   16.144678214
    0.558931553    2.409683247   16.194399981   16.155336019
    0.566110184    2.410301433   16.205379475   16.166151896
    0.573288815    2.410929964   16.216521021   16.177126781
    0.580467446    2.411568984   16.227825641   16.188261636
    0.587646077    2.412218641   16.239294387   16.199557450
    0.594824708    2.412879092   16.250928344   16.211015241
    0.602003339    2.413550502   16.262728630   16.222636056
    0.609181970    2.414233042   16.274696400   16.234420974
    0.616360601    2.414926894   16.286832845   16.246371106
    0.623539232    2.415632249   16.299139199   16.258487597
    0.630717863    2.416349305   16.311616735   16.270771631
    0.637896494    2.417078276   16.324266773   16.283224427
    0.645075125    2.417819382   16.337090680   16.295847247
    0.652253756    2.418572859   16.350089874   16.308641393
    0.659432387    2.419338955   16.363265828   16.321608216
    0.666611018    2.420117934   16.376620072   16.334749114
    0.673789649    2.420910073   16.390154200   16.348065535
    0.680968280    2.421715667   16.403869872   16.361558984
    0.688146912    2.422535032   16.417768824   16.375231024
    0.695325543    2.423368501   16.431852865   16.389083282
    0.702504174    2.424216429   16.446123895   16.403117452
    0.709682805    2.425079197   16.460583902   16.417335301
    0.716861436    2.425957211   16.475234979   16.431738678
    0.724040067    2.426850906   16.490079326   16.446329515
    0.731218698    2.427760750   16.505119267   16.461109838
    0.738397329    2.428687244   16.520357259   16.476081774
    0.745575960    2.429630929   16.535795906   16.491247564
    0.752754591    2.430592391   16.551437976   16.506609567
    0.759933222    2.431572261   16.567286419   16.522170280
    0.767111853    2.432571227   16.583344388   16.537932345
    0.774290484    2.433590036   16.599615264   16.553898571
    0.781469115    2.434629504   16.616102685   16.570071948
    0.788647746    2.435690522   16.632810577   16.586455671
    0.795826377    2.436774073   16.649743196   16.603053163
    0.803005008    2.437881234   16.666905176   16.619868107
    0.810183639    2.439013203   16.684301577   16.636904476
    0.817362270    2.440171304   16.701937958   16.654166575
    0.824540902    2.441357018   16.719820453   16.671659092
    0.831719533    2.442572001   16.737955864   16.689387148
    0.838898164    2.443818119   16.756351782   16.707356372
    0.846076795    2.445097482   16.775016724   16.725572978
    0.853255426    2.446412493   16.793960310   16.744043872
    0.860434057    2.447765903   16.813193485   16.762776772
    0.867612688    2.449160886   16.832728786   16.781780363
    0.874791319    2.450601127   16.852580697   16.801064492
    0.881969950    2.452090941   16.872766091   16.820640409
    0.889148581    2.453635424   16.893304805   16.840521082
    0.896327212    2.455240655   16.914220401   16.860721602
    0.903505843    2.456913956   16.935541164   16.881259707
    0.910684474    2.458664251   16.957301443   16.902156489
    0.917863105    2.460502546   16.979543483   16.923437335
    0.925041736    2.462442602   17.002319932   16.945133208
    0.932220367    2.464501857   17.025697330   16.967282415
    0.939398998    2.466702730   17.049760992   16.989933050
    0.946577629    2.469074435   17.074621800   17.013146380
    0.953756260    2.471655441   17.100425417   17.037001411
    0.960934891    2.474496501   17.127363644   17.061600542
    0.968113523    2.477663149   17.155683974   17.087074518
    0.975292154    2.481232466   17.185678383   17.113577967
    0.982470785    2.485262590   17.217572982   17.141239427
    0.989649416    2.489648661   17.251003890   17.169920713
    0.996828047    2.493538617   17.282888655   17.198236121
    1.004006678    2.493520416   17.300818502   17.220504659
    1.011185309    2.483254921   17.281723023   17.226137182
    1.018363940    2.468902724   17.248126459   17.225610701
    1.025542571    2.465096944   17.253469521   17.243699348
    1.032721202    2.468758963   17.286640395   17.275411968
    1.039899833    2.474559032   17.328356571   17.312027036
    1.047078464    2.480809710   17.372647382   17.351003550
    1.054257095    2.487232767   17.418636380   17.392114943
    1.061435726    2.493749145   17.465769684   17.434894182
    1.068614357    2.499617526   17.509199085   17.475052326
    1.075792988    2.501476518   17.527784032   17.494161419
    1.082971619    2.491921577   17.475275225   17.452018828
    1.090150250    2.475066253   17.377006758   17.370594373
    1.097328881    2.469269072   17.346826969   17.348726915
    1.104507513    2.473060962   17.375352127   17.378287272
    1.111686144    2.479668019   17.420194143   17.422512867
    1.118864775    2.486696108   17.466119757   17.468239266
    1.126043406    2.493709798   17.509977764   17.512818601
    1.133222037    2.500793706   17.551721363   17.556332503
    1.140400668    2.508160858   17.591922951   17.599445231
    1.147579299    2.516070750   17.631196156   17.642916699
    1.154757930    2.524826192   17.670094093   17.687531711
    1.161936561    2.534783582   17.709115471   17.734115638
    1.169115192    2.546331046   17.748709054   17.783496870
    1.176293823    2.559703682   17.789176088   17.836145553
    1.183472454    2.574127139   17.830151743   17.890484796
    1.190651085    2.584445227   17.868563707   17.936484512
    1.197829716    2.571894343   17.893700999   17.942023594
    1.205008347    2.508742375   17.893659887   17.882582590
    1.212186978    2.433113553   17.892872781   17.836995465
    1.219365609    2.407872493   17.917807265   17.855110019
    1.226544240    2.412814630   17.952889275   17.875846450
    1.233722871    2.420308502   17.978954145   17.827158732
    1.240901503    2.426074808   18.001757195   17.753722800
    1.248080134    2.435371576   18.038134053   17.754238953
    1.255258765    2.446401774   18.083212078   17.801597220
    1.262437396    2.456813182   18.128730182   17.858831948
    1.269616027    2.465360152   18.164404586   17.913750480
    1.276794658    2.470479667   18.171888974   17.962652613
    1.283973289    2.473345711   18.161706311   18.006884852
    1.291151920    2.478243260   18.178193095   18.051466384
    1.298330551    2.484959062   18.217398058   18.096620154
    1.305509182    2.492116145   18.263027180   18.141237158
    1.312687813    2.499303328   18.309345449   18.185139912
    1.319866444    2.506537725   18.355269267   18.228531661
    1.327045075    2.513954770   18.400916483   18.271683988
    1.334223706    2.521730972   18.446661964   18.314865854
    1.341402337    2.530075996   18.492927831   18.358341454
    1.348580968    2.539241796   18.540156743   18.402383248
    1.355759599    2.549526406   18.588817552   18.447281464
    1.362938230    2.561227758   18.639361571   18.493321149
    1.370116861    2.574378459   18.691929239   18.540619487
    1.377295492    2.587597943   18.745048440   18.588401342
    1.384474124    2.593908636   18.790865575   18.632342019
    1.391652755    2.573360717   18.806729733   18.659875245
    1.398831386    2.520106713   18.786094748   18.667412454
    1.406010017    2.487999236   18.790506402   18.689276663
    1.413188648    2.489628339   18.834007931   18.733046167
    1.420367279    2.497330160   18.883305321   18.779012078
    1.427545910    2.491493277   18.913023751   18.811052337
    1.434724541    2.480678832   18.937131263   18.839583495
    1.441903172    2.484835631   18.985511517   18.885889043
    1.449081803    2.498257129   19.047666450   18.942265732
    1.456260434    2.512456426   19.102025721   18.992223092
    1.463439065    2.521452239   19.113845377   19.007657393
    1.470617696    2.523279492   19.067474045   18.975809162
    1.477796327    2.529283108   19.048101463   18.966446023
    1.484974958    2.543995230   19.086651982   19.004898274
    1.492153589    2.563300258   19.147010918   19.061593984
    1.499332220    2.584547078   19.210613381   19.121254271
    1.506510851    2.603224051   19.272627677   19.179440456
    1.513689482    2.601953510   19.331167491   19.232614062
    1.520868114    2.540129693   19.383322934   19.273755326
    1.528046745    2.431048633   19.430645020   19.305608213
    1.535225376    2.377637299   19.481882470   19.346972962
    1.542404007    2.379153464   19.537305264   19.397952191
    1.549582638    2.396594158   19.594021981   19.451718827
    1.556761269    2.415065919   19.651053863   19.505739992
    1.563939900    2.431338099   19.708343866   19.559551536
    1.571118531    2.445229728   19.766073941   19.613218766
    1.578297162    2.457170642   19.824481578   19.666904778
    1.585475793    2.467624015   19.883827765   19.720771932
    1.592654424    2.476975634   19.944405117   19.774966452
    1.599833055    2.485533257   20.006558981   19.829622521
    1.607011686    2.493547644   20.070715278   19.884870376
    1.614190317    2.501233746   20.137409790   19.940844651
    1.621368948    2.508785126   20.207296320   19.997690867
    1.628547579    2.516368836   20.281037235   20.055563109
    1.635726210    2.524049375   20.358685440   20.114583558
    1.642904841    2.531436347   20.437013833   20.174646379
    1.650083472    2.536371479   20.499663638   20.234673819
    1.657262104    2.532393492   20.498150419   20.291175147
    1.664440735    2.516593715   20.410692606   20.342774420
    1.671619366    2.506561118   20.369111898   20.399954650
    1.678797997    2.508342165   20.418874576   20.466654672
    1.685976628    2.514487284   20.504350932   20.538996459
    1.693155259    2.521212118   20.596812442   20.614393887
    1.700333890    2.527526343   20.685765207   20.687976294
    1.707512521    2.533044150   20.755330516   20.740947864
    1.714691152    2.537191057   20.771211534   20.729933608
    1.721869783    2.540285843   20.746439063   20.670507662
    1.729048414    2.544023128   20.768972082   20.671970685
    1.736227045    2.548430258   20.837499754   20.732225790
    1.743405676    2.552939831   20.919229689   20.809956958
    1.750584307    2.557354931   21.001857319   20.889532234
    1.757762938    2.561652921   21.082838299   20.967576685
    1.764941569    2.565853212   21.162150109   21.043911156
    1.772120200    2.569980846   21.240254652   21.118994271
    1.779298831    2.574058593   21.317620324   21.193316458
    1.786477462    2.578106022   21.394633317   21.267282759
    1.793656093    2.582140082   21.471599403   21.341210380
    1.800834725    2.586175884   21.548762425   21.415348246
    1.808013356    2.590227412   21.626322255   21.489896646
    1.815191987    2.594308143   21.704449221   21.565022904
    1.822370618    2.598431602   21.783295429   21.640873379
    1.829549249    2.602611915   21.863004015   21.717582869
    1.836727880    2.606864396   21.943717381   21.795282493
    1.843906511    2.611206242   22.025585364   21.874106967
    1.851085142    2.615657381   22.108774156   21.954202080
    1.858263773    2.620241534   22.193476568   22.035732999
    1.865442404    2.624987475   22.279922921   22.118893541
    1.872621035    2.629930128   22.368386752   22.203914296
    1.879799666    2.635109727   22.459159131   22.291058580
    1.886978297    2.640561600   22.552384578   22.380559190
    1.894156928    2.646266793   22.647333660   22.472306873
    1.901335559    2.651961270   22.739659033   22.564640766
    1.908514190    2.656723675   22.815499846   22.651728949
    1.915692821    2.659982562   22.865736018   22.729934339
    1.922871452    2.664522549   22.928683410   22.816778467
    1.930050083    2.671724996   23.022932622   22.920293201
    1.937228715    2.680363397   23.132122228   23.029619713
    1.944407346    2.689086478   23.246958735   23.124807952
    1.951585977    2.695720786   23.364335379   23.165136976
    1.958764608    2.700439995   23.483467589   23.155865787
    1.965943239    2.707466829   23.601404667   23.199271573
    1.973121870    2.710771333   23.691488538   23.295408170
    1.980300501    2.692387947   23.693366480   23.384723712
    1.987479132    2.650981802   23.632582486   23.440352852
    1.994657763    2.625578619   23.653122014   23.508848930
    2.001836394    2.626456334   23.756559846   23.616770349
    2.009015025    2.637297207   23.887361162   23.742385633
    2.016193656    2.649625945   24.022670198   23.872625795
    2.023372287    2.661354411   24.157508175   24.004659864
    2.030550918    2.672270787   24.291801549   24.138848287
    2.037729549    2.682576416   24.426546447   24.276377263
    2.044908180    2.692527573   24.562911769   24.418735446
    2.052086811    2.702363865   24.702093408   24.567681402
    2.059265442    2.712305463   24.845342634   24.725310669
    2.066444073    2.722562555   24.993981126   24.893993769
    2.073622705    2.733333032   25.149172649   25.075587319
    2.080801336    2.744740532   25.310649773   25.267595695
    2.087979967    2.756540566   25.471388092   25.447534281
    2.095158598    2.767185988   25.601132533   25.524898741
    2.102337229    2.773700672   25.644587535   25.336285812
    2.109515860    2.779484940   25.660869545   25.053904513
    2.116694491    2.790860002   25.772178225   25.045398091
    2.123873122    2.802404951   25.920393985   25.196973530
    2.131051753    2.808036864   25.981238556   25.298051865
    2.138230384    2.812640431   25.904469790   25.269453392
    2.145409015    2.819579584   25.885145937   25.296784058
    2.152587646    2.825049018   25.998634338   25.450065626
    2.159766277    2.821763234   26.175983674   25.638195186
    2.166944908    2.771195533   26.365172649   25.785721154
    2.174123539    2.673399847   26.533226016   25.881461836
    2.181302170    2.616405050   26.688758188   26.007095461
    2.188480801    2.615588947   26.865679773   26.183525259
    2.195659432    2.636184900   27.059508130   26.379447889
    2.202838063    2.659692026   27.258309610   26.577732399
    2.210016694    2.681340357   27.456639731   26.771959039
    2.217195326    2.700588079   27.652724530   26.960044719
    2.224373957    2.717984769   27.853383234   27.151052772
    2.231552588    2.734023313   28.059626898   27.345933502
    2.238731219    2.748785878   28.259466464   27.527678348
    2.245909850    2.762650723   28.453142571   27.696180386
    2.253088481    2.776774852   28.668054468   27.888635211
    2.260267112    2.791398055   28.904753342   28.100731781
    2.267445743    2.805830580   29.141230966   28.287355703
    2.274624374    2.818023457   29.346738662   28.397880864
    2.281803005    2.825143507   29.508688484   28.464486692
    2.288981636    2.831478846   29.681166996   28.578664648
    2.296160267    2.840424962   29.887300630   28.756421242
    2.303338898    2.847847206   30.071607495   28.939369379
    2.310517529    2.857025757   30.258377124   29.135544729
    2.317696160    2.872220555   30.506086828   29.358209079
    2.324874791    2.893388158   30.828081201   29.599362030
    2.332053422    2.917827801   31.195853097   29.865333615
    2.339232053    2.941929445   31.581502822   30.152847352
    2.346410684    2.955201991   31.925413498   30.439947031
    2.353589316    2.937415746   32.096466846   30.686657348
    2.360767947    2.898632667   32.065334369   30.858475425
    2.367946578    2.877279984   31.990747700   30.986011044
    2.375125209    2.880628931   31.852828575   31.158280290
    2.382303840    2.895845754   31.895960259   31.416107679
    2.389482471    2.895619180   32.229883973   31.663757369
    2.396661102    2.877829831   32.681372132   31.873091541
    2.403839733    2.871067277   33.168416904   32.121568160
    2.411018364    2.882627328   33.663123533   32.431262535
    2.418196995    2.901896110   34.101662520   32.776631980
    2.425375626    2.905641812   34.389043169   33.094471734
    2.432554257    2.898552925   34.698574936   33.430565926
    2.439732888    2.905577457   35.227340895   33.857919867
    2.446911519    2.935782432   35.913169199   34.360516359
    2.454090150    2.973809144   36.629309736   34.889232530
    2.461268781    2.994688681   37.115480234   35.337271614
    2.468447412    2.970839273   36.822515570   35.500844253
    2.475626043    2.926777277   35.854428096   35.467169571
    2.482804674    2.897995212   35.369028217   35.653343972
    2.489983306    2.860445278   35.108490177   35.887365901
    2.497161937    2.832012334   34.974163870   35.932315249
    2.504340568    2.840405375   35.324186538   35.646593780
    2.511519199    2.869885672   35.972799666   35.401668383
    2.518697830    2.908699558   36.751750705   35.438051209
    2.525876461    2.945736092   37.534959059   35.418420292
    2.533055092    2.978381598   38.356636232   35.695242626
    2.540233723    2.994691336   39.179048116   36.291820597
