# energy grid [eV]     ieps_x  ieps_y  ieps_z
#
    0.200000000    1.653164559    6.574561483    6.930463113
    0.207178631    1.653007452    6.573388516    6.929043759
    0.214357262    1.652844885    6.572174730    6.927575148
    0.221535893    1.652676866    6.570920180    6.926057359
    0.228714524    1.652503404    6.569624924    6.924490478
    0.235893155    1.652324507    6.568289021    6.922874590
    0.243071786    1.652140185    6.566912533    6.921209785
    0.250250417    1.651950447    6.565495522    6.919496155
    0.257429048    1.651755302    6.564038054    6.917733793
    0.264607679    1.651554761    6.562540195    6.915922797
    0.271786311    1.651348833    6.561002012    6.914063266
    0.278964942    1.651137529    6.559423577    6.912155303
    0.286143573    1.650920859    6.557804962    6.910199011
    0.293322204    1.650698834    6.556146239    6.908194498
    0.300500835    1.650471465    6.554447485    6.906141873
    0.307679466    1.650238764    6.552708777    6.904041248
    0.314858097    1.650000743    6.550930192    6.901892738
    0.322036728    1.649757412    6.549111813    6.899696459
    0.329215359    1.649508785    6.547253722    6.897452532
    0.336393990    1.649254874    6.545356001    6.895161077
    0.343572621    1.648995691    6.543418738    6.892822219
    0.350751252    1.648731249    6.541442020    6.890436084
    0.357929883    1.648461562    6.539425935    6.888002802
    0.365108514    1.648186642    6.537370575    6.885522504
    0.372287145    1.647906504    6.535276032    6.882995322
    0.379465776    1.647621160    6.533142400    6.880421394
    0.386644407    1.647330627    6.530969774    6.877800856
    0.393823038    1.647034917    6.528758252    6.875133850
    0.401001669    1.646734045    6.526507933    6.872420518
    0.408180301    1.646428026    6.524218918    6.869661005
    0.415358932    1.646116875    6.521891308    6.866855459
    0.422537563    1.645800607    6.519525207    6.864004027
    0.429716194    1.645479238    6.517120721    6.861106863
    0.436894825    1.645152784    6.514677956    6.858164118
    0.444073456    1.644821260    6.512197021    6.855175950
    0.451252087    1.644484682    6.509678025    6.852142515
    0.458430718    1.644143068    6.507121080    6.849063974
    0.465609349    1.643796433    6.504526299    6.845940488
    0.472787980    1.643444795    6.501893797    6.842772222
    0.479966611    1.643088169    6.499223688    6.839559340
    0.487145242    1.642726575    6.496516090    6.836302012
    0.494323873    1.642360029    6.493771123    6.833000407
    0.501502504    1.641988548    6.490988906    6.829654697
    0.508681135    1.641612152    6.488169562    6.826265055
    0.515859766    1.641230857    6.485313212    6.822831657
    0.523038397    1.640844681    6.482419982    6.819354681
    0.530217028    1.640453645    6.479489997    6.815834306
    0.537395659    1.640057765    6.476523386    6.812270713
    0.544574290    1.639657062    6.473520275    6.808664084
    0.551752922    1.639251554    6.470480795    6.805014606
    0.558931553    1.638841260    6.467405078    6.801322463
    0.566110184    1.638426200    6.464293256    6.797587845
    0.573288815    1.638006393    6.461145462    6.793810940
    0.580467446    1.637581859    6.457961833    6.789991941
    0.587646077    1.637152619    6.454742504    6.786131041
    0.594824708    1.636718692    6.451487613    6.782228434
    0.602003339    1.636280099    6.448197299    6.778284318
    0.609181970    1.635836860    6.444871702    6.774298889
    0.616360601    1.635388997    6.441510964    6.770272347
    0.623539232    1.634936529    6.438115227    6.766204894
    0.630717863    1.634479478    6.434684634    6.762096732
    0.637896494    1.634017865    6.431219332    6.757948064
    0.645075125    1.633551712    6.427719465    6.753759097
    0.652253756    1.633081040    6.424185181    6.749530037
    0.659432387    1.632605870    6.420616629    6.745261092
    0.666611018    1.632126225    6.417013958    6.740952472
    0.673789649    1.631642127    6.413377318    6.736604388
    0.680968280    1.631153598    6.409706861    6.732217052
    0.688146912    1.630660659    6.406002739    6.727790677
    0.695325543    1.630163334    6.402265107    6.723325479
    0.702504174    1.629661646    6.398494119    6.718821674
    0.709682805    1.629155616    6.394689931    6.714279478
    0.716861436    1.628645268    6.390852700    6.709699110
    0.724040067    1.628130625    6.386982583    6.705080790
    0.731218698    1.627611710    6.383079739    6.700424739
    0.738397329    1.627088546    6.379144328    6.695731177
    0.745575960    1.626561156    6.375176510    6.691000329
    0.752754591    1.626029565    6.371176447    6.686232418
    0.759933222    1.625493796    6.367144302    6.681427669
    0.767111853    1.624953872    6.363080237    6.676586308
    0.774290484    1.624409818    6.358984417    6.671708561
    0.781469115    1.623861658    6.354857007    6.666794658
    0.788647746    1.623309416    6.350698173    6.661844827
    0.795826377    1.622753115    6.346508082    6.656859296
    0.803005008    1.622192781    6.342286900    6.651838298
    0.810183639    1.621628438    6.338034797    6.646782063
    0.817362270    1.621060110    6.333751941    6.641690825
    0.824540902    1.620487823    6.329438502    6.636564814
    0.831719533    1.619911600    6.325094651    6.631404267
    0.838898164    1.619331468    6.320720560    6.626209417
    0.846076795    1.618747450    6.316316399    6.620980499
    0.853255426    1.618159572    6.311882343    6.615717750
    0.860434057    1.617567860    6.307418564    6.610421405
    0.867612688    1.616972337    6.302925237    6.605091704
    0.874791319    1.616373031    6.298402536    6.599728883
    0.881969950    1.615769965    6.293850636    6.594333180
    0.889148581    1.615163166    6.289269714    6.588904836
    0.896327212    1.614552660    6.284659946    6.583444089
    0.903505843    1.613938471    6.280021510    6.577951180
    0.910684474    1.613320626    6.275354582    6.572426350
    0.917863105    1.612699150    6.270659342    6.566869839
    0.925041736    1.612074070    6.265935969    6.561281889
    0.932220367    1.611445411    6.261184640    6.555662743
    0.939398998    1.610813199    6.256405538    6.550012642
    0.946577629    1.610177461    6.251598841    6.544331829
    0.953756260    1.609538222    6.246764730    6.538620548
    0.960934891    1.608895509    6.241903388    6.532879041
    0.968113523    1.608249347    6.237014995    6.527107554
    0.975292154    1.607599764    6.232099735    6.521306329
    0.982470785    1.606946785    6.227157788    6.515475611
    0.989649416    1.606290438    6.222189339    6.509615645
    0.996828047    1.605630747    6.217194571    6.503726675
    1.004006678    1.604967741    6.212173668    6.497808946
    1.011185309    1.604301445    6.207126813    6.491862704
    1.018363940    1.603631886    6.202054191    6.485888193
    1.025542571    1.602959090    6.196955987    6.479885659
    1.032721202    1.602283085    6.191832386    6.473855348
    1.039899833    1.601603896    6.186683573    6.467797506
    1.047078464    1.600921551    6.181509734    6.461712377
    1.054257095    1.600236076    6.176311055    6.455600207
    1.061435726    1.599547498    6.171087721    6.449461243
    1.068614357    1.598855843    6.165839920    6.443295729
    1.075792988    1.598161140    6.160567838    6.437103912
    1.082971619    1.597463413    6.155271662    6.430886038
    1.090150250    1.596762691    6.149951578    6.424642351
    1.097328881    1.596058999    6.144607774    6.418373097
    1.104507513    1.595352366    6.139240438    6.412078522
    1.111686144    1.594642817    6.133849756    6.405758871
    1.118864775    1.593930379    6.128435917    6.399414389
    1.126043406    1.593215080    6.122999107    6.393045321
    1.133222037    1.592496946    6.117539516    6.386651912
    1.140400668    1.591776004    6.112057330    6.380234405
    1.147579299    1.591052281    6.106552738    6.373793047
    1.154757930    1.590325804    6.101025929    6.367328080
    1.161936561    1.589596600    6.095477089    6.360839749
    1.169115192    1.588864695    6.089906408    6.354328297
    1.176293823    1.588130117    6.084314073    6.347793967
    1.183472454    1.587392891    6.078700273    6.341237003
    1.190651085    1.586653046    6.073065196    6.334657647
    1.197829716    1.585910608    6.067409030    6.328056142
    1.205008347    1.585165603    6.061731963    6.321432728
    1.212186978    1.584418059    6.056034183    6.314787649
    1.219365609    1.583668001    6.050315879    6.308121144
    1.226544240    1.582915458    6.044577239    6.301433456
    1.233722871    1.582160455    6.038818450    6.294724823
    1.240901503    1.581403019    6.033039700    6.287995486
    1.248080134    1.580643177    6.027241177    6.281245685
    1.255258765    1.579880956    6.021423069    6.274475658
    1.262437396    1.579116382    6.015585563    6.267685644
    1.269616027    1.578349481    6.009728846    6.260875880
    1.276794658    1.577580280    6.003853106    6.254046604
    1.283973289    1.576808806    5.997958530    6.247198054
    1.291151920    1.576035085    5.992045304    6.240330464
    1.298330551    1.575259144    5.986113616    6.233444072
    1.305509182    1.574481008    5.980163651    6.226539112
    1.312687813    1.573700704    5.974195596    6.219615818
    1.319866444    1.572918258    5.968209637    6.212674426
    1.327045075    1.572133697    5.962205960    6.205715167
    1.334223706    1.571347047    5.956184751    6.198738275
    1.341402337    1.570558333    5.950146194    6.191743983
    1.348580968    1.569767583    5.944090475    6.184732520
    1.355759599    1.568974821    5.938017778    6.177704118
    1.362938230    1.568180074    5.931928288    6.170659008
    1.370116861    1.567383368    5.925822190    6.163597418
    1.377295492    1.566584728    5.919699667    6.156519577
    1.384474124    1.565784180    5.913560903    6.149425713
    1.391652755    1.564981751    5.907406080    6.142316053
    1.398831386    1.564177465    5.901235382    6.135190824
    1.406010017    1.563371349    5.895048992    6.128050251
    1.413188648    1.562563428    5.888847091    6.120894559
    1.420367279    1.561753726    5.882629862    6.113723972
    1.427545910    1.560942271    5.876397485    6.106538714
    1.434724541    1.560129086    5.870150143    6.099339008
    1.441903172    1.559314197    5.863888015    6.092125074
    1.449081803    1.558497630    5.857611282    6.084897134
    1.456260434    1.557679410    5.851320124    6.077655409
    1.463439065    1.556859560    5.845014720    6.070400116
    1.470617696    1.556038108    5.838695249    6.063131475
    1.477796327    1.555215076    5.832361890    6.055849704
    1.484974958    1.554390491    5.826014821    6.048555018
    1.492153589    1.553564376    5.819654219    6.041247634
    1.499332220    1.552736757    5.813280263    6.033927766
    1.506510851    1.551907658    5.806893127    6.026595630
    1.513689482    1.551077104    5.800492990    6.019251437
    1.520868114    1.550245118    5.794080026    6.011895400
    1.528046745    1.549411725    5.787654410    6.004527730
    1.535225376    1.548576950    5.781216318    5.997148638
    1.542404007    1.547740816    5.774765924    5.989758334
    1.549582638    1.546903348    5.768303401    5.982357025
    1.556761269    1.546064569    5.761828923    5.974944919
    1.563939900    1.545224503    5.755342662    5.967522224
    1.571118531    1.544383174    5.748844791    5.960089144
    1.578297162    1.543540606    5.742335480    5.952645885
    1.585475793    1.542696822    5.735814902    5.945192649
    1.592654424    1.541851846    5.729283226    5.937729641
    1.599833055    1.541005701    5.722740622    5.930257061
    1.607011686    1.540158411    5.716187260    5.922775110
    1.614190317    1.539309998    5.709623308    5.915283989
    1.621368948    1.538460486    5.703048934    5.907783896
    1.628547579    1.537609897    5.696464307    5.900275029
    1.635726210    1.536758255    5.689869592    5.892757584
    1.642904841    1.535905582    5.683264957    5.885231758
    1.650083472    1.535051901    5.676650566    5.877697745
    1.657262104    1.534197235    5.670026586    5.870155739
    1.664440735    1.533341606    5.663393180    5.862605932
    1.671619366    1.532485036    5.656750513    5.855048517
    1.678797997    1.531627548    5.650098747    5.847483684
    1.685976628    1.530769164    5.643438045    5.839911622
    1.693155259    1.529909906    5.636768569    5.832332521
    1.700333890    1.529049796    5.630090481    5.824746567
    1.707512521    1.528188856    5.623403940    5.817153947
    1.714691152    1.527327107    5.616709107    5.809554846
    1.721869783    1.526464571    5.610006142    5.801949450
    1.729048414    1.525601269    5.603295202    5.794337940
    1.736227045    1.524737224    5.596576446    5.786720500
    1.743405676    1.523872456    5.589850030    5.779097310
    1.750584307    1.523006987    5.583116113    5.771468551
    1.757762938    1.522140837    5.576374848    5.763834401
    1.764941569    1.521274028    5.569626392    5.756195039
    1.772120200    1.520406580    5.562870900    5.748550641
    1.779298831    1.519538515    5.556108524    5.740901384
    1.786477462    1.518669852    5.549339418    5.733247441
    1.793656093    1.517800612    5.542563734    5.725588987
    1.800834725    1.516930817    5.535781625    5.717926195
    1.808013356    1.516060485    5.528993240    5.710259234
    1.815191987    1.515189637    5.522198730    5.702588277
    1.822370618    1.514318294    5.515398246    5.694913492
    1.829549249    1.513446475    5.508591934    5.687235047
    1.836727880    1.512574200    5.501779944    5.679553110
    1.843906511    1.511701488    5.494962423    5.671867847
    1.851085142    1.510828360    5.488139518    5.664179423
    1.858263773    1.509954835    5.481311374    5.656488000
    1.865442404    1.509080931    5.474478136    5.648793743
    1.872621035    1.508206669    5.467639949    5.641096813
    1.879799666    1.507332068    5.460796956    5.633397371
    1.886978297    1.506457146    5.453949301    5.625695575
    1.894156928    1.505581922    5.447097125    5.617991585
    1.901335559    1.504706416    5.440240570    5.610285558
    1.908514190    1.503830645    5.433379777    5.602577650
    1.915692821    1.502954629    5.426514884    5.594868015
    1.922871452    1.502078385    5.419646032    5.587156809
    1.930050083    1.501201933    5.412773359    5.579444184
    1.937228715    1.500325289    5.405897002    5.571730292
    1.944407346    1.499448473    5.399017098    5.564015284
    1.951585977    1.498571502    5.392133783    5.556299309
    1.958764608    1.497694394    5.385247193    5.548582516
    1.965943239    1.496817167    5.378357462    5.540865053
    1.973121870    1.495939837    5.371464723    5.533147065
    1.980300501    1.495062424    5.364569110    5.525428699
    1.987479132    1.494184944    5.357670755    5.517710099
    1.994657763    1.493307414    5.350769790    5.509991408
    2.001836394    1.492429851    5.343866344    5.502272767
    2.009015025    1.491552272    5.336960548    5.494554319
    2.016193656    1.490674695    5.330052530    5.486836202
    2.023372287    1.489797136    5.323142420    5.479118557
    2.030550918    1.488919611    5.316230345    5.471401520
    2.037729549    1.488042137    5.309316431    5.463685228
    2.044908180    1.487164730    5.302400805    5.455969818
    2.052086811    1.486287407    5.295483591    5.448255423
    2.059265442    1.485410184    5.288564915    5.440542177
    2.066444073    1.484533077    5.281644899    5.432830214
    2.073622705    1.483656101    5.274723666    5.425119663
    2.080801336    1.482779273    5.267801340    5.417410657
    2.087979967    1.481902607    5.260878040    5.409703323
    2.095158598    1.481026121    5.253953887    5.401997790
    2.102337229    1.480149828    5.247029001    5.394294186
    2.109515860    1.479273745    5.240103502    5.386592636
    2.116694491    1.478397886    5.233177506    5.378893266
    2.123873122    1.477522267    5.226251132    5.371196200
    2.131051753    1.476646902    5.219324496    5.363501560
    2.138230384    1.475771806    5.212397714    5.355809470
    2.145409015    1.474896995    5.205470901    5.348120050
    2.152587646    1.474022482    5.198544170    5.340433419
    2.159766277    1.473148282    5.191617637    5.332749697
    2.166944908    1.472274409    5.184691412    5.325069002
    2.174123539    1.471400878    5.177765609    5.317391450
    2.181302170    1.470527703    5.170840338    5.309717158
    2.188480801    1.469654897    5.163915709    5.302046240
    2.195659432    1.468782475    5.156991832    5.294378810
    2.202838063    1.467910451    5.150068816    5.286714982
    2.210016694    1.467038837    5.143146769    5.279054866
    2.217195326    1.466167648    5.136225798    5.271398573
    2.224373957    1.465296897    5.129306010    5.263746215
    2.231552588    1.464426596    5.122387509    5.256097898
    2.238731219    1.463556761    5.115470402    5.248453732
    2.245909850    1.462687402    5.108554792    5.240813823
    2.253088481    1.461818535    5.101640782    5.233178278
    2.260267112    1.460950170    5.094728475    5.225547200
    2.267445743    1.460082321    5.087817973    5.217920693
    2.274624374    1.459215001    5.080909377    5.210298862
    2.281803005    1.458348221    5.074002788    5.202681808
    2.288981636    1.457481996    5.067098304    5.195069631
    2.296160267    1.456616335    5.060196024    5.187462433
    2.303338898    1.455751253    5.053296047    5.179860312
    2.310517529    1.454886760    5.046398469    5.172263366
    2.317696160    1.454022870    5.039503388    5.164671692
    2.324874791    1.453159592    5.032610898    5.157085388
    2.332053422    1.452296940    5.025721096    5.149504547
    2.339232053    1.451434925    5.018834074    5.141929265
    2.346410684    1.450573558    5.011949927    5.134359636
    2.353589316    1.449712851    5.005068747    5.126795751
    2.360767947    1.448852815    4.998190626    5.119237702
    2.367946578    1.447993461    4.991315655    5.111685580
    2.375125209    1.447134801    4.984443925    5.104139475
    2.382303840    1.446276844    4.977575526    5.096599476
    2.389482471    1.445419602    4.970710546    5.089065671
    2.396661102    1.444563086    4.963849073    5.081538147
    2.403839733    1.443707307    4.956991196    5.074016989
    2.411018364    1.442852273    4.950137001    5.066502284
    2.418196995    1.441997998    4.943286574    5.058994116
    2.425375626    1.441144489    4.936440001    5.051492568
    2.432554257    1.440291758    4.929597365    5.043997724
    2.439732888    1.439439815    4.922758751    5.036509663
    2.446911519    1.438588670    4.915924242    5.029028469
    2.454090150    1.437738332    4.909093920    5.021554221
    2.461268781    1.436888812    4.902267868    5.014086997
    2.468447412    1.436040118    4.895446165    5.006626877
    2.475626043    1.435192261    4.888628892    4.999173937
    2.482804674    1.434345250    4.881816130    4.991728255
    2.489983306    1.433499095    4.875007956    4.984289906
    2.497161937    1.432653804    4.868204448    4.976858965
    2.504340568    1.431809387    4.861405685    4.969435507
    2.511519199    1.430965852    4.854611743    4.962019604
    2.518697830    1.430123210    4.847822698    4.954611329
    2.525876461    1.429281468    4.841038625    4.947210754
    2.533055092    1.428440635    4.834259600    4.939817950
    2.540233723    1.427600720    4.827485695    4.932432986
