# energy grid [eV]     epsr_x  epsr_y  epsr_z
#
    0.200000000   14.915725147   14.911311952   15.426286075
    0.207178631   14.919235353   14.914820785   15.429896782
    0.214357262   14.922871356   14.918455366   15.433636883
    0.221535893   14.926633367   14.922215905   15.437506596
    0.228714524   14.930521607   14.926102624   15.441506146
    0.235893155   14.934536304   14.930115750   15.445635768
    0.243071786   14.938677693   14.934255519   15.449895704
    0.250250417   14.942946016   14.938522172   15.454286202
    0.257429048   14.947341526   14.942915961   15.458807520
    0.264607679   14.951864480   14.947437144   15.463459924
    0.271786311   14.956515144   14.952085988   15.468243686
    0.278964942   14.961293794   14.956862766   15.473159089
    0.286143573   14.966200710   14.961767760   15.478206422
    0.293322204   14.971236183   14.966801261   15.483385982
    0.300500835   14.976400511   14.971963565   15.488698076
    0.307679466   14.981694000   14.977254980   15.494143017
    0.314858097   14.987116964   14.982675818   15.499721129
    0.322036728   14.992669725   14.988226403   15.505432742
    0.329215359   14.998352615   14.993907064   15.511278195
    0.336393990   15.004165970   14.999718139   15.517257835
    0.343572621   15.010110139   15.005659977   15.523372020
    0.350751252   15.016185477   15.011732931   15.529621114
    0.357929883   15.022392347   15.017937365   15.536005490
    0.365108514   15.028731121   15.024273652   15.542525530
    0.372287145   15.035202181   15.030742172   15.549181625
    0.379465776   15.041805916   15.037343314   15.555974176
    0.386644407   15.048542724   15.044077475   15.562903590
    0.393823038   15.055413011   15.050945063   15.569970284
    0.401001669   15.062417193   15.057946493   15.577174687
    0.408180301   15.069555694   15.065082189   15.584517233
    0.415358932   15.076828948   15.072352583   15.591998367
    0.422537563   15.084237397   15.079758119   15.599618543
    0.429716194   15.091781492   15.087299247   15.607378224
    0.436894825   15.099461694   15.094976427   15.615277885
    0.444073456   15.107278473   15.102790130   15.623318006
    0.451252087   15.115232307   15.110740834   15.631499079
    0.458430718   15.123323686   15.118829026   15.639821607
    0.465609349   15.131553107   15.127055206   15.648286100
    0.472787980   15.139921077   15.135419880   15.656893079
    0.479966611   15.148428115   15.143923566   15.665643076
    0.487145242   15.157074747   15.152566789   15.674536632
    0.494323873   15.165861509   15.161350087   15.683574297
    0.501502504   15.174788949   15.170274005   15.692756632
    0.508681135   15.183857622   15.179339101   15.702084211
    0.515859766   15.193068097   15.188545941   15.711557613
    0.523038397   15.202420950   15.197895101   15.721177433
    0.530217028   15.211916768   15.207387169   15.730944272
    0.537395659   15.221556149   15.217022742   15.740858745
    0.544574290   15.231339701   15.226802429   15.750921476
    0.551752922   15.241268044   15.236726847   15.761133101
    0.558931553   15.251341808   15.246796627   15.771494266
    0.566110184   15.261561632   15.257012408   15.782005630
    0.573288815   15.271928168   15.267374842   15.792667860
    0.580467446   15.282442079   15.277884591   15.803481638
    0.587646077   15.293104039   15.288542329   15.814447655
    0.594824708   15.303914733   15.299348741   15.825566616
    0.602003339   15.314874858   15.310304522   15.836839234
    0.609181970   15.325985121   15.321410381   15.848266238
    0.616360601   15.337246244   15.332667038   15.859848367
    0.623539232   15.348658957   15.344075223   15.871586371
    0.630717863   15.360224005   15.355635681   15.883481016
    0.637896494   15.371942144   15.367349167   15.895533077
    0.645075125   15.383814141   15.379216449   15.907743344
    0.652253756   15.395840778   15.391238306   15.920112617
    0.659432387   15.408022848   15.403415533   15.932641711
    0.666611018   15.420361156   15.415748935   15.945331454
    0.673789649   15.432856522   15.428239329   15.958182687
    0.680968280   15.445509777   15.440887547   15.971196264
    0.688146912   15.458321766   15.453694435   15.984373052
    0.695325543   15.471293348   15.466660849   15.997713934
    0.702504174   15.484425395   15.479787662   16.011219804
    0.709682805   15.497718793   15.493075759   16.024891572
    0.716861436   15.511174440   15.506526038   16.038730162
    0.724040067   15.524793250   15.520139413   16.052736512
    0.731218698   15.538576151   15.533916810   16.066911574
    0.738397329   15.552524085   15.547859172   16.081256317
    0.745575960   15.566638010   15.561967456   16.095771722
    0.752754591   15.580918895   15.576242631   16.110458787
    0.759933222   15.595367729   15.590685684   16.125318526
    0.767111853   15.609985512   15.605297616   16.140351968
    0.774290484   15.624773263   15.620079444   16.155560156
    0.781469115   15.639732012   15.635032199   16.170944152
    0.788647746   15.654862810   15.650156931   16.186505033
    0.795826377   15.670166720   15.665454703   16.202243891
    0.803005008   15.685644824   15.680926595   16.218161838
    0.810183639   15.701298219   15.696573704   16.234259999
    0.817362270   15.717128018   15.712397144   16.250539520
    0.824540902   15.733135353   15.728398045   16.267001561
    0.831719533   15.749321372   15.744577554   16.283647303
    0.838898164   15.765687241   15.760936837   16.300477943
    0.846076795   15.782234143   15.777477076   16.317494695
    0.853255426   15.798963279   15.794199472   16.334698795
    0.860434057   15.815875869   15.811105244   16.352091494
    0.867612688   15.832973150   15.828195630   16.369674064
    0.874791319   15.850256381   15.845471885   16.387447797
    0.881969950   15.867726835   15.862935284   16.405414002
    0.889148581   15.885385809   15.880587122   16.423574011
    0.896327212   15.903234617   15.898428714   16.441929173
    0.903505843   15.921274595   15.916461392   16.460480861
    0.910684474   15.939507095   15.934686512   16.479230465
    0.917863105   15.957933496   15.953105447   16.498179398
    0.925041736   15.976555191   15.971719594   16.517329096
    0.932220367   15.995373600   15.990530370   16.536681014
    0.939398998   16.014390160   16.009539211   16.556236631
    0.946577629   16.033606333   16.028747580   16.575997447
    0.953756260   16.053023602   16.048156957   16.595964987
    0.960934891   16.072643472   16.067768847   16.616140796
    0.968113523   16.092467472   16.087584779   16.636526446
    0.975292154   16.112497154   16.107606303   16.657123531
    0.982470785   16.132734093   16.127834994   16.677933669
    0.989649416   16.153179887   16.148272450   16.698958504
    0.996828047   16.173836163   16.168920295   16.720199704
    1.004006678   16.194704567   16.189780176   16.741658964
    1.011185309   16.215786775   16.210853766   16.763338003
    1.018363940   16.237084486   16.232142765   16.785238569
    1.025542571   16.258599425   16.253648897   16.807362434
    1.032721202   16.280333346   16.275373914   16.829711400
    1.039899833   16.302288027   16.297319595   16.852287295
    1.047078464   16.324465277   16.319487745   16.875091975
    1.054257095   16.346866928   16.341880198   16.898127327
    1.061435726   16.369494846   16.364498817   16.921395265
    1.068614357   16.392350923   16.387345494   16.944897734
    1.075792988   16.415437080   16.410422149   16.968636709
    1.082971619   16.438755270   16.433730733   16.992614195
    1.090150250   16.462307473   16.457273226   17.016832229
    1.097328881   16.486095698   16.481051634   17.041292881
    1.104507513   16.510121965   16.505067976   17.065998251
    1.111686144   16.534388312   16.529324290   17.090950474
    1.118864775   16.558896892   16.553822732   17.116151719
    1.126043406   16.583649936   16.578565530   17.141604190
    1.133222037   16.608649598   16.603554831   17.167310124
    1.140400668   16.633898050   16.628792811   17.193271793
    1.147579299   16.659397520   16.654281694   17.219491507
    1.154757930   16.685150290   16.680023763   17.245971612
    1.161936561   16.711158702   16.706021359   17.272714490
    1.169115192   16.737425113   16.732276836   17.299722553
    1.176293823   16.763951907   16.758792575   17.326998220
    1.183472454   16.790741508   16.785571003   17.354543963
    1.190651085   16.817796396   16.812614594   17.382362428
    1.197829716   16.845119085   16.839925864   17.410456253
    1.205008347   16.872712124   16.867507361   17.438828017
    1.212186978   16.900578108   16.895361676   17.467480359
    1.219365609   16.928719671   16.923491443   17.496415982
    1.226544240   16.957139494   16.951899342   17.525637643
    1.233722871   16.985840302   16.980588095   17.555148141
    1.240901503   17.014824863   17.009560469   17.584950326
    1.248080134   17.044095993   17.038819279   17.615047094
    1.255258765   17.073656553   17.068367385   17.645441388
    1.262437396   17.103509455   17.098207695   17.676136201
    1.269616027   17.133657656   17.128343166   17.707134577
    1.276794658   17.164104164   17.158776804   17.738439609
    1.283973289   17.194852039   17.189511667   17.770054445
    1.291151920   17.225904392   17.220550865   17.801982285
    1.298330551   17.257264386   17.251897558   17.834226383
    1.305509182   17.288935240   17.283554964   17.866790050
    1.312687813   17.320920226   17.315526354   17.899676653
    1.319866444   17.353222674   17.347815054   17.932889617
    1.327045075   17.385845971   17.380424450   17.966432426
    1.334223706   17.418793562   17.413357985   18.000308627
    1.341402337   17.452068953   17.446619162   18.034521825
    1.348580968   17.485675710   17.480211548   18.069075691
    1.355759599   17.519617463   17.514138768   18.103973959
    1.362938230   17.553897905   17.548404513   18.139220431
    1.370116861   17.588520796   17.583012542   18.174818974
    1.377295492   17.623489960   17.617966676   18.210773526
    1.384474124   17.658809291   17.653270808   18.247088093
    1.391652755   17.694482754   17.688928899   18.283766757
    1.398831386   17.730514383   17.724944981   18.320813669
    1.406010017   17.766908287   17.761323161   18.358233058
    1.413188648   17.803668648   17.798067618   18.396029230
    1.420367279   17.840799726   17.835182609   18.434206570
    1.427545910   17.878305858   17.872672470   18.472769543
    1.434724541   17.916191460   17.910541614   18.511722696
    1.441903172   17.954461033   17.948794537   18.551070661
    1.449081803   17.993119159   17.987435821   18.590818157
    1.456260434   18.032170506   18.026470130   18.630969991
    1.463439065   18.071619830   18.065902218   18.671531061
    1.470617696   18.111471978   18.105736928   18.712506356
    1.477796327   18.151731888   18.145979195   18.753900961
    1.484974958   18.192404591   18.186634047   18.795720061
    1.492153589   18.233495216   18.227706611   18.837968935
    1.499332220   18.275008990   18.269202110   18.880652970
    1.506510851   18.316951243   18.311125869   18.923777653
    1.513689482   18.359327406   18.353483318   18.967348580
    1.520868114   18.402143019   18.396279993   19.011371458
    1.528046745   18.445403728   18.439521536   19.055852104
    1.535225376   18.489115294   18.483213705   19.100796453
    1.542404007   18.533283591   18.527362369   19.146210558
    1.549582638   18.577914610   18.571973517   19.192100591
    1.556761269   18.623014463   18.617053256   19.238472851
    1.563939900   18.668589387   18.662607819   19.285333765
    1.571118531   18.714645743   18.708643564   19.332689890
    1.578297162   18.761190026   18.755166980   19.380547918
    1.585475793   18.808228861   18.802184690   19.428914679
    1.592654424   18.855769013   18.849703453   19.477797145
    1.599833055   18.903817386   18.897730170   19.527202434
    1.607011686   18.952381030   18.946271885   19.577137813
    1.614190317   19.001467139   18.995335787   19.627610703
    1.621368948   19.051083046   19.044929206   19.678628681
    1.628547579   19.101236209   19.095059593   19.730199483
    1.635726210   19.151934268   19.145734583   19.782331014
    1.642904841   19.203185189   19.196962140   19.835031369
    1.650083472   19.254997031   19.248750314   19.888308805
    1.657262104   19.307377909   19.301107217   19.942171740
    1.664440735   19.360336136   19.354041158   19.996628750
    1.671619366   19.413880228   19.407560645   20.051688581
    1.678797997   19.468018951   19.461674437   20.107360342
    1.685976628   19.522761278   19.516391502   20.163653391
    1.693155259   19.578116325   19.571720950   20.220577100
    1.700333890   19.634093416   19.627672097   20.278141053
    1.707512521   19.690702098   19.684254486   20.336355095
    1.714691152   19.747952145   19.741477882   20.395229308
    1.721869783   19.805853551   19.799352275   20.454774000
    1.729048414   19.864416534   19.857887874   20.514999687
    1.736227045   19.923651541   19.917095120   20.575917101
    1.743405676   19.983569331   19.976984763   20.637537422
    1.750584307   20.044180941   20.037567833   20.699872160
    1.757762938   20.105497579   20.098855531   20.762932854
    1.764941569   20.167530709   20.160859315   20.826731299
    1.772120200   20.230292145   20.223590985   20.891279681
    1.779298831   20.293794038   20.287062685   20.956590554
    1.786477462   20.358048755   20.351286774   21.022676697
    1.793656093   20.423068938   20.416275886   21.089551188
    1.800834725   20.488867500   20.482042926   21.157227430
    1.808013356   20.555457685   20.548601122   21.225719186
    1.815191987   20.622853323   20.615964293   21.295040691
    1.822370618   20.691068659   20.684146683   21.365206495
    1.829549249   20.760118111   20.753162697   21.436231436
    1.836727880   20.830016338   20.823026982   21.508130750
    1.843906511   20.900778430   20.893754618   21.580920041
    1.851085142   20.972419906   20.965361113   21.654615267
    1.858263773   21.044956765   21.037862452   21.729233044
    1.865442404   21.118405488   21.111275101   21.804790672
    1.872621035   21.192782926   21.185615900   21.881305551
    1.879799666   21.268106373   21.260902132   21.958795479
    1.886978297   21.344393621   21.337151573   22.037278831
    1.894156928   21.421662965   21.414382505   22.116774530
    1.901335559   21.499933215   21.492613723   22.197302046
    1.908514190   21.579223716   21.571864559   22.278881405
    1.915692821   21.659554369   21.652154897   22.361533210
    1.922871452   21.740945649   21.733505196   22.445278663
    1.930050083   21.823418627   21.815936512   22.530139587
    1.937228715   21.906994999   21.899470521   22.616138452
    1.944407346   21.991697100   21.984129543   22.703298388
    1.951585977   22.077547939   22.069936565   22.791643182
    1.958764608   22.164571204   22.156915261   22.881197179
    1.965943239   22.252791273   22.245089989   22.971985044
    1.973121870   22.342233226   22.334485813   23.064032414
    1.980300501   22.432922829   22.425128496   23.157367845
    1.987479132   22.524886370   22.517044296   23.252019814
    1.994657763   22.618151669   22.610260939   23.348016264
    2.001836394   22.712747766   22.704807482   23.445386474
    2.009015025   22.808704515   22.800713757   23.544160874
    2.016193656   22.906052792   22.898010637   23.644370989
    2.023372287   23.004823510   22.996729015   23.746049328
    2.030550918   23.105048751   23.096900934   23.849229518
    2.037729549   23.206761952   23.198559799   23.953946349
    2.044908180   23.309997766   23.301740230   24.060235777
    2.052086811   23.414792004   23.406478009   24.168134832
    2.059265442   23.521181526   23.512809971   24.277681272
    2.066444073   23.629204194   23.620773960   24.388913459
    2.073622705   23.738899734   23.730409653   24.501873777
    2.080801336   23.850309403   23.841758228   24.616608148
    2.087979967   23.963476250   23.954862714   24.733160182
    2.095158598   24.078445812   24.069768626   24.851574650
    2.102337229   24.195262755   24.186520587   24.971899380
    2.109515860   24.313973639   24.305165087   25.094184361
    2.116694491   24.434629830   24.425753485   25.218480325
    2.123873122   24.557283233   24.548337646   25.344839556
    2.131051753   24.681986307   24.672969970   25.473317815
    2.138230384   24.808794624   24.799705969   25.603974501
    2.145409015   24.937765527   24.928602928   25.736869308
    2.152587646   25.068958622   25.059720400   25.872063906
    2.159766277   25.202436173   25.193120587   26.009622949
    2.166944908   25.338263068   25.328868311   26.149613929
    2.174123539   25.476506904   25.467031114   26.292107217
    2.181302170   25.617238316   25.607679574   26.437176359
    2.188480801   25.760530995   25.750887295   26.584898014
    2.195659432   25.906461655   25.896730912   26.735352068
    2.202838063   26.055110393   26.045290447   26.888622028
    2.210016694   26.206560846   26.196649455   27.044795075
    2.217195326   26.360900503   26.350895335   27.203962326
    2.224373957   26.518220938   26.508119567   27.366219117
    2.231552588   26.678617878   26.668417787   27.531665240
    2.238731219   26.842191546   26.831890113   27.700405194
    2.245909850   27.009046973   26.998641469   27.872548468
    2.253088481   27.179294291   27.168781871   28.048209932
    2.260267112   27.353049035   27.342426731   28.227510216
    2.267445743   27.530432341   27.519697055   28.410575805
    2.274624374   27.711571434   27.700719934   28.597539305
    2.281803005   27.896600272   27.885629188   28.788539681
    2.288981636   28.085659552   28.074565364   28.983724142
    2.296160267   28.278897549   28.267676577   29.183249692
    2.303338898   28.476469954   28.465118332   29.387279371
    2.310517529   28.678543822   28.667057500   29.595984060
    2.317696160   28.885294892   28.873669648   29.809545373
    2.324874791   29.096906565   29.085137944   30.028157663
    2.332053422   29.313572766   29.301656115   30.252024675
    2.339232053   29.535498959   29.523429388   30.481360558
    2.346410684   29.762903182   29.750675548   30.716392796
    2.353589316   29.996016787   29.983625679   30.957362975
    2.360767947   30.235085321   30.222525037   31.204527473
    2.367946578   30.480369616   30.467634153   31.458158554
    2.375125209   30.732147397   30.719230438   31.718546810
    2.382303840   30.990714540   30.977609403   31.986002279
    2.389482471   31.256385987   31.243085609   32.260854110
    2.396661102   31.529498326   31.515995237   32.543453466
    2.403839733   31.810411558   31.796697846   32.834175855
    2.411018364   32.099510171   32.085577453   33.133423002
    2.418196995   32.397206065   32.383045451   33.441625244
    2.425375626   32.703941530   32.689543575   33.759245126
    2.432554257   33.020191845   33.005546511   34.086779686
    2.439732888   33.346468173   33.331564779   34.424762607
    2.446911519   33.683321321   33.668148485   34.773768833
    2.454090150   34.031345753   34.015891326   35.134418942
    2.461268781   34.391184080   34.375435083   35.507383685
    2.468447412   34.763532598   34.747475140   35.893389324
    2.475626043   35.149146827   35.132766040   36.293223475
    2.482804674   35.548847399   35.532127335   36.707741605
    2.489983306   35.963527923   35.946451448   37.137874772
    2.497161937   36.394163565   36.376712245   37.584638298
    2.504340568   36.841820611   36.823974586   38.049141576
    2.511519199   37.307667567   37.289405393   38.532599586
    2.518697830   37.792987846   37.774286331   39.036346202
    2.525876461   38.299193557   38.280027573   39.561848242
    2.533055092   38.827842805   38.808185077   40.110722882
    2.540233723   39.380664650   39.360485604   40.684758610
