# energy grid [eV]     ieps_x  ieps_y  ieps_z
#
    0.200000000    9.252100203    9.249679891    9.379007181
    0.207178631    9.249957999    9.247538487    9.376825212
    0.214357262    9.247741503    9.245322819    9.374567577
    0.221535893    9.245450843    9.243033015    9.372234408
    0.228714524    9.243086153    9.240669209    9.369825839
    0.235893155    9.240647569    9.238231535    9.367342010
    0.243071786    9.238135230    9.235720134    9.364783064
    0.250250417    9.235549282    9.233135152    9.362149149
    0.257429048    9.232889873    9.230476735    9.359440418
    0.264607679    9.230157155    9.227745038    9.356657025
    0.271786311    9.227351287    9.224940217    9.353799132
    0.278964942    9.224472427    9.222062431    9.350866902
    0.286143573    9.221520742    9.219111847    9.347860504
    0.293322204    9.218496399    9.216088632    9.344780111
    0.300500835    9.215399571    9.212992960    9.341625898
    0.307679466    9.212230436    9.209825005    9.338398047
    0.314858097    9.208989172    9.206584950    9.335096740
    0.322036728    9.205675964    9.203272977    9.331722168
    0.329215359    9.202291001    9.199889276    9.328274521
    0.336393990    9.198834475    9.196434037    9.324753997
    0.343572621    9.195306580    9.192907456    9.321160794
    0.350751252    9.191707516    9.189309732    9.317495117
    0.357929883    9.188037486    9.185641069    9.313757174
    0.365108514    9.184296698    9.181901673    9.309947174
    0.372287145    9.180485361    9.178091754    9.306065335
    0.379465776    9.176603689    9.174211526    9.302111873
    0.386644407    9.172651900    9.170261207    9.298087012
    0.393823038    9.168630215    9.166241018    9.293990977
    0.401001669    9.164538859    9.162151182    9.289823999
    0.408180301    9.160378059    9.157991929    9.285586309
    0.415358932    9.156148049    9.153763490    9.281278146
    0.422537563    9.151849061    9.149466100    9.276899749
    0.429716194    9.147481336    9.145099997    9.272451362
    0.436894825    9.143045114    9.140665422    9.267933231
    0.444073456    9.138540641    9.136162621    9.263345608
    0.451252087    9.133968166    9.131591842    9.258688746
    0.458430718    9.129327939    9.126953337    9.253962902
    0.465609349    9.124620216    9.122247359    9.249168337
    0.472787980    9.119845255    9.117474168    9.244305314
    0.479966611    9.115003316    9.112634025    9.239374101
    0.487145242    9.110094665    9.107727192    9.234374967
    0.494323873    9.105119569    9.102753938    9.229308185
    0.501502504    9.100078297    9.097714533    9.224174032
    0.508681135    9.094971124    9.092609250    9.218972787
    0.515859766    9.089798325    9.087438366    9.213704733
    0.523038397    9.084560180    9.082202159    9.208370154
    0.530217028    9.079256972    9.076900912    9.202969340
    0.537395659    9.073888984    9.071534909    9.197502581
    0.544574290    9.068456506    9.066104438    9.191970171
    0.551752922    9.062959827    9.060609789    9.186372407
    0.558931553    9.057399240    9.055051256    9.180709588
    0.566110184    9.051775042    9.049429135    9.174982018
    0.573288815    9.046087532    9.043743724    9.169190002
    0.580467446    9.040337010    9.037995324    9.163333846
    0.587646077    9.034523781    9.032184238    9.157413862
    0.594824708    9.028648150    9.026310773    9.151430361
    0.602003339    9.022710427    9.020375239    9.145383661
    0.609181970    9.016710923    9.014377944    9.139274079
    0.616360601    9.010649951    9.008319204    9.133101934
    0.623539232    9.004527828    9.002199335    9.126867551
    0.630717863    8.998344872    8.996018653    9.120571253
    0.637896494    8.992101403    8.989777481    9.114213370
    0.645075125    8.985797744    8.983476140    9.107794230
    0.652253756    8.979434221    8.977114956    9.101314166
    0.659432387    8.973011161    8.970694255    9.094773512
    0.666611018    8.966528893    8.964214368    9.088172604
    0.673789649    8.959987748    8.957675625    9.081511781
    0.680968280    8.953388061    8.951078359    9.074791383
    0.688146912    8.946730166    8.944422906    9.068011754
    0.695325543    8.940014401    8.937709603    9.061173237
    0.702504174    8.933241105    8.930938790    9.054276180
    0.709682805    8.926410620    8.924110808    9.047320931
    0.716861436    8.919523289    8.917225998    9.040307839
    0.724040067    8.912579456    8.910284707    9.033237259
    0.731218698    8.905579468    8.903287280    9.026109543
    0.738397329    8.898523674    8.896234066    9.018925046
    0.745575960    8.891412423    8.889125414    9.011684127
    0.752754591    8.884246066    8.881961676    9.004387145
    0.759933222    8.877024958    8.874743205    8.997034460
    0.767111853    8.869749452    8.867470356    8.989626434
    0.774290484    8.862419906    8.860143483    8.982163431
    0.781469115    8.855036675    8.852762946    8.974645816
    0.788647746    8.847600121    8.845329102    8.967073956
    0.795826377    8.840110602    8.837842313    8.959448218
    0.803005008    8.832568481    8.830302939    8.951768973
    0.810183639    8.824974121    8.822711344    8.944036591
    0.817362270    8.817327886    8.815067891    8.936251444
    0.824540902    8.809630142    8.807372947    8.928413905
    0.831719533    8.801881255    8.799626877    8.920524348
    0.838898164    8.794081593    8.791830049    8.912583149
    0.846076795    8.786231526    8.783982833    8.904590685
    0.853255426    8.778331422    8.776085597    8.896547333
    0.860434057    8.770381653    8.768138713    8.888453472
    0.867612688    8.762382591    8.760142552    8.880309482
    0.874791319    8.754334609    8.752097487    8.872115743
    0.881969950    8.746238081    8.744003891    8.863872636
    0.889148581    8.738093380    8.735862140    8.855580545
    0.896327212    8.729900883    8.727672608    8.847239853
    0.903505843    8.721660965    8.719435671    8.838850942
    0.910684474    8.713374004    8.711151706    8.830414199
    0.917863105    8.705040377    8.702821091    8.821930008
    0.925041736    8.696660463    8.694444203    8.813398755
    0.932220367    8.688234639    8.686021421    8.804820828
    0.939398998    8.679763286    8.677553125    8.796196614
    0.946577629    8.671246784    8.669039694    8.787526499
    0.953756260    8.662685513    8.660481509    8.778810874
    0.960934891    8.654079854    8.651878950    8.770050125
    0.968113523    8.645430188    8.643232399    8.761244644
    0.975292154    8.636736898    8.634542237    8.752394818
    0.982470785    8.628000365    8.625808846    8.743501039
    0.989649416    8.619220971    8.617032609    8.734563696
    0.996828047    8.610399100    8.608213907    8.725583180
    1.004006678    8.601535135    8.599353125    8.716559882
    1.011185309    8.592629458    8.590450644    8.707494193
    1.018363940    8.583682453    8.581506848    8.698386504
    1.025542571    8.574694503    8.572522121    8.689237206
    1.032721202    8.565665993    8.563496845    8.680046690
    1.039899833    8.556597305    8.554431405    8.670815349
    1.047078464    8.547488823    8.545326183    8.661543573
    1.054257095    8.538340932    8.536181564    8.652231755
    1.061435726    8.529154014    8.526997931    8.642880284
    1.068614357    8.519928454    8.517775667    8.633489554
    1.075792988    8.510664635    8.508515155    8.624059955
    1.082971619    8.501362939    8.499216780    8.614591877
    1.090150250    8.492023752    8.489880923    8.605085713
    1.097328881    8.482647454    8.480507968    8.595541853
    1.104507513    8.473234430    8.471098298    8.585960687
    1.111686144    8.463785062    8.461652294    8.576342606
    1.118864775    8.454299732    8.452170339    8.566687999
    1.126043406    8.444778821    8.442652815    8.556997256
    1.133222037    8.435222712    8.433100103    8.547270766
    1.140400668    8.425631786    8.423512584    8.537508918
    1.147579299    8.416006423    8.413890638    8.527712101
    1.154757930    8.406347004    8.404234647    8.517880701
    1.161936561    8.396653909    8.394544989    8.508015107
    1.169115192    8.386927516    8.384822043    8.498115706
    1.176293823    8.377168206    8.375066189    8.488182884
    1.183472454    8.367376355    8.365277805    8.478217026
    1.190651085    8.357552343    8.355457267    8.468218518
    1.197829716    8.347696545    8.345604954    8.458187744
    1.205008347    8.337809338    8.335721241    8.448125088
    1.212186978    8.327891099    8.325806504    8.438030934
    1.219365609    8.317942201    8.315861118    8.427905663
    1.226544240    8.307963020    8.305885456    8.417749658
    1.233722871    8.297953930    8.295879894    8.407563299
    1.240901503    8.287915302    8.285844802    8.397346967
    1.248080134    8.277847509    8.275780554    8.387101041
    1.255258765    8.267750922    8.265687519    8.376825899
    1.262437396    8.257625912    8.255566069    8.366521919
    1.269616027    8.247472848    8.245416573    8.356189477
    1.276794658    8.237292099    8.235239399    8.345828950
    1.283973289    8.227084033    8.225034915    8.335440713
    1.291151920    8.216849015    8.214803488    8.325025138
    1.298330551    8.206587413    8.204545482    8.314582600
    1.305509182    8.196299590    8.194261263    8.304113469
    1.312687813    8.185985911    8.183951195    8.293618117
    1.319866444    8.175646738    8.173615639    8.283096914
    1.327045075    8.165282433    8.163254959    8.272550228
    1.334223706    8.154893358    8.152869513    8.261978426
    1.341402337    8.144479870    8.142459662    8.251381876
    1.348580968    8.134042329    8.132025764    8.240760942
    1.355759599    8.123581093    8.121568175    8.230115989
    1.362938230    8.113096517    8.111087253    8.219447380
    1.370116861    8.102588956    8.100583352    8.208755476
    1.377295492    8.092058764    8.090056826    8.198040638
    1.384474124    8.081506294    8.079508026    8.187303226
    1.391652755    8.070931896    8.068937305    8.176543596
    1.398831386    8.060335922    8.058345012    8.165762107
    1.406010017    8.049718720    8.047731497    8.154959114
    1.413188648    8.039080638    8.037097105    8.144134970
    1.420367279    8.028422022    8.026442185    8.133290028
    1.427545910    8.017743216    8.015767080    8.122424641
    1.434724541    8.007044565    8.005072134    8.111539157
    1.441903172    7.996326411    7.994357689    8.100633927
    1.449081803    7.985589095    7.983624086    8.089709296
    1.456260434    7.974832956    7.972871664    8.078765612
    1.463439065    7.964058332    7.962100762    8.067803218
    1.470617696    7.953265561    7.951311716    8.056822458
    1.477796327    7.942454977    7.940504861    8.045823673
    1.484974958    7.931626915    7.929680531    8.034807203
    1.492153589    7.920781707    7.918839059    8.023773387
    1.499332220    7.909919683    7.907980775    8.012722562
    1.506510851    7.899041174    7.897106009    8.001655063
    1.513689482    7.888146508    7.886215088    7.990571226
    1.520868114    7.877236011    7.875308339    7.979471382
    1.528046745    7.866310008    7.864386087    7.968355862
    1.535225376    7.855368822    7.853448656    7.957224995
    1.542404007    7.844412776    7.842496367    7.946079111
    1.549582638    7.833442190    7.831529540    7.934918534
    1.556761269    7.822457382    7.820548494    7.923743590
    1.563939900    7.811458671    7.809553547    7.912554601
    1.571118531    7.800446372    7.798545013    7.901351890
    1.578297162    7.789420799    7.787523208    7.890135776
    1.585475793    7.778382264    7.776488443    7.878906577
    1.592654424    7.767331078    7.765441029    7.867664609
    1.599833055    7.756267552    7.754381276    7.856410189
    1.607011686    7.745191992    7.743309491    7.845143628
    1.614190317    7.734104704    7.732225979    7.833865238
    1.621368948    7.723005993    7.721131046    7.822575330
    1.628547579    7.711896162    7.710024994    7.811274212
    1.635726210    7.700775512    7.698908124    7.799962189
    1.642904841    7.689644341    7.687780735    7.788639568
    1.650083472    7.678502949    7.676643125    7.777306650
    1.657262104    7.667351631    7.665495590    7.765963738
    1.664440735    7.656190682    7.654338424    7.754611131
    1.671619366    7.645020393    7.643171919    7.743249126
    1.678797997    7.633841057    7.631996368    7.731878021
    1.685976628    7.622652963    7.620812059    7.720498109
    1.693155259    7.611456397    7.609619279    7.709109683
    1.700333890    7.600251647    7.598418314    7.697713035
    1.707512521    7.589038996    7.587209448    7.686308452
    1.714691152    7.577818726    7.575992965    7.674896224
    1.721869783    7.566591119    7.564769143    7.663476634
    1.729048414    7.555356454    7.553538263    7.652049968
    1.736227045    7.544115007    7.542300601    7.640616508
    1.743405676    7.532867054    7.531056433    7.629176533
    1.750584307    7.521612869    7.519806033    7.617730322
    1.757762938    7.510352724    7.508549672    7.606278151
    1.764941569    7.499086890    7.497287620    7.594820297
    1.772120200    7.487815634    7.486020147    7.583357032
    1.779298831    7.476539224    7.474747518    7.571888627
    1.786477462    7.465257924    7.463469999    7.560415352
    1.793656093    7.453971998    7.452187852    7.548937475
    1.800834725    7.442681707    7.440901340    7.537455261
    1.808013356    7.431387311    7.429610721    7.525968976
    1.815191987    7.420089069    7.418316254    7.514478880
    1.822370618    7.408787235    7.407018195    7.502985235
    1.829549249    7.397482065    7.395716798    7.491488300
    1.836727880    7.386173811    7.384412316    7.479988331
    1.843906511    7.374862725    7.373104999    7.468485584
    1.851085142    7.363549054    7.361795097    7.456980312
    1.858263773    7.352233047    7.350482856    7.445472765
    1.865442404    7.340914949    7.339168523    7.433963195
    1.872621035    7.329595004    7.327852340    7.422451849
    1.879799666    7.318273454    7.316534551    7.410938973
    1.886978297    7.306950539    7.305215394    7.399424811
    1.894156928    7.295626498    7.293895109    7.387909606
    1.901335559    7.284301567    7.282573932    7.376393599
    1.908514190    7.272975981    7.271252098    7.364877027
    1.915692821    7.261649974    7.259929840    7.353360129
    1.922871452    7.250323776    7.248607389    7.341843139
    1.930050083    7.238997619    7.237284976    7.330326291
    1.937228715    7.227671728    7.225962827    7.318809817
    1.944407346    7.216346331    7.214641169    7.307293946
    1.951585977    7.205021653    7.203320226    7.295778907
    1.958764608    7.193697914    7.192000220    7.284264925
    1.965943239    7.182375337    7.180681374    7.272752225
    1.973121870    7.171054140    7.169363904    7.261241030
    1.980300501    7.159734542    7.158048029    7.249731561
    1.987479132    7.148416756    7.146733965    7.238224036
    1.994657763    7.137100998    7.135421925    7.226718674
    2.001836394    7.125787479    7.124112120    7.215215689
    2.009015025    7.114476410    7.112804762    7.203715295
    2.016193656    7.103167999    7.101500059    7.192217704
    2.023372287    7.091862454    7.090198218    7.180723127
    2.030550918    7.080559979    7.078899444    7.169231772
    2.037729549    7.069260778    7.067603940    7.157743846
    2.044908180    7.057965052    7.056311908    7.146259553
    2.052086811    7.046673002    7.045023548    7.134779096
    2.059265442    7.035384827    7.033739059    7.123302678
    2.066444073    7.024100721    7.022458635    7.111830498
    2.073622705    7.012820881    7.011182474    7.100362753
    2.080801336    7.001545500    6.999910767    7.088899640
    2.087979967    6.990274769    6.988643706    7.077441354
    2.095158598    6.979008877    6.977381481    7.065988087
    2.102337229    6.967748014    6.966124280    7.054540030
    2.109515860    6.956492365    6.954872289    7.043097373
    2.116694491    6.945242115    6.943625694    7.031660303
    2.123873122    6.933997448    6.932384676    7.020229006
    2.131051753    6.922758544    6.921149417    7.008803666
    2.138230384    6.911525584    6.909920098    6.997384466
    2.145409015    6.900298745    6.898696895    6.985971586
    2.152587646    6.889078204    6.887479986    6.974565206
    2.159766277    6.877864136    6.876269546    6.963165504
    2.166944908    6.866656714    6.865065747    6.951772654
    2.174123539    6.855456110    6.853868760    6.940386831
    2.181302170    6.844262492    6.842678756    6.929008207
    2.188480801    6.833076031    6.831495903    6.917636954
    2.195659432    6.821896892    6.820320368    6.906273241
    2.202838063    6.810725240    6.809152315    6.894917234
    2.210016694    6.799561238    6.797991908    6.883569100
    2.217195326    6.788405050    6.786839309    6.872229003
    2.224373957    6.777256834    6.775694678    6.860897105
    2.231552588    6.766116750    6.764558173    6.849573569
    2.238731219    6.754984955    6.753429951    6.838258552
    2.245909850    6.743861603    6.742310169    6.826952213
    2.253088481    6.732746850    6.731198980    6.815654709
    2.260267112    6.721640847    6.720096536    6.804366192
    2.267445743    6.710543746    6.709002988    6.793086818
    2.274624374    6.699455695    6.697918486    6.781816736
    2.281803005    6.688376842    6.686843177    6.770556098
    2.288981636    6.677307335    6.675777206    6.759305050
    2.296160267    6.666247316    6.664720720    6.748063741
    2.303338898    6.655196930    6.653673861    6.736832315
    2.310517529    6.644156318    6.642636770    6.725610916
    2.317696160    6.633125620    6.631609588    6.714399686
    2.324874791    6.622104975    6.620592454    6.703198765
    2.332053422    6.611094520    6.609585504    6.692008293
    2.339232053    6.600094391    6.598588874    6.680828407
    2.346410684    6.589104722    6.587602699    6.669659244
    2.353589316    6.578125646    6.576627110    6.658500938
    2.360767947    6.567157293    6.565662240    6.647353621
    2.367946578    6.556199794    6.554708218    6.636217426
    2.375125209    6.545253278    6.543765172    6.625092483
    2.382303840    6.534317870    6.532833230    6.613978920
    2.389482471    6.523393697    6.521912516    6.602876865
    2.396661102    6.512480883    6.511003155    6.591786443
    2.403839733    6.501579550    6.500105269    6.580707779
    2.411018364    6.490689820    6.489218980    6.569640995
    2.418196995    6.479811812    6.478344408    6.558586213
    2.425375626    6.468945645    6.467481670    6.547543553
    2.432554257    6.458091435    6.456630885    6.536513133
    2.439732888    6.447249300    6.445792166    6.525495072
    2.446911519    6.436419352    6.434965630    6.514489484
    2.454090150    6.425601705    6.424151388    6.503496483
    2.461268781    6.414796470    6.413349553    6.492516184
    2.468447412    6.404003758    6.402560234    6.481548698
    2.475626043    6.393223678    6.391783541    6.470594134
    2.482804674    6.382456337    6.381019580    6.459652602
    2.489983306    6.371701841    6.370268459    6.448724210
    2.497161937    6.360960295    6.359530282    6.437809064
    2.504340568    6.350231804    6.348805152    6.426907268
    2.511519199    6.339516468    6.338093172    6.416018926
    2.518697830    6.328814390    6.327394443    6.405144141
    2.525876461    6.318125668    6.316709065    6.394283013
    2.533055092    6.307450402    6.306037136    6.383435643
    2.540233723    6.296788689    6.295378753    6.372602128
