# energy grid [eV]     epsr_x  epsr_y  epsr_z
#
    0.200000000   12.014428226   12.091111308   12.158338631
    0.207178631   12.016851919   12.093555440   12.160587381
    0.214357262   12.019362256   12.096086949   12.162916425
    0.221535893   12.021959360   12.098705959   12.165325869
    0.228714524   12.024643361   12.101412600   12.167815821
    0.235893155   12.027414392   12.104207005   12.170386393
    0.243071786   12.030272588   12.107089314   12.173037702
    0.250250417   12.033218093   12.110059670   12.175769868
    0.257429048   12.036251052   12.113118220   12.178583014
    0.264607679   12.039371616   12.116265115   12.181477267
    0.271786311   12.042579939   12.119500513   12.184452759
    0.278964942   12.045876182   12.122824575   12.187509625
    0.286143573   12.049260508   12.126237466   12.190648003
    0.293322204   12.052733087   12.129739357   12.193868036
    0.300500835   12.056294091   12.133330422   12.197169871
    0.307679466   12.059943698   12.137010842   12.200553657
    0.314858097   12.063682091   12.140780800   12.204019550
    0.322036728   12.067509457   12.144640485   12.207567707
    0.329215359   12.071425988   12.148590091   12.211198290
    0.336393990   12.075431880   12.152629817   12.214911466
    0.343572621   12.079527334   12.156759865   12.218707404
    0.350751252   12.083712557   12.160980444   12.222586278
    0.357929883   12.087987760   12.165291767   12.226548266
    0.365108514   12.092353157   12.169694050   12.230593550
    0.372287145   12.096808970   12.174187517   12.234722317
    0.379465776   12.101355423   12.178772395   12.238934756
    0.386644407   12.105992747   12.183448916   12.243231061
    0.393823038   12.110721177   12.188217318   12.247611431
    0.401001669   12.115540952   12.193077843   12.252076068
    0.408180301   12.120452319   12.198030739   12.256625179
    0.415358932   12.125455527   12.203076258   12.261258975
    0.422537563   12.130550832   12.208214658   12.265977671
    0.429716194   12.135738492   12.213446201   12.270781485
    0.436894825   12.141018775   12.218771156   12.275670642
    0.444073456   12.146391950   12.224189795   12.280645369
    0.451252087   12.151858293   12.229702397   12.285705899
    0.458430718   12.157418086   12.235309245   12.290852468
    0.465609349   12.163071613   12.241010630   12.296085317
    0.472787980   12.168819168   12.246806844   12.301404691
    0.479966611   12.174661047   12.252698188   12.306810841
    0.487145242   12.180597551   12.258684967   12.312304020
    0.494323873   12.186628990   12.264767492   12.317884486
    0.501502504   12.192755676   12.270946079   12.323552505
    0.508681135   12.198977929   12.277221050   12.329308343
    0.515859766   12.205296071   12.283592733   12.335152273
    0.523038397   12.211710434   12.290061460   12.341084571
    0.530217028   12.218221353   12.296627571   12.347105521
    0.537395659   12.224829169   12.303291410   12.353215408
    0.544574290   12.231534230   12.310053327   12.359414524
    0.551752922   12.238336888   12.316913679   12.365703165
    0.558931553   12.245237502   12.323872829   12.372081631
    0.566110184   12.252236438   12.330931144   12.378550229
    0.573288815   12.259334064   12.338088999   12.385109269
    0.580467446   12.266530759   12.345346773   12.391759067
    0.587646077   12.273826905   12.352704854   12.398499944
    0.594824708   12.281222890   12.360163634   12.405332225
    0.602003339   12.288719110   12.367723512   12.412256240
    0.609181970   12.296315967   12.375384894   12.419272327
    0.616360601   12.304013867   12.383148189   12.426380825
    0.623539232   12.311813224   12.391013818   12.433582082
    0.630717863   12.319714460   12.398982203   12.440876447
    0.637896494   12.327718000   12.407053776   12.448264279
    0.645075125   12.335824279   12.415228975   12.455745940
    0.652253756   12.344033735   12.423508244   12.463321796
    0.659432387   12.352346817   12.431892034   12.470992221
    0.666611018   12.360763976   12.440380802   12.478757594
    0.673789649   12.369285674   12.448975014   12.486618298
    0.680968280   12.377912377   12.457675140   12.494574722
    0.688146912   12.386644560   12.466481661   12.502627263
    0.695325543   12.395482703   12.475395060   12.510776321
    0.702504174   12.404427295   12.484415832   12.519022303
    0.709682805   12.413478831   12.493544476   12.527365621
    0.716861436   12.422637813   12.502781499   12.535806694
    0.724040067   12.431904752   12.512127418   12.544345946
    0.731218698   12.441280164   12.521582753   12.552983807
    0.738397329   12.450764575   12.531148035   12.561720714
    0.745575960   12.460358516   12.540823801   12.570557109
    0.752754591   12.470062527   12.550610597   12.579493441
    0.759933222   12.479877157   12.560508975   12.588530165
    0.767111853   12.489802960   12.570519496   12.597667741
    0.774290484   12.499840500   12.580642730   12.606906638
    0.781469115   12.509990349   12.590879253   12.616247329
    0.788647746   12.520253085   12.601229650   12.625690295
    0.795826377   12.530629297   12.611694515   12.635236023
    0.803005008   12.541119580   12.622274449   12.644885007
    0.810183639   12.551724538   12.632970063   12.654637746
    0.817362270   12.562444785   12.643781975   12.664494749
    0.824540902   12.573280941   12.654710813   12.674456529
    0.831719533   12.584233637   12.665757213   12.684523606
    0.838898164   12.595303510   12.676921819   12.694696510
    0.846076795   12.606491209   12.688205286   12.704975775
    0.853255426   12.617797390   12.699608276   12.715361943
    0.860434057   12.629222720   12.711131462   12.725855565
    0.867612688   12.640767871   12.722775526   12.736457195
    0.874791319   12.652433530   12.734541157   12.747167400
    0.881969950   12.664220388   12.746429057   12.757986750
    0.889148581   12.676129150   12.758439936   12.768915825
    0.896327212   12.688160528   12.770574513   12.779955212
    0.903505843   12.700315245   12.782833518   12.791105506
    0.910684474   12.712594033   12.795217691   12.802367309
    0.917863105   12.724997634   12.807727781   12.813741233
    0.925041736   12.737526802   12.820364549   12.825227896
    0.932220367   12.750182299   12.833128765   12.836827924
    0.939398998   12.762964898   12.846021211   12.848541955
    0.946577629   12.775875384   12.859042677   12.860370630
    0.953756260   12.788914551   12.872193966   12.872314604
    0.960934891   12.802083204   12.885475892   12.884374538
    0.968113523   12.815382161   12.898889280   12.896551103
    0.975292154   12.828812248   12.912434965   12.908844977
    0.982470785   12.842374305   12.926113794   12.921256849
    0.989649416   12.856069182   12.939926626   12.933787409
    0.996828047   12.869897740   12.953874332   12.946437329
    1.004006678   12.883860853   12.967957794   12.959207207
    1.011185309   12.897959407   12.982177905   12.972097604
    1.018363940   12.912194298   12.996535573   12.985109435
    1.025542571   12.926566439   13.011031717   12.998243828
    1.032721202   12.941076751   13.025667269   13.011501511
    1.039899833   12.955726168   13.040443172   13.024883077
    1.047078464   12.970515639   13.055360384   13.038389228
    1.054257095   12.985446123   13.070419874   13.052020730
    1.061435726   13.000518594   13.085622627   13.065778372
    1.068614357   13.015734040   13.100969638   13.079662959
    1.075792988   13.031093460   13.116461919   13.093675305
    1.082971619   13.046597869   13.132100493   13.107816234
    1.090150250   13.062248295   13.147886399   13.122086581
    1.097328881   13.078045780   13.163820690   13.136487192
    1.104507513   13.093991380   13.179904432   13.151018922
    1.111686144   13.110086166   13.196138708   13.165682638
    1.118864775   13.126331225   13.212524613   13.180479220
    1.126043406   13.142727656   13.229063260   13.195409556
    1.133222037   13.159276576   13.245755775   13.210474547
    1.140400668   13.175979115   13.262603302   13.225675108
    1.147579299   13.192836420   13.279606997   13.241012162
    1.154757930   13.209849655   13.296768037   13.256486646
    1.161936561   13.227019997   13.314087610   13.272099511
    1.169115192   13.244348642   13.331566926   13.287851717
    1.176293823   13.261836801   13.349207206   13.303744238
    1.183472454   13.279485703   13.367009693   13.319778063
    1.190651085   13.297296594   13.384975644   13.335954191
    1.197829716   13.315270736   13.403106336   13.352273635
    1.205008347   13.333409410   13.421403061   13.368737423
    1.212186978   13.351713916   13.439867133   13.385346594
    1.219365609   13.370185569   13.458499880   13.402102202
    1.226544240   13.388825705   13.477302653   13.419005316
    1.233722871   13.407635679   13.496276818   13.436057018
    1.240901503   13.426616863   13.515423764   13.453258405
    1.248080134   13.445770651   13.534744896   13.470610587
    1.255258765   13.465098454   13.554241642   13.488114690
    1.262437396   13.484601701   13.573915445   13.505771857
    1.269616027   13.504281835   13.593767762   13.523583243
    1.276794658   13.524140314   13.613800067   13.541550019
    1.283973289   13.544178658   13.634013895   13.559673374
    1.291151920   13.564398408   13.654410801   13.577954512
    1.298330551   13.584801071   13.674992310   13.596394651
    1.305509182   13.605388187   13.695759976   13.614995028
    1.312687813   13.626161376   13.716715436   13.633756897
    1.319866444   13.647122258   13.737860327   13.652681526
    1.327045075   13.668272443   13.759196276   13.671770204
    1.334223706   13.689613575   13.780724942   13.691024235
    1.341402337   13.711147325   13.802448016   13.710444942
    1.348580968   13.732875395   13.824367214   13.730033665
    1.355759599   13.754799508   13.846484280   13.749791762
    1.362938230   13.776921416   13.868800983   13.769720613
    1.370116861   13.799242894   13.891319115   13.789821612
    1.377295492   13.821765744   13.914040498   13.810096177
    1.384474124   13.844491795   13.936966980   13.830545742
    1.391652755   13.867422903   13.960100435   13.851171762
    1.398831386   13.890560951   13.983442766   13.871975714
    1.406010017   13.913907850   14.006995904   13.892959092
    1.413188648   13.937465540   14.030761809   13.914123415
    1.420367279   13.961235990   14.054742470   13.935470219
    1.427545910   13.985221198   14.078939907   13.957001065
    1.434724541   14.009423193   14.103356169   13.978717534
    1.441903172   14.033844034   14.127993337   14.000621230
    1.449081803   14.058485812   14.152853523   14.022713779
    1.456260434   14.083350648   14.177938871   14.044996832
    1.463439065   14.108440698   14.203251558   14.067472061
    1.470617696   14.133758149   14.228793794   14.090141160
    1.477796327   14.159305222   14.254567825   14.113005841
    1.484974958   14.185084172   14.280575929   14.136067837
    1.492153589   14.211097289   14.306820419   14.159328933
    1.499332220   14.237346901   14.333303648   14.182790958
    1.506510851   14.263835368   14.360028000   14.206455727
    1.513689482   14.290565089   14.386995900   14.230325077
    1.520868114   14.317538501   14.414209810   14.254400878
    1.528046745   14.344758077   14.441672228   14.278685032
    1.535225376   14.372226329   14.469385693   14.303179469
    1.542404007   14.399945813   14.497352792   14.327886149
    1.549582638   14.427919126   14.525576146   14.352807059
    1.556761269   14.456148904   14.554058419   14.377944217
    1.563939900   14.484637824   14.582802314   14.403299670
    1.571118531   14.513388605   14.611810581   14.428875494
    1.578297162   14.542404011   14.641086013   14.454673798
    1.585475793   14.571686853   14.670631451   14.480696722
    1.592654424   14.601239986   14.700449779   14.506946437
    1.599833055   14.631066311   14.730543930   14.533425147
    1.607011686   14.661168777   14.760916885   14.560135092
    1.614190317   14.691550384   14.791571673   14.587078541
    1.621368948   14.722214179   14.822511376   14.614257802
    1.628547579   14.753163260   14.853739124   14.641675215
    1.635726210   14.784400778   14.885258102   14.669333158
    1.642904841   14.815929933   14.917071543   14.697234044
    1.650083472   14.847753973   14.949182736   14.725380325
    1.657262104   14.879876175   14.981595002   14.753774488
    1.664440735   14.912299829   15.014311685   14.782419061
    1.671619366   14.945028365   15.047336207   14.811316610
    1.678797997   14.978065420   15.080672179   14.840469744
    1.685976628   15.011414606   15.114323327   14.869881111
    1.693155259   15.045079474   15.148293270   14.899553400
    1.700333890   15.079063636   15.182585642   14.929489344
    1.707512521   15.113370800   15.217204184   14.959691718
    1.714691152   15.148004757   15.252152723   14.990163341
    1.721869783   15.182969367   15.287435161   15.020907078
    1.729048414   15.218268558   15.323055468   15.051925841
    1.736227045   15.253906327   15.359017685   15.083222587
    1.743405676   15.289886742   15.395325924   15.114800323
    1.750584307   15.326213945   15.431984372   15.146662103
    1.757762938   15.362892149   15.468997288   15.178811032
    1.764941569   15.399925646   15.506369010   15.211250266
    1.772120200   15.437318803   15.544103952   15.243983012
    1.779298831   15.475076067   15.582206611   15.277012530
    1.786477462   15.513201966   15.620681564   15.310342131
    1.793656093   15.551701111   15.659533472   15.343975173
    1.800834725   15.590578198   15.698767083   15.377915080
    1.808013356   15.629838012   15.738387232   15.412165362
    1.815191987   15.669485425   15.778398848   15.446729567
    1.822370618   15.709525399   15.818806944   15.481611275
    1.829549249   15.749962988   15.859616633   15.516814146
    1.836727880   15.790803345   15.900833121   15.552341934
    1.843906511   15.832051723   15.942461723   15.588198428
    1.851085142   15.873713477   15.984507848   15.624387476
    1.858263773   15.915794055   16.026977008   15.660912996
    1.865442404   15.958299015   16.069874821   15.697778979
    1.872621035   16.001234022   16.113207015   15.734989485
    1.879799666   16.044604852   16.156979430   15.772548649
    1.886978297   16.088417393   16.201198019   15.810460676
    1.894156928   16.132677652   16.245868856   15.848729845
    1.901335559   16.177391757   16.290998137   15.887360515
    1.908514190   16.222565954   16.336592177   15.926357120
    1.915692821   16.268206613   16.382657418   15.965724174
    1.922871452   16.314320234   16.429200432   16.005466274
    1.930050083   16.360913449   16.476227925   16.045588099
    1.937228715   16.407993025   16.523746740   16.086094415
    1.944407346   16.455565866   16.571763860   16.126990074
    1.951585977   16.503639023   16.620286411   16.168280018
    1.958764608   16.552219688   16.669321669   16.209969282
    1.965943239   16.601315205   16.718877061   16.252062993
    1.973121870   16.650933074   16.768960170   16.294566375
    1.980300501   16.701080950   16.819578738   16.337484750
    1.987479132   16.751766653   16.870740672   16.380823542
    1.994657763   16.802998167   16.922454047   16.424588275
    2.001836394   16.854783649   16.974727110   16.468784582
    2.009015025   16.907131425   17.027568286   16.513418203
    2.016193656   16.960050016   17.080986198   16.558494990
    2.023372287   17.013548132   17.134989649   16.604020907
    2.030550918   17.067634657   17.189587622   16.650002036
    2.037729549   17.122318658   17.244789290   16.696444579
    2.044908180   17.177609450   17.300604074   16.743354860
    2.052086811   17.233516594   17.357041646   16.790739330
    2.059265442   17.290049798   17.414111828   16.838604563
    2.066444073   17.347218978   17.471824650   16.886957264
    2.073622705   17.405034282   17.530190376   16.935804268
    2.080801336   17.463506106   17.589219515   16.985152573
    2.087979967   17.522645126   17.648922819   17.035009330
    2.095158598   17.582462134   17.709311036   17.085381751
    2.102337229   17.642967721   17.770394492   17.136277055
    2.109515860   17.704172248   17.832184117   17.187702601
    2.116694491   17.766087778   17.894693940   17.239666460
    2.123873122   17.828728893   17.957937405   17.292177058
    2.131051753   17.892108009   18.021926014   17.345242373
    2.138230384   17.956236574   18.086671730   17.398870388
    2.145409015   18.021127079   18.152187424   17.453069464
    2.152587646   18.086792640   18.218486429   17.507848199
    2.159766277   18.153246699   18.285582362   17.563215357
    2.166944908   18.220503077   18.353489208   17.619179902
    2.174123539   18.288575967   18.422221326   17.675751005
    2.181302170   18.357479929   18.491793443   17.732938037
    2.188480801   18.427229892   18.562220665   17.790750574
    2.195659432   18.497841172   18.633518486   17.849198419
    2.202838063   18.569329482   18.705702804   17.908291607
    2.210016694   18.641710946   18.778789931   17.968040390
    2.217195326   18.715002112   18.852796613   18.028455241
    2.224373957   18.789219971   18.927740041   18.089546875
    2.231552588   18.864381970   19.003637867   18.151326258
    2.238731219   18.940506027   19.080508224   18.213804615
    2.245909850   19.017610552   19.158369739   18.276993432
    2.253088481   19.095714461   19.237241556   18.340904467
    2.260267112   19.174837197   19.317143348   18.405549759
    2.267445743   19.254998741   19.398095339   18.470941634
    2.274624374   19.336219622   19.480118313   18.537092715
    2.281803005   19.418520893   19.563233601   18.604015927
    2.288981636   19.501924193   19.647463073   18.671724510
    2.296160267   19.586452083   19.732829402   18.740232044
    2.303338898   19.672127743   19.819356177   18.809552458
    2.310517529   19.758974662   19.907067268   18.879700008
    2.317696160   19.847017209   19.995987299   18.950689305
    2.324874791   19.936280605   20.086141774   19.022535336
    2.332053422   20.026790800   20.177556965   19.095253471
    2.339232053   20.118574589   20.270259991   19.168859478
    2.346410684   20.211659470   20.364278571   19.243369540
    2.353589316   20.306073958   20.459641577   19.318800262
    2.360767947   20.401847240   20.556378660   19.395168664
    2.367946578   20.499009286   20.654520051   19.472492182
    2.375125209   20.597590906   20.754096879   19.550788667
    2.382303840   20.697624313   20.855142198   19.630076618
    2.389482471   20.799143610   20.957690502   19.710375262
    2.396661102   20.902183358   21.061776329   19.791704102
    2.403839733   21.006778693   21.167435292   19.874083030
    2.411018364   21.112966239   21.274704525   19.957532548
    2.418196995   21.220783753   21.383622196   20.042073730
    2.425375626   21.330269972   21.494227524   20.127728215
    2.432554257   21.441465246   21.606561799   20.214518449
    2.439732888   21.554412665   21.720668548   20.302467729
    2.446911519   21.669156121   21.836591825   20.391599770
    2.454090150   21.785740588   21.954377219   20.481938855
    2.461268781   21.904213181   22.074072497   20.573510058
    2.468447412   22.024622160   22.195726549   20.666339242
    2.475626043   22.147017582   22.319390083   20.760453044
    2.482804674   22.271451485   22.445115837   20.855878837
    2.489983306   22.397977771   22.572958457   20.952644659
    2.497161937   22.526652833   22.702974797   21.050779660
    2.504340568   22.657536063   22.835224847   21.150314753
    2.511519199   22.790688388   22.969770633   21.251281281
    2.518697830   22.926172747   23.106675919   21.353711022
    2.525876461   23.064054724   23.246007115   21.457636867
    2.533055092   23.204402579   23.387833349   21.563092788
    2.540233723   23.347288015   23.532226946   21.670114408
