# energy grid [eV]     epsr_x  epsr_y  epsr_z
#
    0.200000000   11.115897131   11.290099565   13.325061304
    0.207178631   11.118204089   11.292619090   13.328108954
    0.214357262   11.120593926   11.295229349   13.331266325
    0.221535893   11.123066805   11.297930546   13.334533660
    0.228714524   11.125622895   11.300722892   13.337911211
    0.235893155   11.128262371   11.303606606   13.341399241
    0.243071786   11.130985416   11.306581917   13.344998022
    0.250250417   11.133792217   11.309649062   13.348707836
    0.257429048   11.136682969   11.312808284   13.352528977
    0.264607679   11.139657874   11.316059839   13.356461748
    0.271786311   11.142717138   11.319403990   13.360506465
    0.278964942   11.145860976   11.322841007   13.364663451
    0.286143573   11.149089610   11.326371174   13.368933045
    0.293322204   11.152403268   11.329994781   13.373315594
    0.300500835   11.155802185   11.333712129   13.377811460
    0.307679466   11.159286604   11.337523530   13.382421016
    0.314858097   11.162856773   11.341429304   13.387144645
    0.322036728   11.166512951   11.345429783   13.391982747
    0.329215359   11.170255401   11.349525311   13.396935732
    0.336393990   11.174084396   11.353716242   13.402004026
    0.343572621   11.178000215   11.358002940   13.407188067
    0.350751252   11.182003146   11.362385784   13.412488310
    0.357929883   11.186093486   11.366865162   13.417905221
    0.365108514   11.190271537   11.371441477   13.423439285
    0.372287145   11.194537614   11.376115143   13.429091002
    0.379465776   11.198892035   11.380886589   13.434860887
    0.386644407   11.203335132   11.385756257   13.440749474
    0.393823038   11.207867243   11.390724604   13.446757314
    0.401001669   11.212488716   11.395792101   13.452884976
    0.408180301   11.217199907   11.400959235   13.459133049
    0.415358932   11.222001185   11.406226509   13.465502141
    0.422537563   11.226892925   11.411594442   13.471992883
    0.429716194   11.231875515   11.417063572   13.478605924
    0.436894825   11.236949351   11.422634453   13.485341940
    0.444073456   11.242114841   11.428307660   13.492201627
    0.451252087   11.247372405   11.434083787   13.499185709
    0.458430718   11.252722471   11.439963448   13.506294935
    0.465609349   11.258165482   11.445947279   13.513530081
    0.472787980   11.263701891   11.452035941   13.520891952
    0.479966611   11.269332164   11.458230114   13.528381384
    0.487145242   11.275056780   11.464530509   13.535999247
    0.494323873   11.280876231   11.470937860   13.543746442
    0.501502504   11.286791022   11.477452930   13.551623908
    0.508681135   11.292801673   11.484076512   13.559632623
    0.515859766   11.298908718   11.490809430   13.567773603
    0.523038397   11.305112706   11.497652542   13.576047911
    0.530217028   11.311414204   11.504606740   13.584456654
    0.537395659   11.317813792   11.511672957   13.593000989
    0.544574290   11.324312070   11.518852164   13.601682126
    0.551752922   11.330909654   11.526145374   13.610501332
    0.558931553   11.337607180   11.533553649   13.619459934
    0.566110184   11.344405304   11.541078099   13.628559326
    0.573288815   11.351304700   11.548719886   13.637800971
    0.580467446   11.358306065   11.556480232   13.647186411
    0.587646077   11.365410120   11.564360420   13.656717269
    0.594824708   11.372617607   11.572361797   13.666395256
    0.602003339   11.379929295   11.580485786   13.676222185
    0.609181970   11.387345979   11.588733888   13.686199972
    0.616360601   11.394868482   11.597107688   13.696330650
    0.623539232   11.402497657   11.605608866   13.706616379
    0.630717863   11.410234387   11.614239203   13.717059460
    0.637896494   11.418079591   11.623000594   13.727662346
    0.645075125   11.426034223   11.631895055   13.738427660
    0.652253756   11.434099274   11.640924740   13.749358212
    0.659432387   11.442275777   11.650091953   13.760457019
    0.666611018   11.450564812   11.659399163   13.771727331
    0.673789649   11.458967502   11.668849025   13.783172653
    0.680968280   11.467485025   11.678444403   13.794796780
    0.688146912   11.476118614   11.688188388   13.806603828
    0.695325543   11.484869562   11.698084334   13.818598278
    0.702504174   11.493739231   11.708135886   13.830785022
    0.709682805   11.502729052   11.718347021   13.843169416
    0.716861436   11.511840540   11.728722089   13.855757346
    0.724040067   11.521075295   11.739265870   13.868555304
    0.731218698   11.530435017   11.749983632   13.881570472
    0.738397329   11.539921515   11.760881204   13.894810831
    0.745575960   11.549536718   11.771965066   13.908285286
    0.752754591   11.559282694   11.783242448   13.922003811
    0.759933222   11.569161666   11.794721456   13.935977631
    0.767111853   11.579176030   11.806411225   13.950219439
    0.774290484   11.589328386   11.818322096   13.964743659
    0.781469115   11.599621563   11.830465844   13.979566768
    0.788647746   11.610058658   11.842855953   13.994707697
    0.795826377   11.620643079   11.855507956   14.010188320
    0.803005008   11.631378602   11.868439865   14.026034077
    0.810183639   11.642269434   11.881672707   14.042274754
    0.817362270   11.653320302   11.895231214   14.058945473
    0.824540902   11.664536557   11.909144703   14.076087971
    0.831719533   11.675924311   11.923448219   14.093752252
    0.838898164   11.687490614   11.938184032   14.111998760
    0.846076795   11.699243681   11.953403626   14.130901250
    0.853255426   11.711193203   11.969170358   14.150550644
    0.860434057   11.723350746   11.985563071   14.171060264
    0.867612688   11.735730316   12.002681057   14.192573014
    0.874791319   11.748349112   12.020650944   14.215271360
    0.881969950   11.761228595   12.039636364   14.239391332
    0.889148581   11.774395970   12.059851598   14.265242279
    0.896327212   11.787886262   12.081580765   14.293234663
    0.903505843   11.801745157   12.105204154   14.323918196
    0.910684474   11.816032584   12.131231475   14.358029995
    0.917863105   11.830826054   12.160332485   14.396538943
    0.925041736   11.846218804   12.193317167   14.440617030
    0.932220367   11.862292064   12.230866344   14.491249381
    0.939398998   11.878978271   12.272211929   14.547323652
    0.946577629   11.895493871   12.309673468   14.597720341
    0.953756260   11.908430957   12.310284573   14.594712441
    0.960934891   11.909952903   12.198418541   14.428811712
    0.968113523   11.903118803   12.003277110   14.142296802
    0.975292154   11.907646325   11.914344882   14.009498098
    0.982470785   11.922986238   11.925960764   14.022223912
    0.989649416   11.941754698   11.966578479   14.076898938
    0.996828047   11.961222927   12.009318756   14.134617882
    1.004006678   11.980871089   12.048373848   14.186986202
    1.011185309   12.000776139   12.083420352   14.233555415
    1.018363940   12.021165060   12.115231858   14.275473470
    1.025542571   12.042314871   12.144640849   14.313983685
    1.032721202   12.064523655   12.172335894   14.350128903
    1.039899833   12.088024592   12.198841517   14.384700538
    1.047078464   12.112580029   12.224477206   14.418075700
    1.054257095   12.135808862   12.249088077   14.449404171
    1.061435726   12.147761978   12.271092665   14.473860559
    1.068614357   12.127747229   12.286929156   14.481040726
    1.075792988   12.089620174   12.299226241   14.478213154
    1.082971619   12.083200500   12.317067692   14.491058054
    1.090150250   12.102351348   12.339442565   14.516522040
    1.097328881   12.128630728   12.363113166   14.545216895
    1.104507513   12.155624012   12.387002300   14.573906081
    1.111686144   12.182054307   12.410956240   14.601973279
    1.118864775   12.207958596   12.435059792   14.629462481
    1.126043406   12.233641812   12.459451995   14.656542140
    1.133222037   12.259437171   12.484287750   14.683381936
    1.140400668   12.285669059   12.509737173   14.710132393
    1.147579299   12.312666005   12.535995908   14.736928900
    1.154757930   12.340787092   12.563300654   14.763901007
    1.161936561   12.370454202   12.591949341   14.791182770
    1.169115192   12.402187800   12.622325158   14.818923201
    1.176293823   12.436636010   12.654916517   14.847294550
    1.183472454   12.474547589   12.690294833   14.876487296
    1.190651085   12.516483410   12.728892424   14.906645132
    1.197829716   12.561440924   12.769947353   14.937551766
    1.205008347   12.601252494   12.807207956   14.967353753
    1.212186978   12.602879935   12.815356146   14.988522942
    1.219365609   12.501942980   12.745045861   14.986380438
    1.226544240   12.352466584   12.637736985   14.973244214
    1.233722871   12.305307030   12.609154206   14.983508434
    1.240901503   12.333938839   12.639013171   15.011110721
    1.248080134   12.382789774   12.684774603   15.043356243
    1.255258765   12.433340219   12.732337412   15.075988639
    1.262437396   12.482142764   12.779184993   15.108177061
    1.269616027   12.529516795   12.825695335   15.139947683
    1.276794658   12.576178993   12.872439623   15.171469258
    1.283973289   12.621135515   12.918054581   15.202806125
    1.291151920   12.656293493   12.953187518   15.233567226
    1.298330551   12.655021213   12.947539324   15.262207286
    1.305509182   12.598740715   12.879970959   15.287659285
    1.312687813   12.560443765   12.833077136   15.314449936
    1.319866444   12.576657071   12.848179357   15.344869372
    1.327045075   12.615059460   12.888648225   15.376993153
    1.334223706   12.657180065   12.933558267   15.409745819
    1.341402337   12.698347210   12.977630392   15.442900987
    1.348580968   12.738000277   13.020262430   15.476492165
    1.355759599   12.776494603   13.061915526   15.510621732
    1.362938230   12.814310827   13.103226715   15.545418426
    1.370116861   12.851888595   13.144832632   15.581035052
    1.377295492   12.889611272   13.187368904   15.617657905
    1.384474124   12.927823778   13.231509983   15.655519945
    1.391652755   12.966854885   13.278004295   15.694909746
    1.398831386   13.007036670   13.327640455   15.736147559
    1.406010017   13.048714231   13.380909325   15.779412982
    1.413188648   13.092218685   13.436424745   15.823962997
    1.420367279   13.137700536   13.484676077   15.865055023
    1.427545910   13.184636442   13.490932647   15.885536167
    1.434724541   13.232287981   13.408763250   15.862481494
    1.441903172   13.284148515   13.322780406   15.837357785
    1.449081803   13.344363913   13.329741408   15.857559267
    1.456260434   13.413187768   13.387912224   15.902342223
    1.463439065   13.491432396   13.460476987   15.953333169
    1.470617696   13.580894239   13.537410331   16.005380033
    1.477796327   13.682241466   13.616730294   16.057818387
    1.484974958   13.787908493   13.693240702   16.110945926
    1.492153589   13.857076571   13.741234393   16.164635806
    1.499332220   13.774232767   13.689827835   16.217104276
    1.506510851   13.500574534   13.529285785   16.266631876
    1.513689482   13.244922999   13.439477697   16.312337600
    1.520868114   13.005499475   13.446333369   16.349844577
    1.528046745   12.885568226   13.498182310   16.386348068
    1.535225376   12.901609187   13.562604465   16.398093829
    1.542404007   12.908598146   13.591747889   16.343268183
    1.549582638   12.914827342   13.556697786   16.294798832
    1.556761269   12.976606549   13.529558111   16.318889694
    1.563939900   13.070478642   13.563823838   16.379521997
    1.571118531   13.169167513   13.625569291   16.448722431
    1.578297162   13.264494171   13.691364047   16.518721938
    1.585475793   13.356499065   13.755232959   16.588656670
    1.592654424   13.446853841   13.816668637   16.659396462
    1.599833055   13.535649784   13.876329514   16.732231704
    1.607011686   13.615225352   13.934815489   16.808580088
    1.614190317   13.655073513   13.992013878   16.889835696
    1.621368948   13.619929795   14.047618586   16.977372124
    1.628547579   13.591960611   14.104728843   17.072602562
    1.635726210   13.642987756   14.165917475   17.171184021
    1.642904841   13.723828501   14.229215301   17.244271291
    1.650083472   13.771385641   14.289471621   17.198577798
    1.657262104   13.750242264   14.343217549   16.957017444
    1.664440735   13.751354615   14.405389969   16.769630213
    1.671619366   13.828963955   14.484099730   16.785513576
    1.678797997   13.933103535   14.566611249   16.886549656
    1.685976628   14.005512497   14.624414358   16.987443112
    1.693155259   14.004878120   14.630595661   17.053541079
    1.700333890   14.000975611   14.638979896   17.111837357
    1.707512521   13.982614184   14.642235984   17.149285226
    1.714691152   13.776215773   14.508814140   17.072883853
    1.721869783   13.496277503   14.307413117   16.950463385
    1.729048414   13.434155555   14.219445010   16.946254507
    1.736227045   13.516096691   14.206103367   17.020317659
    1.743405676   13.633150377   14.264962506   17.117630040
    1.750584307   13.750459984   14.365392650   17.218091766
    1.757762938   13.859901968   14.471521080   17.314168462
    1.764941569   13.954197706   14.563373448   17.398372374
    1.772120200   14.016205734   14.617071238   17.455050503
    1.779298831   14.052127040   14.642533149   17.489972400
    1.786477462   14.098282524   14.696353400   17.538551929
    1.793656093   14.128597788   14.764918299   17.587264866
    1.800834725   14.129057994   14.794477465   17.627143518
    1.808013356   14.126088014   14.758116200   17.673872916
    1.815191987   14.157497270   14.746911723   17.736315765
    1.822370618   14.228047812   14.803190940   17.812863550
    1.829549249   14.296251340   14.875834526   17.892233480
    1.836727880   14.320316744   14.922481709   17.966812080
    1.843906511   14.319318638   14.950869543   18.038008057
    1.851085142   14.359364449   15.000289106   18.111609659
    1.858263773   14.428122317   15.056782510   18.182601971
    1.865442404   14.504440430   15.114896308   18.253859559
    1.872621035   14.583549719   15.185728664   18.330942220
    1.879799666   14.653334390   15.261842175   18.398207690
    1.886978297   14.693323230   15.334383656   18.426316507
    1.894156928   14.716788771   15.404521077   18.432321208
    1.901335559   14.769979758   15.480598767   18.478650558
    1.908514190   14.847879862   15.562450169   18.557452340
    1.915692821   14.934354151   15.647768658   18.645862523
    1.922871452   15.023199726   15.734486249   18.735912063
    1.930050083   15.108511321   15.814716193   18.825224383
    1.937228715   15.175063992   15.865323536   18.911190197
    1.944407346   15.217868006   15.879579159   18.993785053
    1.951585977   15.281666768   15.922503596   19.081722561
    1.958764608   15.379307424   16.010878012   19.177373683
    1.965943239   15.480377103   16.108269709   19.276614039
    1.973121870   15.544676797   16.175087122   19.373209292
    1.980300501   15.542923689   16.179643329   19.455024228
    1.987479132   15.416163183   16.102043833   19.503364863
    1.994657763   15.213943611   16.018193104   19.539819489
    2.001836394   15.172457450   16.046998967   19.621022471
    2.009015025   15.263965413   16.149748679   19.738214216
    2.016193656   15.391818662   16.268228021   19.864702861
    2.023372287   15.512684628   16.368697592   19.973331488
    2.030550918   15.588688771   16.413853302   20.024103583
    2.037729549   15.597137607   16.404156975   20.020281787
    2.044908180   15.617124900   16.424001345   20.032894451
    2.052086811   15.686597860   16.498778040   20.068061860
    2.059265442   15.783875941   16.597263238   20.139531659
    2.066444073   15.887075618   16.696300662   20.230584689
    2.073622705   15.974294956   16.781405700   20.287060656
    2.080801336   16.052270437   16.867660372   20.347143624
    2.087979967   16.095417687   16.956736592   20.395540712
    2.095158598   16.087509119   17.044654308   20.401602868
    2.102337229   16.061540174   17.136751918   20.420926541
    2.109515860   16.048636197   17.233681115   20.475376334
    2.116694491   16.112093274   17.345794807   20.591099764
    2.123873122   16.221424962   17.463971584   20.740327436
    2.131051753   16.329040893   17.562773200   20.890543483
    2.138230384   16.409941640   17.617710971   21.025343873
    2.145409015   16.487302028   17.676824832   21.157366926
    2.152587646   16.591448977   17.791891489   21.308455410
    2.159766277   16.711838731   17.942304273   21.474410355
    2.166944908   16.837594240   18.108387816   21.649631143
    2.174123539   16.963083154   18.278538542   21.831516188
    2.181302170   17.077141538   18.425721149   22.012056349
    2.188480801   17.167400533   18.505407894   22.177704809
    2.195659432   17.244690060   18.481945848   22.313713948
    2.202838063   17.296756525   18.297301170   22.335713558
    2.210016694   17.336751379   18.119023021   22.206604739
    2.217195326   17.418375915   18.120101243   22.145839496
    2.224373957   17.550711503   18.265097767   22.269357193
    2.231552588   17.695979883   18.442971290   22.450136832
    2.238731219   17.819170452   18.593864638   22.556534243
    2.245909850   17.925573271   18.734111657   22.586303471
    2.253088481   18.024807142   18.880353930   22.665307972
    2.260267112   18.041714277   18.961727642   22.771887089
    2.267445743   18.001303275   18.959390779   22.838152188
    2.274624374   18.054703451   18.991071113   22.949036005
    2.281803005   18.189230352   19.055278467   23.096673274
    2.288981636   18.343271430   19.069284206   23.205188545
    2.296160267   18.540518872   19.122199715   23.349444894
    2.303338898   18.773055397   19.234219425   23.544293264
    2.310517529   18.974519791   19.398083443   23.755069944
    2.317696160   18.987790556   19.576090817   23.942378999
    2.324874791   18.648159395   19.679339174   24.039720133
    2.332053422   18.273551621   19.715556508   24.082332981
    2.339232053   18.210921766   19.743490504   24.107923003
    2.346410684   18.378999061   19.852727189   24.216303866
    2.353589316   18.638062231   20.065428511   24.466795993
    2.360767947   18.910042592   20.291716104   24.755315415
    2.367946578   19.156428236   20.490630711   25.027439852
    2.375125209   19.378226195   20.643192623   25.271066467
    2.382303840   19.610856597   20.764633268   25.500105366
    2.389482471   19.863184801   20.919910352   25.759682211
    2.396661102   20.128921017   21.070939077   25.997595470
    2.403839733   20.399086660   21.166815016   26.079327919
    2.411018364   20.665441694   21.073549923   25.744064051
    2.418196995   20.996095760   20.928635492   25.296574615
    2.425375626   21.376539120   21.054821980   25.344653403
    2.432554257   21.625886628   21.314097732   25.668602222
    2.439732888   21.552915373   21.514837990   25.948030206
    2.446911519   21.349938854   21.682005068   26.154887449
    2.454090150   20.959026634   21.819569251   26.321839706
    2.461268781   20.071854110   21.805879236   26.382050414
    2.468447412   19.547445396   21.833666055   26.564060184
    2.475626043   19.645567069   22.012789457   26.914524731
    2.482804674   19.912591332   22.193196743   27.254085357
    2.489983306   20.325473772   22.403960175   27.533387219
    2.497161937   20.842389245   22.636187731   27.711268012
    2.504340568   21.363789118   22.829924809   27.785647119
    2.511519199   21.899874953   23.051907857   27.853596490
    2.518697830   22.489229545   23.368969366   28.086073996
    2.525876461   22.781278442   23.619109265   28.242363684
    2.533055092   21.874061958   23.625206164   28.170517539
    2.540233723   19.472927625   23.377866947   27.975245576
