# energy grid [eV]     ieps_x  ieps_y  ieps_z
#
    0.200000000    8.456351425    5.949672282    7.090894750
    0.207178631    8.454513632    5.948522740    7.089430939
    0.214357262    8.452612161    5.947333410    7.087916386
    0.221535893    8.450647126    5.946104369    7.086351180
    0.228714524    8.448618647    5.944835695    7.084735412
    0.235893155    8.446526845    5.943527468    7.083069179
    0.243071786    8.444371846    5.942179771    7.081352578
    0.250250417    8.442153780    5.940792689    7.079585709
    0.257429048    8.439872780    5.939366310    7.077768676
    0.264607679    8.437528981    5.937900723    7.075901585
    0.271786311    8.435122525    5.936396019    7.073984545
    0.278964942    8.432653554    5.934852293    7.072017668
    0.286143573    8.430122214    5.933269641    7.070001067
    0.293322204    8.427528657    5.931648161    7.067934859
    0.300500835    8.424873034    5.929987952    7.065819165
    0.307679466    8.422155504    5.928289117    7.063654105
    0.314858097    8.419376226    5.926551761    7.061439805
    0.322036728    8.416535364    5.924775990    7.059176392
    0.329215359    8.413633083    5.922961911    7.056863996
    0.336393990    8.410669553    5.921109635    7.054502748
    0.343572621    8.407644948    5.919219273    7.052092784
    0.350751252    8.404559443    5.917290941    7.049634240
    0.357929883    8.401413217    5.915324752    7.047127257
    0.365108514    8.398206453    5.913320826    7.044571975
    0.372287145    8.394939334    5.911279282    7.041968541
    0.379465776    8.391612050    5.909200239    7.039317099
    0.386644407    8.388224790    5.907083822    7.036617800
    0.393823038    8.384777750    5.904930155    7.033870795
    0.401001669    8.381271125    5.902739364    7.031076237
    0.408180301    8.377705115    5.900511578    7.028234282
    0.415358932    8.374079923    5.898246924    7.025345088
    0.422537563    8.370395754    5.895945536    7.022408815
    0.429716194    8.366652814    5.893607544    7.019425626
    0.436894825    8.362851316    5.891233084    7.016395685
    0.444073456    8.358991471    5.888822292    7.013319159
    0.451252087    8.355073497    5.886375304    7.010196217
    0.458430718    8.351097610    5.883892258    7.007027029
    0.465609349    8.347064032    5.881373297    7.003811768
    0.472787980    8.342972986    5.878818560    7.000550609
    0.479966611    8.338824699    5.876228190    6.997243729
    0.487145242    8.334619398    5.873602332    6.993891306
    0.494323873    8.330357313    5.870941132    6.990493521
    0.501502504    8.326038679    5.868244736    6.987050556
    0.508681135    8.321663730    5.865513292    6.983562596
    0.515859766    8.317232704    5.862746950    6.980029826
    0.523038397    8.312745841    5.859945860    6.976452435
    0.530217028    8.308203383    5.857110174    6.972830613
    0.537395659    8.303605574    5.854240045    6.969164551
    0.544574290    8.298952660    5.851335627    6.965454442
    0.551752922    8.294244890    5.848397075    6.961700480
    0.558931553    8.289482515    5.845424546    6.957902863
    0.566110184    8.284665787    5.842418196    6.954061788
    0.573288815    8.279794960    5.839378185    6.950177456
    0.580467446    8.274870292    5.836304671    6.946250067
    0.587646077    8.269892040    5.833197815    6.942279825
    0.594824708    8.264860465    5.830057779    6.938266933
    0.602003339    8.259775829    5.826884725    6.934211598
    0.609181970    8.254638397    5.823678816    6.930114026
    0.616360601    8.249448433    5.820440216    6.925974428
    0.623539232    8.244206205    5.817169091    6.921793012
    0.630717863    8.238911983    5.813865606    6.917569990
    0.637896494    8.233566037    5.810529928    6.913305575
    0.645075125    8.228168641    5.807162225    6.908999982
    0.652253756    8.222720068    5.803762665    6.904653426
    0.659432387    8.217220593    5.800331418    6.900266123
    0.666611018    8.211670494    5.796868652    6.895838292
    0.673789649    8.206070051    5.793374540    6.891370151
    0.680968280    8.200419542    5.789849252    6.886861922
    0.688146912    8.194719250    5.786292961    6.882313825
    0.695325543    8.188969458    5.782705839    6.877726084
    0.702504174    8.183170450    5.779088060    6.873098922
    0.709682805    8.177322512    5.775439798    6.868432565
    0.716861436    8.171425931    5.771761227    6.863727237
    0.724040067    8.165480995    5.768052523    6.858983167
    0.731218698    8.159487994    5.764313862    6.854200581
    0.738397329    8.153447218    5.760545420    6.849379709
    0.745575960    8.147358960    5.756747374    6.844520782
    0.752754591    8.141223512    5.752919902    6.839624028
    0.759933222    8.135041169    5.749063182    6.834689682
    0.767111853    8.128812226    5.745177392    6.829717974
    0.774290484    8.122536979    5.741262712    6.824709139
    0.781469115    8.116215726    5.737319321    6.819663410
    0.788647746    8.109848764    5.733347399    6.814581023
    0.795826377    8.103436394    5.729347126    6.809462213
    0.803005008    8.096978914    5.725318683    6.804307218
    0.810183639    8.090476627    5.721262252    6.799116274
    0.817362270    8.083929833    5.717178013    6.793889620
    0.824540902    8.077338836    5.713066149    6.788627494
    0.831719533    8.070703939    5.708926842    6.783330135
    0.838898164    8.064025447    5.704760275    6.777997783
    0.846076795    8.057303664    5.700566630    6.772630680
    0.853255426    8.050538896    5.696346091    6.767229065
    0.860434057    8.043731449    5.692098841    6.761793182
    0.867612688    8.036881631    5.687825065    6.756323271
    0.874791319    8.029989749    5.683524946    6.750819576
    0.881969950    8.023056111    5.679198668    6.745282340
    0.889148581    8.016081026    5.674846416    6.739711806
    0.896327212    8.009064803    5.670468375    6.734108219
    0.903505843    8.002007753    5.666064730    6.728471824
    0.910684474    7.994910185    5.661635665    6.722802864
    0.917863105    7.987772410    5.657181367    6.717101586
    0.925041736    7.980594739    5.652702020    6.711368235
    0.932220367    7.973377484    5.648197811    6.705603057
    0.939398998    7.966120957    5.643668924    6.699806299
    0.946577629    7.958825470    5.639115547    6.693978206
    0.953756260    7.951491336    5.634537864    6.688119026
    0.960934891    7.944118866    5.629936062    6.682229005
    0.968113523    7.936708376    5.625310327    6.676308392
    0.975292154    7.929260177    5.620660845    6.670357433
    0.982470785    7.921774583    5.615987803    6.664376377
    0.989649416    7.914251908    5.611291387    6.658365470
    0.996828047    7.906692466    5.606571783    6.652324961
    1.004006678    7.899096571    5.601829177    6.646255098
    1.011185309    7.891464537    5.597063756    6.640156129
    1.018363940    7.883796677    5.592275707    6.634028303
    1.025542571    7.876093307    5.587465215    6.627871867
    1.032721202    7.868354741    5.582632467    6.621687070
    1.039899833    7.860581292    5.577777649    6.615474160
    1.047078464    7.852773276    5.572900948    6.609233386
    1.054257095    7.844931005    5.568002549    6.602964996
    1.061435726    7.837054795    5.563082639    6.596669238
    1.068614357    7.829144959    5.558141403    6.590346360
    1.075792988    7.821201811    5.553179028    6.583996611
    1.082971619    7.813225666    5.548195699    6.577620238
    1.090150250    7.805216836    5.543191602    6.571217490
    1.097328881    7.797175635    5.538166923    6.564788615
    1.104507513    7.789102376    5.533121847    6.558333859
    1.111686144    7.780997372    5.528056559    6.551853470
    1.118864775    7.772860936    5.522971243    6.545347697
    1.126043406    7.764693381    5.517866086    6.538816784
    1.133222037    7.756495018    5.512741272    6.532260981
    1.140400668    7.748266160    5.507596985    6.525680532
    1.147579299    7.740007117    5.502433410    6.519075686
    1.154757930    7.731718202    5.497250730    6.512446686
    1.161936561    7.723399725    5.492049130    6.505793781
    1.169115192    7.715051996    5.486828794    6.499117214
    1.176293823    7.706675325    5.481589903    6.492417231
    1.183472454    7.698270021    5.476332643    6.485694078
    1.190651085    7.689836395    5.471057195    6.478947997
    1.197829716    7.681374754    5.465763742    6.472179234
    1.205008347    7.672885406    5.460452467    6.465388033
    1.212186978    7.664368660    5.455123551    6.458574636
    1.219365609    7.655824822    5.449777177    6.451739287
    1.226544240    7.647254198    5.444413525    6.444882228
    1.233722871    7.638657094    5.439032777    6.438003701
    1.240901503    7.630033817    5.433635113    6.431103947
    1.248080134    7.621384669    5.428220715    6.424183209
    1.255258765    7.612709957    5.422789761    6.417241726
    1.262437396    7.604009982    5.417342432    6.410279738
    1.269616027    7.595285048    5.411878906    6.403297486
    1.276794658    7.586535457    5.406399364    6.396295209
    1.283973289    7.577761510    5.400903983    6.389273144
    1.291151920    7.568963508    5.395392943    6.382231530
    1.298330551    7.560141751    5.389866419    6.375170604
    1.305509182    7.551296538    5.384324591    6.368090604
    1.312687813    7.542428167    5.378767634    6.360991765
    1.319866444    7.533536937    5.373195727    6.353874324
    1.327045075    7.524623143    5.367609043    6.346738514
    1.334223706    7.515687083    5.362007760    6.339584572
    1.341402337    7.506729051    5.356392053    6.332412730
    1.348580968    7.497749342    5.350762096    6.325223221
    1.355759599    7.488748249    5.345118064    6.318016279
    1.362938230    7.479726064    5.339460130    6.310792135
    1.370116861    7.470683081    5.333788469    6.303551019
    1.377295492    7.461619589    5.328103252    6.296293163
    1.384474124    7.452535879    5.322404652    6.289018796
    1.391652755    7.443432240    5.316692842    6.281728148
    1.398831386    7.434308959    5.310967993    6.274421445
    1.406010017    7.425166324    5.305230275    6.267098917
    1.413188648    7.416004622    5.299479859    6.259760789
    1.420367279    7.406824137    5.293716914    6.252407288
    1.427545910    7.397625154    5.287941611    6.245038640
    1.434724541    7.388407955    5.282154118    6.237655067
    1.441903172    7.379172824    5.276354604    6.230256795
    1.449081803    7.369920042    5.270543235    6.222844046
    1.456260434    7.360649887    5.264720179    6.215417042
    1.463439065    7.351362641    5.258885603    6.207976004
    1.470617696    7.342058581    5.253039673    6.200521153
    1.477796327    7.332737983    5.247182554    6.193052709
    1.484974958    7.323401125    5.241314412    6.185570890
    1.492153589    7.314048279    5.235435409    6.178075914
    1.499332220    7.304679722    5.229545711    6.170567999
    1.506510851    7.295295724    5.223645480    6.163047360
    1.513689482    7.285896558    5.217734879    6.155514213
    1.520868114    7.276482494    5.211814070    6.147968772
    1.528046745    7.267053801    5.205883213    6.140411251
    1.535225376    7.257610747    5.199942470    6.132841862
    1.542404007    7.248153600    5.193992001    6.125260818
    1.549582638    7.238682624    5.188031965    6.117668329
    1.556761269    7.229198085    5.182062521    6.110064605
    1.563939900    7.219700247    5.176083828    6.102449856
    1.571118531    7.210189370    5.170096042    6.094824288
    1.578297162    7.200665717    5.164099320    6.087188110
    1.585475793    7.191129547    5.158093819    6.079541528
    1.592654424    7.181581119    5.152079695    6.071884747
    1.599833055    7.172020690    5.146057102    6.064217971
    1.607011686    7.162448516    5.140026195    6.056541404
    1.614190317    7.152864852    5.133987127    6.048855249
    1.621368948    7.143269952    5.127940051    6.041159705
    1.628547579    7.133664069    5.121885120    6.033454975
    1.635726210    7.124047453    5.115822484    6.025741258
    1.642904841    7.114420355    5.109752296    6.018018752
    1.650083472    7.104783023    5.103674705    6.010287654
    1.657262104    7.095135704    5.097589860    6.002548161
    1.664440735    7.085478645    5.091497911    5.994800470
    1.671619366    7.075812091    5.085399006    5.987044773
    1.678797997    7.066136284    5.079293291    5.979281266
    1.685976628    7.056451467    5.073180915    5.971510140
    1.693155259    7.046757882    5.067062023    5.963731586
    1.700333890    7.037055767    5.060936759    5.955945796
    1.707512521    7.027345362    5.054805270    5.948152959
    1.714691152    7.017626902    5.048667699    5.940353264
    1.721869783    7.007900624    5.042524188    5.932546897
    1.729048414    6.998166763    5.036374881    5.924734046
    1.736227045    6.988425550    5.030219920    5.916914895
    1.743405676    6.978677218    5.024059445    5.909089628
    1.750584307    6.968921998    5.017893596    5.901258431
    1.757762938    6.959160118    5.011722514    5.893421483
    1.764941569    6.949391806    5.005546337    5.885578967
    1.772120200    6.939617288    4.999365203    5.877731063
    1.779298831    6.929836789    4.993179249    5.869877951
    1.786477462    6.920050534    4.986988613    5.862019807
    1.793656093    6.910258744    4.980793430    5.854156809
    1.800834725    6.900461640    4.974593836    5.846289133
    1.808013356    6.890659442    4.968389964    5.838416954
    1.815191987    6.880852369    4.962181949    5.830540446
    1.822370618    6.871040636    4.955969924    5.822659781
    1.829549249    6.861224460    4.949754020    5.814775132
    1.836727880    6.851404055    4.943534369    5.806886669
    1.843906511    6.841579634    4.937311102    5.798994561
    1.851085142    6.831751407    4.931084349    5.791098978
    1.858263773    6.821919586    4.924854240    5.783200086
    1.865442404    6.812084378    4.918620901    5.775298051
    1.872621035    6.802245992    4.912384462    5.767393041
    1.879799666    6.792404632    4.906145049    5.759485218
    1.886978297    6.782560505    4.899902788    5.751574745
    1.894156928    6.772713812    4.893657805    5.743661786
    1.901335559    6.762864756    4.887410225    5.735746500
    1.908514190    6.753013537    4.881160171    5.727829049
    1.915692821    6.743160355    4.874907767    5.719909590
    1.922871452    6.733305407    4.868653134    5.711988283
    1.930050083    6.723448890    4.862396395    5.704065282
    1.937228715    6.713590998    4.856137671    5.696140746
    1.944407346    6.703731925    4.849877082    5.688214827
    1.951585977    6.693871864    4.843614746    5.680287679
    1.958764608    6.684011005    4.837350783    5.672359456
    1.965943239    6.674149538    4.831085310    5.664430308
    1.973121870    6.664287651    4.824818445    5.656500386
    1.980300501    6.654425531    4.818550304    5.648569839
    1.987479132    6.644563363    4.812281003    5.640638816
    1.994657763    6.634701331    4.806010655    5.632707463
    2.001836394    6.624839619    4.799739376    5.624775927
    2.009015025    6.614978407    4.793467279    5.616844352
    2.016193656    6.605117875    4.787194476    5.608912884
    2.023372287    6.595258203    4.780921078    5.600981664
    2.030550918    6.585399566    4.774647197    5.593050834
    2.037729549    6.575542142    4.768372944    5.585120537
    2.044908180    6.565686104    4.762098427    5.577190910
    2.052086811    6.555831627    4.755823755    5.569262093
    2.059265442    6.545978881    4.749549037    5.561334224
    2.066444073    6.536128038    4.743274380    5.553407438
    2.073622705    6.526279266    4.736999889    5.545481873
    2.080801336    6.516432734    4.730725671    5.537557662
    2.087979967    6.506588608    4.724451830    5.529634938
    2.095158598    6.496747052    4.718178472    5.521713834
    2.102337229    6.486908232    4.711905698    5.513794482
    2.109515860    6.477072309    4.705633613    5.505877012
    2.116694491    6.467239445    4.699362318    5.497961553
    2.123873122    6.457409799    4.693091914    5.490048233
    2.131051753    6.447583530    4.686822501    5.482137179
    2.138230384    6.437760795    4.680554179    5.474228519
    2.145409015    6.427941750    4.674287048    5.466322376
    2.152587646    6.418126550    4.668021205    5.458418876
    2.159766277    6.408315348    4.661756749    5.450518140
    2.166944908    6.398508296    4.655493774    5.442620292
    2.174123539    6.388705544    4.649232379    5.434725453
    2.181302170    6.378907243    4.642972657    5.426833741
    2.188480801    6.369113539    4.636714703    5.418945278
    2.195659432    6.359324581    4.630458612    5.411060180
    2.202838063    6.349540513    4.624204476    5.403178565
    2.210016694    6.339761479    4.617952387    5.395300548
    2.217195326    6.329987623    4.611702438    5.387426245
    2.224373957    6.320219087    4.605454718    5.379555770
    2.231552588    6.310456010    4.599209318    5.371689235
    2.238731219    6.300698532    4.592966328    5.363826754
    2.245909850    6.290946790    4.586725836    5.355968436
    2.253088481    6.281200922    4.580487930    5.348114392
    2.260267112    6.271461063    4.574252697    5.340264732
    2.267445743    6.261727346    4.568020224    5.332419563
    2.274624374    6.251999905    4.561790596    5.324578992
    2.281803005    6.242278872    4.555563899    5.316743125
    2.288981636    6.232564376    4.549340217    5.308912069
    2.296160267    6.222856547    4.543119634    5.301085926
    2.303338898    6.213155513    4.536902232    5.293264801
    2.310517529    6.203461401    4.530688094    5.285448795
    2.317696160    6.193774336    4.524477302    5.277638011
    2.324874791    6.184094442    4.518269936    5.269832548
    2.332053422    6.174421843    4.512066076    5.262032505
    2.339232053    6.164756661    4.505865802    5.254237982
    2.346410684    6.155099015    4.499669192    5.246449077
    2.353589316    6.145449026    4.493476326    5.238665885
    2.360767947    6.135806813    4.487287279    5.230888502
    2.367946578    6.126172491    4.481102129    5.223117023
    2.375125209    6.116546177    4.474920951    5.215351543
    2.382303840    6.106927986    4.468743821    5.207592154
    2.389482471    6.097318032    4.462570814    5.199838947
    2.396661102    6.087716427    4.456402004    5.192092015
    2.403839733    6.078123282    4.450237463    5.184351448
    2.411018364    6.068538707    4.444077265    5.176617334
    2.418196995    6.058962812    4.437921481    5.168889762
    2.425375626    6.049395704    4.431770182    5.161168820
    2.432554257    6.039837491    4.425623440    5.153454595
    2.439732888    6.030288277    4.419481324    5.145747171
    2.446911519    6.020748167    4.413343903    5.138046634
    2.454090150    6.011217264    4.407211247    5.130353069
    2.461268781    6.001695672    4.401083422    5.122666557
    2.468447412    5.992183490    4.394960496    5.114987182
    2.475626043    5.982680820    4.388842537    5.107315024
    2.482804674    5.973187759    4.382729609    5.099650164
    2.489983306    5.963704406    4.376621779    5.091992682
    2.497161937    5.954230858    4.370519111    5.084342657
    2.504340568    5.944767210    4.364421669    5.076700166
    2.511519199    5.935313557    4.358329517    5.069065287
    2.518697830    5.925869992    4.352242717    5.061438095
    2.525876461    5.916436609    4.346161331    5.053818667
    2.533055092    5.907013498    4.340085422    5.046207077
    2.540233723    5.897600749    4.334015050    5.038603398
