# energy grid [eV]     epsr_x  epsr_y  epsr_z
#
    0.200000000   17.711487366   15.420361486   17.475892576
    0.207178631   17.715819713   15.423924622   17.480118935
    0.214357262   17.720307352   15.427615391   17.484496753
    0.221535893   17.724950547   15.431434001   17.489026285
    0.228714524   17.729749575   15.435380669   17.493707796
    0.235893155   17.734704720   15.439455620   17.498541559
    0.243071786   17.739816277   15.443659086   17.503527857
    0.250250417   17.745084547   15.447991304   17.508666983
    0.257429048   17.750509846   15.452452523   17.513959238
    0.264607679   17.756092497   15.457042997   17.519404933
    0.271786311   17.761832831   15.461762988   17.525004387
    0.278964942   17.767731193   15.466612765   17.530757931
    0.286143573   17.773787934   15.471592607   17.536665903
    0.293322204   17.780003416   15.476702798   17.542728653
    0.300500835   17.786378013   15.481943632   17.548946537
    0.307679466   17.792912107   15.487315410   17.555319925
    0.314858097   17.799606090   15.492818440   17.561849193
    0.322036728   17.806460365   15.498453041   17.568534728
    0.329215359   17.813475345   15.504219536   17.575376929
    0.336393990   17.820651453   15.510118259   17.582376201
    0.343572621   17.827989123   15.516149551   17.589532962
    0.350751252   17.835488799   15.522313761   17.596847638
    0.357929883   17.843150935   15.528611247   17.604320666
    0.365108514   17.850975996   15.535042375   17.611952494
    0.372287145   17.858964459   15.541607519   17.619743579
    0.379465776   17.867116809   15.548307061   17.627694389
    0.386644407   17.875433545   15.555141393   17.635805401
    0.393823038   17.883915173   15.562110914   17.644077104
    0.401001669   17.892562214   15.569216033   17.652509996
    0.408180301   17.901375198   15.576457166   17.661104589
    0.415358932   17.910354665   15.583834738   17.669861401
    0.422537563   17.919501170   15.591349185   17.678780964
    0.429716194   17.928815274   15.599000949   17.687863820
    0.436894825   17.938297555   15.606790483   17.697110522
    0.444073456   17.947948598   15.614718247   17.706521633
    0.451252087   17.957769003   15.622784712   17.716097729
    0.458430718   17.967759380   15.630990358   17.725839396
    0.465609349   17.977920350   15.639335672   17.735747231
    0.472787980   17.988252548   15.647821153   17.745821844
    0.479966611   17.998756619   15.656447308   17.756063855
    0.487145242   18.009433223   15.665214654   17.766473897
    0.494323873   18.020283029   15.674123717   17.777052613
    0.501502504   18.031306720   15.683175033   17.787800659
    0.508681135   18.042504993   15.692369149   17.798718703
    0.515859766   18.053878553   15.701706618   17.809807425
    0.523038397   18.065428123   15.711188008   17.821067517
    0.530217028   18.077154436   15.720813893   17.832499683
    0.537395659   18.089058238   15.730584859   17.844104640
    0.544574290   18.101140290   15.740501502   17.855883117
    0.551752922   18.113401364   15.750564428   17.867835857
    0.558931553   18.125842246   15.760774253   17.879963614
    0.566110184   18.138463736   15.771131605   17.892267156
    0.573288815   18.151266648   15.781637122   17.904747264
    0.580467446   18.164251810   15.792291451   17.917404731
    0.587646077   18.177420062   15.803095252   17.930240366
    0.594824708   18.190772260   15.814049195   17.943254989
    0.602003339   18.204309274   15.825153961   17.956449435
    0.609181970   18.218031988   15.836410244   17.969824552
    0.616360601   18.231941301   15.847818747   17.983381202
    0.623539232   18.246038126   15.859380184   17.997120261
    0.630717863   18.260323392   15.871095284   18.011042622
    0.637896494   18.274798042   15.882964783   18.025149187
    0.645075125   18.289463036   15.894989434   18.039440878
    0.652253756   18.304319347   15.907169998   18.053918629
    0.659432387   18.319367965   15.919507249   18.068583388
    0.666611018   18.334609897   15.932001974   18.083436121
    0.673789649   18.350046164   15.944654973   18.098477807
    0.680968280   18.365677804   15.957467056   18.113709441
    0.688146912   18.381505872   15.970439048   18.129132035
    0.695325543   18.397531437   15.983571787   18.144746616
    0.702504174   18.413755589   15.996866121   18.160554226
    0.709682805   18.430179432   16.010322914   18.176555924
    0.716861436   18.446804088   16.023943043   18.192752784
    0.724040067   18.463630696   16.037727397   18.209145886
    0.731218698   18.480660411   16.051676876   18.225736304
    0.738397329   18.497894406   16.065792395   18.242525135
    0.745575960   18.515333881   16.080074894   18.259513617
    0.752754591   18.532980048   16.094525321   18.276702964
    0.759933222   18.550834137   16.109144632   18.294094310
    0.767111853   18.568897394   16.123933800   18.311688826
    0.774290484   18.587171088   16.138893814   18.329487719
    0.781469115   18.605656505   16.154025677   18.347492221
    0.788647746   18.624354954   16.169330409   18.365703584
    0.795826377   18.643267761   16.184809042   18.384123079
    0.803005008   18.662396273   16.200462627   18.402751995
    0.810183639   18.681741858   16.216292230   18.421591641
    0.817362270   18.701305905   16.232298932   18.440643348
    0.824540902   18.721089823   16.248483829   18.459908462
    0.831719533   18.741095042   16.264848036   18.479388355
    0.838898164   18.761323015   16.281392683   18.499084414
    0.846076795   18.781775215   16.298118917   18.518998049
    0.853255426   18.802453131   16.315027900   18.539130683
    0.860434057   18.823358270   16.332120814   18.559483741
    0.867612688   18.844492176   16.349398853   18.580058676
    0.874791319   18.865856444   16.366863240   18.600857052
    0.881969950   18.887452673   16.384515215   18.621880434
    0.889148581   18.909282461   16.402356027   18.643130328
    0.896327212   18.931347437   16.420386945   18.664608280
    0.903505843   18.953649262   16.438609260   18.686315872
    0.910684474   18.976189620   16.457024281   18.708254714
    0.917863105   18.998970224   16.475633335   18.730426440
    0.925041736   19.021992809   16.494437769   18.752832712
    0.932220367   19.045259129   16.513438944   18.775475211
    0.939398998   19.068770966   16.532638238   18.798355647
    0.946577629   19.092530161   16.552037083   18.821475758
    0.953756260   19.116538573   16.571636922   18.844837308
    0.960934891   19.140798065   16.591439196   18.868442082
    0.968113523   19.165310531   16.611445372   18.892291894
    0.975292154   19.190077896   16.631656941   18.916388583
    0.982470785   19.215102120   16.652075418   18.940734018
    0.989649416   19.240385189   16.672702339   18.965330094
    0.996828047   19.265929123   16.693539268   18.990178737
    1.004006678   19.291735970   16.714587797   19.015281905
    1.011185309   19.317807811   16.735849533   19.040641580
    1.018363940   19.344146757   16.757326105   19.066259774
    1.025542571   19.370754950   16.779019169   19.092138531
    1.032721202   19.397634568   16.800930408   19.118279924
    1.039899833   19.424787819   16.823061527   19.144686059
    1.047078464   19.452216946   16.845414259   19.171359072
    1.054257095   19.479924226   16.867990362   19.198301122
    1.061435726   19.507911969   16.890791620   19.225514395
    1.068614357   19.536182525   16.913819842   19.253001137
    1.075792988   19.564738278   16.937076864   19.280763648
    1.082971619   19.593581643   16.960564548   19.308804238
    1.090150250   19.622715061   16.984284772   19.337125246
    1.097328881   19.652141026   17.008239459   19.365729033
    1.104507513   19.681862113   17.032430603   19.394618004
    1.111686144   19.711880896   17.056860186   19.423794605
    1.118864775   19.742199980   17.081530212   19.453261329
    1.126043406   19.772822017   17.106442720   19.483020703
    1.133222037   19.803749696   17.131599778   19.513075289
    1.140400668   19.834985755   17.157003488   19.543427687
    1.147579299   19.866532974   17.182655987   19.574080543
    1.154757930   19.898394177   17.208559446   19.605036539
    1.161936561   19.930572235   17.234716069   19.636298404
    1.169115192   19.963070062   17.261128093   19.667868905
    1.176293823   19.995890618   17.287797791   19.699750857
    1.183472454   20.029036909   17.314727470   19.731947112
    1.190651085   20.062511980   17.341919476   19.764460570
    1.197829716   20.096318919   17.369376186   19.797294167
    1.205008347   20.130460901   17.397100020   19.830450906
    1.212186978   20.164941163   17.425093432   19.863933837
    1.219365609   20.199762949   17.453358914   19.897746037
    1.226544240   20.234929560   17.481898994   19.931890656
    1.233722871   20.270444355   17.510716238   19.966370884
    1.240901503   20.306310750   17.539813271   20.001189961
    1.248080134   20.342532218   17.569192764   20.036351187
    1.255258765   20.379112287   17.598857410   20.071857898
    1.262437396   20.416054545   17.628809941   20.107713487
    1.269616027   20.453362637   17.659053142   20.143921411
    1.276794658   20.491040269   17.689589842   20.180485183
    1.283973289   20.529091210   17.720422915   20.217408368
    1.291151920   20.567519290   17.751555283   20.254694592
    1.298330551   20.606328403   17.782989915   20.292347541
    1.305509182   20.645522509   17.814729830   20.330370961
    1.312687813   20.685105633   17.846778092   20.368768661
    1.319866444   20.725081868   17.879137821   20.407544513
    1.327045075   20.765455378   17.911812184   20.446702453
    1.334223706   20.806230396   17.944804401   20.486246483
    1.341402337   20.847411227   17.978117748   20.526180671
    1.348580968   20.889002249   18.011755551   20.566509157
    1.355759599   20.931007918   18.045721196   20.607236147
    1.362938230   20.973432764   18.080018124   20.648365920
    1.370116861   21.016281395   18.114649832   20.689902827
    1.377295492   21.059558501   18.149619878   20.731851296
    1.384474124   21.103268853   18.184931881   20.774215825
    1.391652755   21.147417305   18.220589519   20.817000992
    1.398831386   21.192008795   18.256596535   20.860211460
    1.406010017   21.237048351   18.292956736   20.903851971
    1.413188648   21.282541088   18.329673995   20.947927347
    1.420367279   21.328492213   18.366752249   20.992442492
    1.427545910   21.374907024   18.404195506   21.037402397
    1.434724541   21.421790916   18.442007844   21.082812144
    1.441903172   21.469149381   18.480193409   21.128676903
    1.449081803   21.516988010   18.518756424   21.175001937
    1.456260434   21.565312494   18.557701185   21.221792602
    1.463439065   21.614128630   18.597032063   21.269054350
    1.470617696   21.663442321   18.636753507   21.316792734
    1.477796327   21.713259579   18.676870048   21.365013404
    1.484974958   21.763586525   18.717386296   21.413722114
    1.492153589   21.814429397   18.758306945   21.462924724
    1.499332220   21.865794546   18.799636774   21.512627200
    1.506510851   21.917688445   18.841380647   21.562835620
    1.513689482   21.970117686   18.883543520   21.613556171
    1.520868114   22.023088990   18.926130440   21.664795159
    1.528046745   22.076609203   18.969146544   21.716559006
    1.535225376   22.130685301   19.012597067   21.768854254
    1.542404007   22.185324398   19.056487341   21.821687570
    1.549582638   22.240533742   19.100822798   21.875065746
    1.556761269   22.296320723   19.145608972   21.928995704
    1.563939900   22.352692875   19.190851501   21.983484500
    1.571118531   22.409657880   19.236556132   22.038539324
    1.578297162   22.467223572   19.282728721   22.094167505
    1.585475793   22.525397939   19.329375236   22.150376515
    1.592654424   22.584189128   19.376501757   22.207173973
    1.599833055   22.643605451   19.424114477   22.264567644
    1.607011686   22.703655380   19.472219681   22.322565445
    1.614190317   22.764347561   19.520823762   22.381175444
    1.621368948   22.825690829   19.569933372   22.440405894
    1.628547579   22.887694205   19.619555328   22.500265222
    1.635726210   22.950366879   19.669696427   22.560761997
    1.642904841   23.013718229   19.720363597   22.621904960
    1.650083472   23.077757833   19.771563941   22.683703040
    1.657262104   23.142495473   19.823304713   22.746165347
    1.664440735   23.207941136   19.875593320   22.809301185
    1.671619366   23.274105023   19.928437320   22.873120047
    1.678797997   23.340997553   19.981844428   22.937631626
    1.685976628   23.408629367   20.035822518   23.002845801
    1.693155259   23.477011321   20.090379623   23.068772598
    1.700333890   23.546154465   20.145523938   23.135422103
    1.707512521   23.616070002   20.201263825   23.202804732
    1.714691152   23.686769198   20.257607824   23.270931771
    1.721869783   23.758263650   20.314564654   23.339814311
    1.729048414   23.830566506   20.372143342   23.409463378
    1.736227045   23.903690599   20.430353049   23.479890123
    1.743405676   23.977648158   20.489203044   23.551106497
    1.750584307   24.052451957   20.548702825   23.623125134
    1.757762938   24.128115068   20.608862088   23.695958102
    1.764941569   24.204651054   20.669690795   23.769617686
    1.772120200   24.282073975   20.731199174   23.844116628
    1.779298831   24.360397982   20.793397591   23.919467972
    1.786477462   24.439637459   20.856296625   23.995685028
    1.793656093   24.519806960   20.919907098   24.072781244
    1.800834725   24.600920858   20.984239908   24.150769851
    1.808013356   24.682994287   21.049306497   24.229665461
    1.815191987   24.766044423   21.115119068   24.309484432
    1.822370618   24.850088641   21.181689547   24.390241919
    1.829549249   24.935144321   21.249029900   24.471953158
    1.836727880   25.021228105   21.317152345   24.554633600
    1.843906511   25.108356855   21.386069142   24.638299012
    1.851085142   25.196548278   21.455792989   24.722965776
    1.858263773   25.285821063   21.526338692   24.808651099
    1.865442404   25.376194298   21.597720753   24.895372500
    1.872621035   25.467687242   21.669952602   24.983147615
    1.879799666   25.560319692   21.743048274   25.071994480
    1.886978297   25.654112009   21.817022407   25.161931749
    1.894156928   25.749085133   21.891889966   25.252978923
    1.901335559   25.845260533   21.967665981   25.345155605
    1.908514190   25.942660271   22.044366072   25.438481759
    1.915692821   26.041307425   22.122007946   25.532978512
    1.922871452   26.141225217   22.200608758   25.628667206
    1.930050083   26.242436987   22.280184551   25.725569244
    1.937228715   26.344967327   22.360752805   25.823706957
    1.944407346   26.448842360   22.442332859   25.923103736
    1.951585977   26.554087967   22.524943210   26.023783127
    1.958764608   26.660730511   22.608602229   26.125769294
    1.965943239   26.768797274   22.693328721   26.229087047
    1.973121870   26.878316396   22.779142622   26.333761879
    1.980300501   26.989317199   22.866066404   26.439820559
    1.987479132   27.101829572   22.954121784   26.547290241
    1.994657763   27.215884069   23.043329869   26.656198584
    2.001836394   27.331512153   23.133712728   26.766574170
    2.009015025   27.448746402   23.225293429   26.878446447
    2.016193656   27.567620968   23.318095995   26.991845940
    2.023372287   27.688170502   23.412144932   27.106803881
    2.030550918   27.810430337   23.507465314   27.223352242
    2.037729549   27.934437097   23.604083071   27.341524105
    2.044908180   28.060228712   23.702025071   27.461353782
    2.052086811   28.187844053   23.801318840   27.582876317
    2.059265442   28.317323792   23.901992765   27.706128094
    2.066444073   28.448709654   24.004076097   27.831146425
    2.073622705   28.582044176   24.107598904   27.957969474
    2.080801336   28.717372424   24.212592411   28.086637700
    2.087979967   28.854740989   24.319088836   28.217192945
    2.095158598   28.994196743   24.427121076   28.349677039
    2.102337229   29.135787995   24.536722840   28.484132932
    2.109515860   29.279565304   24.647929287   28.620605862
    2.116694491   29.425581983   24.760777787   28.759144001
    2.123873122   29.573892809   24.875306486   28.899795895
    2.131051753   29.724553813   24.991554102   29.042611020
    2.138230384   29.877622914   25.109560599   29.187640894
    2.145409015   30.033160366   25.229367523   29.334939064
    2.152587646   30.191228740   25.351017962   29.484561024
    2.159766277   30.351892884   25.474556518   29.636564164
    2.166944908   30.515220074   25.600029371   29.791007974
    2.174123539   30.681280112   25.727484286   29.947954130
    2.181302170   30.850145202   25.856970413   30.107466110
    2.188480801   31.021890297   25.988538927   30.269610391
    2.195659432   31.196594485   26.122244356   30.434457237
    2.202838063   31.374339875   26.258142660   30.602078248
    2.210016694   31.555210711   26.396290761   30.772547135
    2.217195326   31.739294717   26.536747918   30.945940596
    2.224373957   31.926683511   26.679575897   31.122338643
    2.231552588   32.117472832   26.824839304   31.301825739
    2.238731219   32.311762120   26.972605303   31.484489289
    2.245909850   32.509654418   27.122942986   31.670418632
    2.253088481   32.711257515   27.275924853   31.859706664
    2.260267112   32.916686033   27.431627929   32.052452804
    2.267445743   33.126059777   27.590131284   32.248763082
    2.274624374   33.339501767   27.751516348   32.448744551
    2.281803005   33.557140149   27.915867951   32.652507476
    2.288981636   33.779109961   28.083275667   32.860168212
    2.296160267   34.005553690   28.253834620   33.071849488
    2.303338898   34.236619760   28.427642273   33.287679035
    2.310517529   34.472463481   28.604800024   33.507790279
    2.317696160   34.713248618   28.785415653   33.732324286
    2.324874791   34.959147062   28.969601614   33.961429191
    2.332053422   35.210339119   29.157474947   34.195259649
    2.339232053   35.467014544   29.349158634   34.433977557
    2.346410684   35.729373200   29.544781943   34.677753321
    2.353589316   35.997625696   29.744480694   34.926766358
    2.360767947   36.271994125   29.948397657   35.181205593
    2.367946578   36.552712824   30.156683023   35.441270075
    2.375125209   36.840029105   30.369494833   35.707169595
    2.382303840   37.134204604   30.586999685   35.979125651
    2.389482471   37.435517724   30.809373764   36.257373038
    2.396661102   37.744262932   31.036802795   36.542159775
    2.403839733   38.060751237   31.269482606   36.833747547
    2.411018364   38.385312922   31.507620275   37.132413886
    2.418196995   38.718299430   31.751435137   37.438454934
    2.425375626   39.060085320   32.001159914   37.752184849
    2.432554257   39.411071753   32.257042901   38.073936467
    2.439732888   39.771685384   32.519347089   38.404065008
    2.446911519   40.142380225   32.788350617   38.742949595
    2.454090150   40.523641912   33.064349325   39.090994826
    2.461268781   40.915993814   33.347662074   39.448633615
    2.468447412   41.319998291   33.638630376   39.816328842
    2.475626043   41.736257114   33.937615731   40.194578816
    2.482804674   42.165418155   34.245005134   40.583919456
    2.489983306   42.608180183   34.561214198   40.984925465
    2.497161937   43.065298389   34.886689744   41.398216535
    2.504340568   43.537590337   35.221912710   41.824462702
    2.511519199   44.025942612   35.567401505   42.264389997
    2.518697830   44.531318445   35.923715910   42.718785335
    2.525876461   45.054766919   36.291461929   43.188503928
    2.533055092   45.597433942   36.671296623   43.674479330
    2.540233723   46.160572538   37.063933366   44.177730290
