# energy grid [eV]     ieps_x  ieps_y  ieps_z
#
    0.200000000    3.088395474    7.032227836    5.702494847
    0.207178631    3.087979688    7.030970919    5.701390760
    0.214357262    3.087549424    7.029670255    5.700248321
    0.221535893    3.087104703    7.028325903    5.699067592
    0.228714524    3.086645542    7.026937925    5.697848633
    0.235893155    3.086171963    7.025506383    5.696591507
    0.243071786    3.085683986    7.024031343    5.695296281
    0.250250417    3.085181633    7.022512870    5.693963022
    0.257429048    3.084664926    7.020951035    5.692591800
    0.264607679    3.084133887    7.019345907    5.691182685
    0.271786311    3.083588540    7.017697560    5.689735750
    0.278964942    3.083028908    7.016006067    5.688251072
    0.286143573    3.082455016    7.014271504    5.686728726
    0.293322204    3.081866889    7.012493951    5.685168792
    0.300500835    3.081264553    7.010673486    5.683571350
    0.307679466    3.080648034    7.008810193    5.681936483
    0.314858097    3.080017359    7.006904154    5.680264274
    0.322036728    3.079372554    7.004955455    5.678554811
    0.329215359    3.078713649    7.002964183    5.676808181
    0.336393990    3.078040672    7.000930428    5.675024474
    0.343572621    3.077353651    6.998854281    5.673203781
    0.350751252    3.076652618    6.996735834    5.671346195
    0.357929883    3.075937601    6.994575182    5.669451813
    0.365108514    3.075208632    6.992372421    5.667520729
    0.372287145    3.074465743    6.990127650    5.665553044
    0.379465776    3.073708965    6.987840967    5.663548857
    0.386644407    3.072938331    6.985512476    5.661508270
    0.393823038    3.072153874    6.983142278    5.659431387
    0.401001669    3.071355628    6.980730479    5.657318313
    0.408180301    3.070543627    6.978277186    5.655169156
    0.415358932    3.069717906    6.975782507    5.652984023
    0.422537563    3.068878500    6.973246552    5.650763025
    0.429716194    3.068025444    6.970669433    5.648506274
    0.436894825    3.067158776    6.968051263    5.646213884
    0.444073456    3.066278532    6.965392157    5.643885970
    0.451252087    3.065384750    6.962692232    5.641522648
    0.458430718    3.064477467    6.959951606    5.639124036
    0.465609349    3.063556722    6.957170400    5.636690255
    0.472787980    3.062622554    6.954348733    5.634221425
    0.479966611    3.061675003    6.951486730    5.631717671
    0.487145242    3.060714108    6.948584515    5.629179115
    0.494323873    3.059739910    6.945642214    5.626605884
    0.501502504    3.058752450    6.942659955    5.623998105
    0.508681135    3.057751769    6.939637867    5.621355906
    0.515859766    3.056737909    6.936576080    5.618679419
    0.523038397    3.055710913    6.933474727    5.615968775
    0.530217028    3.054670823    6.930333941    5.613224107
    0.537395659    3.053617684    6.927153858    5.610445548
    0.544574290    3.052551538    6.923934614    5.607633236
    0.551752922    3.051472430    6.920676347    5.604787307
    0.558931553    3.050380406    6.917379197    5.601907899
    0.566110184    3.049275509    6.914043304    5.598995153
    0.573288815    3.048157786    6.910668810    5.596049209
    0.580467446    3.047027282    6.907255859    5.593070211
    0.587646077    3.045884045    6.903804596    5.590058301
    0.594824708    3.044728121    6.900315167    5.587013625
    0.602003339    3.043559558    6.896787720    5.583936328
    0.609181970    3.042378404    6.893222403    5.580826559
    0.616360601    3.041184706    6.889619367    5.577684465
    0.623539232    3.039978514    6.885978764    5.574510197
    0.630717863    3.038759876    6.882300746    5.571303905
    0.637896494    3.037528842    6.878585466    5.568065742
    0.645075125    3.036285461    6.874833081    5.564795861
    0.652253756    3.035029785    6.871043747    5.561494415
    0.659432387    3.033761864    6.867217621    5.558161561
    0.666611018    3.032481748    6.863354862    5.554797455
    0.673789649    3.031189489    6.859455630    5.551402255
    0.680968280    3.029885140    6.855520086    5.547976118
    0.688146912    3.028568751    6.851548393    5.544519205
    0.695325543    3.027240376    6.847540713    5.541031677
    0.702504174    3.025900068    6.843497212    5.537513694
    0.709682805    3.024547879    6.839418055    5.533965420
    0.716861436    3.023183864    6.835303409    5.530387017
    0.724040067    3.021808075    6.831153441    5.526778651
    0.731218698    3.020420569    6.826968320    5.523140487
    0.738397329    3.019021398    6.822748216    5.519472690
    0.745575960    3.017610618    6.818493299    5.515775429
    0.752754591    3.016188284    6.814203742    5.512048870
    0.759933222    3.014754452    6.809879717    5.508293184
    0.767111853    3.013309178    6.805521398    5.504508539
    0.774290484    3.011852517    6.801128959    5.500695105
    0.781469115    3.010384527    6.796702575    5.496853055
    0.788647746    3.008905263    6.792242424    5.492982559
    0.795826377    3.007414784    6.787748683    5.489083792
    0.803005008    3.005913146    6.783221530    5.485156925
    0.810183639    3.004400407    6.778661143    5.481202134
    0.817362270    3.002876624    6.774067703    5.477219592
    0.824540902    3.001341857    6.769441390    5.473209477
    0.831719533    2.999796163    6.764782387    5.469171963
    0.838898164    2.998239602    6.760090874    5.465107228
    0.846076795    2.996672231    6.755367036    5.461015449
    0.853255426    2.995094111    6.750611056    5.456896803
    0.860434057    2.993505300    6.745823119    5.452751471
    0.867612688    2.991905858    6.741003409    5.448579630
    0.874791319    2.990295846    6.736152113    5.444381460
    0.881969950    2.988675323    6.731269418    5.440157143
    0.889148581    2.987044349    6.726355510    5.435906857
    0.896327212    2.985402986    6.721410578    5.431630785
    0.903505843    2.983751293    6.716434810    5.427329109
    0.910684474    2.982089333    6.711428396    5.423002010
    0.917863105    2.980417165    6.706391525    5.418649671
    0.925041736    2.978734852    6.701324388    5.414272276
    0.932220367    2.977042454    6.696227175    5.409870007
    0.939398998    2.975340035    6.691100079    5.405443048
    0.946577629    2.973627655    6.685943291    5.400991584
    0.953756260    2.971905376    6.680757003    5.396515798
    0.960934891    2.970173261    6.675541410    5.392015877
    0.968113523    2.968431373    6.670296704    5.387492005
    0.975292154    2.966679773    6.665023079    5.382944367
    0.982470785    2.964918525    6.659720730    5.378373150
    0.989649416    2.963147692    6.654389852    5.373778539
    0.996828047    2.961367335    6.649030641    5.369160720
    1.004006678    2.959577520    6.643643291    5.364519881
    1.011185309    2.957778308    6.638227999    5.359856208
    1.018363940    2.955969763    6.632784961    5.355169887
    1.025542571    2.954151950    6.627314375    5.350461106
    1.032721202    2.952324930    6.621816437    5.345730052
    1.039899833    2.950488769    6.616291346    5.340976913
    1.047078464    2.948643530    6.610739298    5.336201876
    1.054257095    2.946789277    6.605160493    5.331405129
    1.061435726    2.944926073    6.599555127    5.326586859
    1.068614357    2.943053984    6.593923401    5.321747255
    1.075792988    2.941173074    6.588265513    5.316886504
    1.082971619    2.939283406    6.582581661    5.312004795
    1.090150250    2.937385045    6.576872046    5.307102315
    1.097328881    2.935478056    6.571136868    5.302179252
    1.104507513    2.933562503    6.565376324    5.297235795
    1.111686144    2.931638451    6.559590617    5.292272131
    1.118864775    2.929705965    6.553779945    5.287288449
    1.126043406    2.927765108    6.547944509    5.282284937
    1.133222037    2.925815946    6.542084509    5.277261783
    1.140400668    2.923858544    6.536200146    5.272219173
    1.147579299    2.921892967    6.530291620    5.267157298
    1.154757930    2.919919279    6.524359131    5.262076343
    1.161936561    2.917937545    6.518402882    5.256976497
    1.169115192    2.915947831    6.512423071    5.251857947
    1.176293823    2.913950201    6.506419900    5.246720880
    1.183472454    2.911944720    6.500393571    5.241565485
    1.190651085    2.909931453    6.494344282    5.236391947
    1.197829716    2.907910465    6.488272237    5.231200454
    1.205008347    2.905881822    6.482177634    5.225991192
    1.212186978    2.903845588    6.476060675    5.220764348
    1.219365609    2.901801828    6.469921561    5.215520109
    1.226544240    2.899750607    6.463760493    5.210258659
    1.233722871    2.897691990    6.457577670    5.204980186
    1.240901503    2.895626042    6.451373294    5.199684874
    1.248080134    2.893552829    6.445147564    5.194372909
    1.255258765    2.891472414    6.438900682    5.189044476
    1.262437396    2.889384863    6.432632847    5.183699759
    1.269616027    2.887290241    6.426344260    5.178338943
    1.276794658    2.885188612    6.420035120    5.172962213
    1.283973289    2.883080041    6.413705626    5.167569751
    1.291151920    2.880964594    6.407355979    5.162161742
    1.298330551    2.878842333    6.400986379    5.156738369
    1.305509182    2.876713325    6.394597023    5.151299813
    1.312687813    2.874577634    6.388188111    5.145846258
    1.319866444    2.872435324    6.381759842    5.140377885
    1.327045075    2.870286459    6.375312415    5.134894877
    1.334223706    2.868131105    6.368846026    5.129397414
    1.341402337    2.865969324    6.362360876    5.123885677
    1.348580968    2.863801183    6.355857160    5.118359846
    1.355759599    2.861626743    6.349335078    5.112820102
    1.362938230    2.859446071    6.342794825    5.107266623
    1.370116861    2.857259229    6.336236599    5.101699590
    1.377295492    2.855066281    6.329660596    5.096119179
    1.384474124    2.852867291    6.323067012    5.090525570
    1.391652755    2.850662324    6.316456044    5.084918940
    1.398831386    2.848451441    6.309827887    5.079299466
    1.406010017    2.846234708    6.303182735    5.073667325
    1.413188648    2.844012187    6.296520785    5.068022692
    1.420367279    2.841783941    6.289842229    5.062365743
    1.427545910    2.839550034    6.283147263    5.056696654
    1.434724541    2.837310528    6.276436080    5.051015599
    1.441903172    2.835065486    6.269708873    5.045322751
    1.449081803    2.832814972    6.262965835    5.039618284
    1.456260434    2.830559048    6.256207158    5.033902372
    1.463439065    2.828297776    6.249433034    5.028175185
    1.470617696    2.826031219    6.242643655    5.022436896
    1.477796327    2.823759438    6.235839211    5.016687676
    1.484974958    2.821482496    6.229019894    5.010927695
    1.492153589    2.819200456    6.222185893    5.005157123
    1.499332220    2.816913378    6.215337398    4.999376130
    1.506510851    2.814621324    6.208474598    4.993584884
    1.513689482    2.812324357    6.201597682    4.987783552
    1.520868114    2.810022536    6.194706838    4.981972304
    1.528046745    2.807715924    6.187802253    4.976151304
    1.535225376    2.805404581    6.180884114    4.970320720
    1.542404007    2.803088568    6.173952609    4.964480716
    1.549582638    2.800767947    6.167007922    4.958631458
    1.556761269    2.798442777    6.160050239    4.952773109
    1.563939900    2.796113118    6.153079746    4.946905834
    1.571118531    2.793779032    6.146096626    4.941029794
    1.578297162    2.791440577    6.139101063    4.935145152
    1.585475793    2.789097815    6.132093241    4.929252070
    1.592654424    2.786750804    6.125073341    4.923350707
    1.599833055    2.784399604    6.118041547    4.917441225
    1.607011686    2.782044274    6.110998038    4.911523781
    1.614190317    2.779684874    6.103942996    4.905598536
    1.621368948    2.777321462    6.096876601    4.899665646
    1.628547579    2.774954096    6.089799033    4.893725269
    1.635726210    2.772582837    6.082710470    4.887777561
    1.642904841    2.770207741    6.075611091    4.881822679
    1.650083472    2.767828867    6.068501072    4.875860776
    1.657262104    2.765446273    6.061380592    4.869892007
    1.664440735    2.763060017    6.054249826    4.863916525
    1.671619366    2.760670155    6.047108950    4.857934484
    1.678797997    2.758276746    6.039958139    4.851946035
    1.685976628    2.755879847    6.032797567    4.845951330
    1.693155259    2.753479514    6.025627407    4.839950518
    1.700333890    2.751075805    6.018447834    4.833943750
    1.707512521    2.748668775    6.011259017    4.827931175
    1.714691152    2.746258481    6.004061131    4.821912940
    1.721869783    2.743844978    5.996854344    4.815889192
    1.729048414    2.741428324    5.989638828    4.809860080
    1.736227045    2.739008573    5.982414751    4.803825748
    1.743405676    2.736585781    5.975182282    4.797786341
    1.750584307    2.734160002    5.967941590    4.791742003
    1.757762938    2.731731293    5.960692840    4.785692879
    1.764941569    2.729299707    5.953436201    4.779639111
    1.772120200    2.726865299    5.946171838    4.773580839
    1.779298831    2.724428123    5.938899915    4.767518207
    1.786477462    2.721988234    5.931620597    4.761451353
    1.793656093    2.719545685    5.924334047    4.755380418
    1.800834725    2.717100529    5.917040429    4.749305540
    1.808013356    2.714652820    5.909739904    4.743226856
    1.815191987    2.712202612    5.902432634    4.737144504
    1.822370618    2.709749956    5.895118778    4.731058620
    1.829549249    2.707294906    5.887798497    4.724969340
    1.836727880    2.704837514    5.880471950    4.718876798
    1.843906511    2.702377832    5.873139295    4.712781127
    1.851085142    2.699915912    5.865800689    4.706682462
    1.858263773    2.697451805    5.858456288    4.700580933
    1.865442404    2.694985564    5.851106250    4.694476673
    1.872621035    2.692517238    5.843750728    4.688369811
    1.879799666    2.690046880    5.836389877    4.682260478
    1.886978297    2.687574539    5.829023851    4.676148802
    1.894156928    2.685100266    5.821652802    4.670034911
    1.901335559    2.682624112    5.814276881    4.663918933
    1.908514190    2.680146126    5.806896241    4.657800994
    1.915692821    2.677666357    5.799511032    4.651681219
    1.922871452    2.675184856    5.792121402    4.645559734
    1.930050083    2.672701672    5.784727501    4.639436662
    1.937228715    2.670216852    5.777329476    4.633312126
    1.944407346    2.667730447    5.769927474    4.627186249
    1.951585977    2.665242504    5.762521643    4.621059151
    1.958764608    2.662753072    5.755112126    4.614930954
    1.965943239    2.660262198    5.747699069    4.608801777
    1.973121870    2.657769931    5.740282615    4.602671740
    1.980300501    2.655276316    5.732862908    4.596540959
    1.987479132    2.652781403    5.725440090    4.590409554
    1.994657763    2.650285237    5.718014301    4.584277639
    2.001836394    2.647787864    5.710585683    4.578145331
    2.009015025    2.645289333    5.703154375    4.572012745
    2.016193656    2.642789688    5.695720516    4.565879994
    2.023372287    2.640288975    5.688284244    4.559747192
    2.030550918    2.637787240    5.680845696    4.553614451
    2.037729549    2.635284528    5.673405008    4.547481882
    2.044908180    2.632780884    5.665962317    4.541349597
    2.052086811    2.630276354    5.658517756    4.535217704
    2.059265442    2.627770981    5.651071460    4.529086314
    2.066444073    2.625264810    5.643623562    4.522955534
    2.073622705    2.622757884    5.636174193    4.516825472
    2.080801336    2.620250249    5.628723486    4.510696234
    2.087979967    2.617741946    5.621271570    4.504567926
    2.095158598    2.615233020    5.613818577    4.498440653
    2.102337229    2.612723512    5.606364633    4.492314519
    2.109515860    2.610213467    5.598909868    4.486189628
    2.116694491    2.607702926    5.591454409    4.480066082
    2.123873122    2.605191932    5.583998381    4.473943982
    2.131051753    2.602680526    5.576541911    4.467823430
    2.138230384    2.600168749    5.569085124    4.461704525
    2.145409015    2.597656645    5.561628143    4.455587368
    2.152587646    2.595144253    5.554171091    4.449472056
    2.159766277    2.592631614    5.546714090    4.443358687
    2.166944908    2.590118769    5.539257262    4.437247358
    2.174123539    2.587605758    5.531800728    4.431138165
    2.181302170    2.585092622    5.524344606    4.425031204
    2.188480801    2.582579400    5.516889017    4.418926568
    2.195659432    2.580066132    5.509434078    4.412824352
    2.202838063    2.577552856    5.501979906    4.406724649
    2.210016694    2.575039613    5.494526617    4.400627549
    2.217195326    2.572526440    5.487074328    4.394533146
    2.224373957    2.570013376    5.479623153    4.388441529
    2.231552588    2.567500460    5.472173206    4.382352789
    2.238731219    2.564987729    5.464724599    4.376267013
    2.245909850    2.562475221    5.457277447    4.370184291
    2.253088481    2.559962974    5.449831858    4.364104710
    2.260267112    2.557451024    5.442387946    4.358028356
    2.267445743    2.554939410    5.434945818    4.351955316
    2.274624374    2.552428166    5.427505585    4.345885674
    2.281803005    2.549917330    5.420067354    4.339819515
    2.288981636    2.547406938    5.412631233    4.333756923
    2.296160267    2.544897025    5.405197328    4.327697979
    2.303338898    2.542387628    5.397765745    4.321642768
    2.310517529    2.539878782    5.390336589    4.315591369
    2.317696160    2.537370522    5.382909964    4.309543863
    2.324874791    2.534862882    5.375485974    4.303500330
    2.332053422    2.532355897    5.368064720    4.297460850
    2.339232053    2.529849602    5.360646305    4.291425500
    2.346410684    2.527344031    5.353230830    4.285394358
    2.353589316    2.524839217    5.345818394    4.279367501
    2.360767947    2.522335195    5.338409097    4.273345006
    2.367946578    2.519831996    5.331003037    4.267326947
    2.375125209    2.517329656    5.323600312    4.261313399
    2.382303840    2.514828205    5.316201020    4.255304436
    2.389482471    2.512327678    5.308805255    4.249300131
    2.396661102    2.509828105    5.301413114    4.243300558
    2.403839733    2.507329520    5.294024691    4.237305787
    2.411018364    2.504831954    5.286640080    4.231315889
    2.418196995    2.502335439    5.279259373    4.225330936
    2.425375626    2.499840005    5.271882664    4.219350997
    2.432554257    2.497345684    5.264510042    4.213376140
    2.439732888    2.494852508    5.257141600    4.207406433
    2.446911519    2.492360505    5.249777426    4.201441946
    2.454090150    2.489869707    5.242417611    4.195482743
    2.461268781    2.487380144    5.235062242    4.189528892
    2.468447412    2.484891846    5.227711406    4.183580458
    2.475626043    2.482404842    5.220365192    4.177637505
    2.482804674    2.479919161    5.213023684    4.171700098
    2.489983306    2.477434832    5.205686968    4.165768301
    2.497161937    2.474951885    5.198355128    4.159842175
    2.504340568    2.472470349    5.191028249    4.153921783
    2.511519199    2.469990250    5.183706413    4.148007187
    2.518697830    2.467511618    5.176389703    4.142098447
    2.525876461    2.465034481    5.169078200    4.136195623
    2.533055092    2.462558866    5.161771985    4.130298774
    2.540233723    2.460084800    5.154471137    4.124407960
