# energy grid [eV]     ieps_x  ieps_y  ieps_z
#
    0.200000000    4.978351913   10.601832825    9.992688450
    0.207178631    4.977371509   10.599175306    9.990206116
    0.214357262    4.976357523   10.596426848    9.987638593
    0.221535893    4.975310054   10.593587723    9.984986112
    0.228714524    4.974229201   10.590658205    9.982248910
    0.235893155    4.973115067   10.587638579    9.979427231
    0.243071786    4.971967757   10.584529133    9.976521322
    0.250250417    4.970787377   10.581330161    9.973531437
    0.257429048    4.969574036   10.578041964    9.970457837
    0.264607679    4.968327847   10.574664847    9.967300785
    0.271786311    4.967048922   10.571199122    9.964060551
    0.278964942    4.965737377   10.567645105    9.960737410
    0.286143573    4.964393330   10.564003116    9.957331643
    0.293322204    4.963016900   10.560273482    9.953843532
    0.300500835    4.961608209   10.556456532    9.950273367
    0.307679466    4.960167379   10.552552601    9.946621441
    0.314858097    4.958694534   10.548562029    9.942888052
    0.322036728    4.957189803   10.544485157    9.939073501
    0.329215359    4.955653311   10.540322333    9.935178095
    0.336393990    4.954085190   10.536073907    9.931202143
    0.343572621    4.952485570   10.531740233    9.927145958
    0.350751252    4.950854583   10.527321668    9.923009859
    0.357929883    4.949192364   10.522818573    9.918794166
    0.365108514    4.947499047   10.518231312    9.914499204
    0.372287145    4.945774769   10.513560251    9.910125300
    0.379465776    4.944019668   10.508805760    9.905672786
    0.386644407    4.942233881   10.503968212    9.901141997
    0.393823038    4.940417550   10.499047982    9.896533268
    0.401001669    4.938570816   10.494045448    9.891846942
    0.408180301    4.936693819   10.488960989    9.887083362
    0.415358932    4.934786704   10.483794989    9.882242873
    0.422537563    4.932849614   10.478547832    9.877325826
    0.429716194    4.930882694   10.473219904    9.872332572
    0.436894825    4.928886089   10.467811596    9.867263464
    0.444073456    4.926859947   10.462323298    9.862118861
    0.451252087    4.924804415   10.456755403    9.856899122
    0.458430718    4.922719640   10.451108306    9.851604609
    0.465609349    4.920605772   10.445382403    9.846235685
    0.472787980    4.918462959   10.439578094    9.840792717
    0.479966611    4.916291352   10.433695778    9.835276075
    0.487145242    4.914091102   10.427735856    9.829686128
    0.494323873    4.911862360   10.421698733    9.824023250
    0.501502504    4.909605278   10.415584813    9.818287816
    0.508681135    4.907320007   10.409394501    9.812480202
    0.515859766    4.905006702   10.403128207    9.806600788
    0.523038397    4.902665515   10.396786338    9.800649955
    0.530217028    4.900296599   10.390369306    9.794628086
    0.537395659    4.897900110   10.383877521    9.788535564
    0.544574290    4.895476201   10.377311397    9.782372776
    0.551752922    4.893025028   10.370671348    9.776140110
    0.558931553    4.890546746   10.363957789    9.769837956
    0.566110184    4.888041510   10.357171137    9.763466705
    0.573288815    4.885509476   10.350311809    9.757026749
    0.580467446    4.882950801   10.343380223    9.750518484
    0.587646077    4.880365640   10.336376801    9.743942305
    0.594824708    4.877754151   10.329301963    9.737298610
    0.602003339    4.875116489   10.322156129    9.730587796
    0.609181970    4.872452814   10.314939725    9.723810266
    0.616360601    4.869763281   10.307653172    9.716966419
    0.623539232    4.867048047   10.300296896    9.710056659
    0.630717863    4.864307272   10.292871323    9.703081391
    0.637896494    4.861541112   10.285376879    9.696041019
    0.645075125    4.858749725   10.277813992    9.688935950
    0.652253756    4.855933269   10.270183090    9.681766592
    0.659432387    4.853091902   10.262484603    9.674533355
    0.666611018    4.850225782   10.254718959    9.667236647
    0.673789649    4.847335068   10.246886591    9.659876881
    0.680968280    4.844419917   10.238987930    9.652454469
    0.688146912    4.841480489   10.231023408    9.644969824
    0.695325543    4.838516940   10.222993458    9.637423360
    0.702504174    4.835529431   10.214898515    9.629815493
    0.709682805    4.832518118   10.206739012    9.622146638
    0.716861436    4.829483161   10.198515385    9.614417213
    0.724040067    4.826424717   10.190228069    9.606627636
    0.731218698    4.823342945   10.181877503    9.598778325
    0.738397329    4.820238003   10.173464121    9.590869701
    0.745575960    4.817110050   10.164988363    9.582902183
    0.752754591    4.813959244   10.156450667    9.574876192
    0.759933222    4.810785742   10.147851471    9.566792151
    0.767111853    4.807589702   10.139191216    9.558650482
    0.774290484    4.804371284   10.130470340    9.550451608
    0.781469115    4.801130644   10.121689285    9.542195952
    0.788647746    4.797867940   10.112848491    9.533883939
    0.795826377    4.794583330   10.103948401    9.525515994
    0.803005008    4.791276972   10.094989454    9.517092543
    0.810183639    4.787949023   10.085972095    9.508614011
    0.817362270    4.784599640   10.076896765    9.500080824
    0.824540902    4.781228980   10.067763908    9.491493410
    0.831719533    4.777837201   10.058573967    9.482852195
    0.838898164    4.774424459   10.049327385    9.474157607
    0.846076795    4.770990912   10.040024606    9.465410074
    0.853255426    4.767536715   10.030666076    9.456610024
    0.860434057    4.764062024   10.021252237    9.447757886
    0.867612688    4.760566997   10.011783535    9.438854088
    0.874791319    4.757051790   10.002260415    9.429899060
    0.881969950    4.753516557    9.992683321    9.420893229
    0.889148581    4.749961455    9.983052699    9.411837026
    0.896327212    4.746386639    9.973368994    9.402730880
    0.903505843    4.742792265    9.963632652    9.393575221
    0.910684474    4.739178487    9.953844118    9.384370477
    0.917863105    4.735545460    9.944003837    9.375117078
    0.925041736    4.731893339    9.934112255    9.365815454
    0.932220367    4.728222278    9.924169817    9.356466035
    0.939398998    4.724532432    9.914176970    9.347069249
    0.946577629    4.720823954    9.904134158    9.337625527
    0.953756260    4.717096997    9.894041826    9.328135296
    0.960934891    4.713351716    9.883900420    9.318598987
    0.968113523    4.709588263    9.873710385    9.309017028
    0.975292154    4.705806792    9.863472166    9.299389848
    0.982470785    4.702007454    9.853186207    9.289717875
    0.989649416    4.698190403    9.842852953    9.280001537
    0.996828047    4.694355790    9.832472849    9.270241263
    1.004006678    4.690503767    9.822046337    9.260437478
    1.011185309    4.686634486    9.811573862    9.250590612
    1.018363940    4.682748098    9.801055866    9.240701090
    1.025542571    4.678844753    9.790492794    9.230769338
    1.032721202    4.674924603    9.779885087    9.220795783
    1.039899833    4.670987798    9.769233188    9.210780849
    1.047078464    4.667034488    9.758537538    9.200724962
    1.054257095    4.663064822    9.747798579    9.190628547
    1.061435726    4.659078951    9.737016751    9.180492025
    1.068614357    4.655077023    9.726192494    9.170315822
    1.075792988    4.651059186    9.715326249    9.160100359
    1.082971619    4.647025590    9.704418454    9.149846059
    1.090150250    4.642976383    9.693469547    9.139553341
    1.097328881    4.638911712    9.682479968    9.129222628
    1.104507513    4.634831724    9.671450153    9.118854339
    1.111686144    4.630736568    9.660380538    9.108448892
    1.118864775    4.626626389    9.649271560    9.098006707
    1.126043406    4.622501335    9.638123653    9.087528200
    1.133222037    4.618361550    9.626937253    9.077013788
    1.140400668    4.614207182    9.615712792    9.066463887
    1.147579299    4.610038375    9.604450704    9.055878912
    1.154757930    4.605855274    9.593151420    9.045259276
    1.161936561    4.601658024    9.581815372    9.034605394
    1.169115192    4.597446770    9.570442990    9.023917676
    1.176293823    4.593221654    9.559034703    9.013196535
    1.183472454    4.588982821    9.547590940    9.002442379
    1.190651085    4.584730414    9.536112128    8.991655619
    1.197829716    4.580464575    9.524598695    8.980836663
    1.205008347    4.576185448    9.513051064    8.969985916
    1.212186978    4.571893172    9.501469662    8.959103786
    1.219365609    4.567587892    9.489854911    8.948190677
    1.226544240    4.563269746    9.478207234    8.937246993
    1.233722871    4.558938877    9.466527052    8.926273135
    1.240901503    4.554595425    9.454814785    8.915269506
    1.248080134    4.550239529    9.443070854    8.904236506
    1.255258765    4.545871329    9.431295674    8.893174533
    1.262437396    4.541490965    9.419489664    8.882083985
    1.269616027    4.537098575    9.407653239    8.870965259
    1.276794658    4.532694296    9.395786814    8.859818749
    1.283973289    4.528278268    9.383890801    8.848644850
    1.291151920    4.523850628    9.371965612    8.837443953
    1.298330551    4.519411512    9.360011658    8.826216451
    1.305509182    4.514961057    9.348029349    8.814962732
    1.312687813    4.510499399    9.336019091    8.803683185
    1.319866444    4.506026674    9.323981293    8.792378198
    1.327045075    4.501543017    9.311916360    8.781048156
    1.334223706    4.497048564    9.299824694    8.769693443
    1.341402337    4.492543447    9.287706700    8.758314441
    1.348580968    4.488027802    9.275562777    8.746911533
    1.355759599    4.483501761    9.263393327    8.735485098
    1.362938230    4.478965458    9.251198746    8.724035514
    1.370116861    4.474419026    9.238979432    8.712563158
    1.377295492    4.469862595    9.226735781    8.701068406
    1.384474124    4.465296298    9.214468186    8.689551631
    1.391652755    4.460720267    9.202177039    8.678013205
    1.398831386    4.456134631    9.189862732    8.666453500
    1.406010017    4.451539520    9.177525653    8.654872883
    1.413188648    4.446935065    9.165166191    8.643271723
    1.420367279    4.442321395    9.152784732    8.631650386
    1.427545910    4.437698639    9.140381659    8.620009235
    1.434724541    4.433066924    9.127957357    8.608348634
    1.441903172    4.428426378    9.115512206    8.596668943
    1.449081803    4.423777130    9.103046587    8.584970522
    1.456260434    4.419119305    9.090560876    8.573253728
    1.463439065    4.414453029    9.078055452    8.561518917
    1.470617696    4.409778430    9.065530688    8.549766443
    1.477796327    4.405095632    9.052986958    8.537996660
    1.484974958    4.400404759    9.040424632    8.526209918
    1.492153589    4.395705937    9.027844082    8.514406565
    1.499332220    4.390999288    9.015245674    8.502586950
    1.506510851    4.386284937    9.002629775    8.490751419
    1.513689482    4.381563005    8.989996749    8.478900314
    1.520868114    4.376833616    8.977346960    8.467033978
    1.528046745    4.372096891    8.964680767    8.455152752
    1.535225376    4.367352951    8.951998531    8.443256974
    1.542404007    4.362601918    8.939300609    8.431346981
    1.549582638    4.357843910    8.926587356    8.419423108
    1.556761269    4.353079048    8.913859127    8.407485687
    1.563939900    4.348307452    8.901116272    8.395535052
    1.571118531    4.343529239    8.888359143    8.383571530
    1.578297162    4.338744528    8.875588088    8.371595450
    1.585475793    4.333953436    8.862803453    8.359607138
    1.592654424    4.329156081    8.850005583    8.347606917
    1.599833055    4.324352578    8.837194820    8.335595110
    1.607011686    4.319543045    8.824371507    8.323572038
    1.614190317    4.314727596    8.811535981    8.311538019
    1.621368948    4.309906346    8.798688581    8.299493369
    1.628547579    4.305079410    8.785829640    8.287438403
    1.635726210    4.300246901    8.772959494    8.275373435
    1.642904841    4.295408934    8.760078473    8.263298774
    1.650083472    4.290565619    8.747186907    8.251214731
    1.657262104    4.285717071    8.734285123    8.239121613
    1.664440735    4.280863400    8.721373449    8.227019725
    1.671619366    4.276004718    8.708452206    8.214909370
    1.678797997    4.271141134    8.695521718    8.202790851
    1.685976628    4.266272760    8.682582304    8.190664466
    1.693155259    4.261399704    8.669634283    8.178530514
    1.700333890    4.256522076    8.656677971    8.166389290
    1.707512521    4.251639984    8.643713681    8.154241089
    1.714691152    4.246753536    8.630741727    8.142086202
    1.721869783    4.241862838    8.617762418    8.129924920
    1.729048414    4.236967999    8.604776063    8.117757531
    1.736227045    4.232069123    8.591782969    8.105584321
    1.743405676    4.227166316    8.578783439    8.093405575
    1.750584307    4.222259684    8.565777777    8.081221575
    1.757762938    4.217349331    8.552766282    8.069032601
    1.764941569    4.212435360    8.539749253    8.056838933
    1.772120200    4.207517876    8.526726988    8.044640847
    1.779298831    4.202596981    8.513699780    8.032438618
    1.786477462    4.197672777    8.500667923    8.020232519
    1.793656093    4.192745366    8.487631706    8.008022821
    1.800834725    4.187814849    8.474591419    7.995809792
    1.808013356    4.182881326    8.461547348    7.983593701
    1.815191987    4.177944898    8.448499779    7.971374811
    1.822370618    4.173005663    8.435448993    7.959153387
    1.829549249    4.168063722    8.422395272    7.946929690
    1.836727880    4.163119171    8.409338894    7.934703979
    1.843906511    4.158172109    8.396280137    7.922476513
    1.851085142    4.153222633    8.383219275    7.910247545
    1.858263773    4.148270840    8.370156582    7.898017331
    1.865442404    4.143316825    8.357092327    7.885786122
    1.872621035    4.138360684    8.344026780    7.873554168
    1.879799666    4.133402511    8.330960208    7.861321717
    1.886978297    4.128442402    8.317892876    7.849089015
    1.894156928    4.123480450    8.304825047    7.836856306
    1.901335559    4.118516748    8.291756982    7.824623833
    1.908514190    4.113551388    8.278688941    7.812391836
    1.915692821    4.108584463    8.265621179    7.800160553
    1.922871452    4.103616064    8.252553953    7.787930221
    1.930050083    4.098646283    8.239487515    7.775701076
    1.937228715    4.093675209    8.226422117    7.763473348
    1.944407346    4.088702932    8.213358009    7.751247271
    1.951585977    4.083729541    8.200295436    7.739023072
    1.958764608    4.078755125    8.187234646    7.726800980
    1.965943239    4.073779773    8.174175881    7.714581218
    1.973121870    4.068803571    8.161119382    7.702364012
    1.980300501    4.063826607    8.148065390    7.690149582
    1.987479132    4.058848967    8.135014142    7.677938149
    1.994657763    4.053870736    8.121965873    7.665729929
    2.001836394    4.048892001    8.108920817    7.653525141
    2.009015025    4.043912845    8.095879206    7.641323996
    2.016193656    4.038933353    8.082841271    7.629126709
    2.023372287    4.033953609    8.069807238    7.616933490
    2.030550918    4.028973695    8.056777334    7.604744546
    2.037729549    4.023993693    8.043751784    7.592560086
    2.044908180    4.019013687    8.030730809    7.580380315
    2.052086811    4.014033756    8.017714629    7.568205435
    2.059265442    4.009053982    8.004703464    7.556035649
    2.066444073    4.004074445    7.991697529    7.543871156
    2.073622705    3.999095225    7.978697039    7.531712154
    2.080801336    3.994116400    7.965702208    7.519558838
    2.087979967    3.989138049    7.952713246    7.507411404
    2.095158598    3.984160251    7.939730362    7.495270045
    2.102337229    3.979183082    7.926753763    7.483134950
    2.109515860    3.974206620    7.913783655    7.471006309
    2.116694491    3.969230940    7.900820241    7.458884309
    2.123873122    3.964256118    7.887863723    7.446769135
    2.131051753    3.959282231    7.874914300    7.434660973
    2.138230384    3.954309351    7.861972170    7.422560003
    2.145409015    3.949337554    7.849037530    7.410466405
    2.152587646    3.944366913    7.836110574    7.398380360
    2.159766277    3.939397500    7.823191493    7.386302042
    2.166944908    3.934429389    7.810280480    7.374231629
    2.174123539    3.929462652    7.797377723    7.362169292
    2.181302170    3.924497359    7.784483408    7.350115204
    2.188480801    3.919533581    7.771597722    7.338069536
    2.195659432    3.914571389    7.758720847    7.326032454
    2.202838063    3.909610853    7.745852966    7.314004127
    2.210016694    3.904652041    7.732994257    7.301984719
    2.217195326    3.899695023    7.720144901    7.289974393
    2.224373957    3.894739866    7.707305072    7.277973312
    2.231552588    3.889786638    7.694474945    7.265981635
    2.238731219    3.884835406    7.681654694    7.253999521
    2.245909850    3.879886237    7.668844490    7.242027127
    2.253088481    3.874939196    7.656044501    7.230064608
    2.260267112    3.869994350    7.643254897    7.218112117
    2.267445743    3.865051762    7.630475842    7.206169807
    2.274624374    3.860111498    7.617707502    7.194237827
    2.281803005    3.855173621    7.604950038    7.182316328
    2.288981636    3.850238195    7.592203612    7.170405455
    2.296160267    3.845305282    7.579468384    7.158505355
    2.303338898    3.840374945    7.566744510    7.146616172
    2.310517529    3.835447246    7.554032146    7.134738047
    2.317696160    3.830522246    7.541331447    7.122871123
    2.324874791    3.825600005    7.528642566    7.111015538
    2.332053422    3.820680584    7.515965653    7.099171431
    2.339232053    3.815764043    7.503300857    7.087338937
    2.346410684    3.810850441    7.490648327    7.075518192
    2.353589316    3.805939836    7.478008209    7.063709329
    2.360767947    3.801032287    7.465380646    7.051912479
    2.367946578    3.796127851    7.452765782    7.040127773
    2.375125209    3.791226586    7.440163759    7.028355340
    2.382303840    3.786328549    7.427574715    7.016595307
    2.389482471    3.781433795    7.414998789    7.004847800
    2.396661102    3.776542380    7.402436117    6.993112943
    2.403839733    3.771654360    7.389886835    6.981390859
    2.411018364    3.766769789    7.377351076    6.969681670
    2.418196995    3.761888721    7.364828971    6.957985496
    2.425375626    3.757011211    7.352320652    6.946302455
    2.432554257    3.752137310    7.339826246    6.934632665
    2.439732888    3.747267073    7.327345881    6.922976241
    2.446911519    3.742400551    7.314879684    6.911333298
    2.454090150    3.737537796    7.302427777    6.899703949
    2.461268781    3.732678859    7.289990285    6.888088305
    2.468447412    3.727823792    7.277567328    6.876486476
    2.475626043    3.722972644    7.265159026    6.864898572
    2.482804674    3.718125465    7.252765498    6.853324700
    2.489983306    3.713282305    7.240386860    6.841764965
    2.497161937    3.708443213    7.228023228    6.830219474
    2.504340568    3.703608237    7.215674715    6.818688328
    2.511519199    3.698777425    7.203341435    6.807171631
    2.518697830    3.693950824    7.191023499    6.795669482
    2.525876461    3.689128482    7.178721016    6.784181982
    2.533055092    3.684310445    7.166434094    6.772709229
    2.540233723    3.679496759    7.154162841    6.761251319
