# energy grid [eV]     ieps_x  ieps_y  ieps_z
#
    0.200000000    2.622480962    4.491000633    4.919216112
    0.207178631    2.622073410    4.490195885    4.918456392
    0.214357262    2.621651716    4.489363175    4.917670198
    0.221535893    2.621215905    4.488502547    4.916857563
    0.228714524    2.620766000    4.487614043    4.916018520
    0.235893155    2.620302027    4.486697710    4.915153105
    0.243071786    2.619824012    4.485753595    4.914261353
    0.250250417    2.619331982    4.484781744    4.913343300
    0.257429048    2.618825964    4.483782209    4.912398985
    0.264607679    2.618305985    4.482755040    4.911428447
    0.271786311    2.617772076    4.481700290    4.910431724
    0.278964942    2.617224265    4.480618011    4.909408859
    0.286143573    2.616662583    4.479508259    4.908359893
    0.293322204    2.616087061    4.478371091    4.907284869
    0.300500835    2.615497732    4.477206564    4.906183832
    0.307679466    2.614894627    4.476014737    4.905056826
    0.314858097    2.614277779    4.474795669    4.903903897
    0.322036728    2.613647224    4.473549424    4.902725094
    0.329215359    2.613002995    4.472276064    4.901520463
    0.336393990    2.612345129    4.470975652    4.900290054
    0.343572621    2.611673660    4.469648254    4.899033917
    0.350751252    2.610988627    4.468293938    4.897752103
    0.357929883    2.610290066    4.466912771    4.896444665
    0.365108514    2.609578015    4.465504821    4.895111655
    0.372287145    2.608852515    4.464070161    4.893753128
    0.379465776    2.608113603    4.462608861    4.892369139
    0.386644407    2.607361321    4.461120994    4.890959743
    0.393823038    2.606595709    4.459606635    4.889524999
    0.401001669    2.605816808    4.458065858    4.888064963
    0.408180301    2.605024662    4.456498741    4.886579695
    0.415358932    2.604219312    4.454905361    4.885069255
    0.422537563    2.603400803    4.453285797    4.883533703
    0.429716194    2.602569177    4.451640129    4.881973101
    0.436894825    2.601724481    4.449968438    4.880387512
    0.444073456    2.600866760    4.448270807    4.878777000
    0.451252087    2.599996058    4.446547319    4.877141629
    0.458430718    2.599112424    4.444798059    4.875481464
    0.465609349    2.598215903    4.443023113    4.873796573
    0.472787980    2.597306545    4.441222567    4.872087021
    0.479966611    2.596384397    4.439396509    4.870352877
    0.487145242    2.595449507    4.437545029    4.868594211
    0.494323873    2.594501927    4.435668216    4.866811092
    0.501502504    2.593541705    4.433766162    4.865003591
    0.508681135    2.592568893    4.431838959    4.863171779
    0.515859766    2.591583542    4.429886700    4.861315729
    0.523038397    2.590585703    4.427909479    4.859435515
    0.530217028    2.589575428    4.425907392    4.857531210
    0.537395659    2.588552771    4.423880535    4.855602890
    0.544574290    2.587517785    4.421829005    4.853650630
    0.551752922    2.586470524    4.419752901    4.851674507
    0.558931553    2.585411042    4.417652321    4.849674598
    0.566110184    2.584339395    4.415527367    4.847650982
    0.573288815    2.583255636    4.413378138    4.845603738
    0.580467446    2.582159823    4.411204737    4.843532945
    0.587646077    2.581052012    4.409007267    4.841438685
    0.594824708    2.579932260    4.406785832    4.839321038
    0.602003339    2.578800624    4.404540537    4.837180087
    0.609181970    2.577657161    4.402271487    4.835015915
    0.616360601    2.576501931    4.399978788    4.832828606
    0.623539232    2.575334991    4.397662549    4.830618243
    0.630717863    2.574156402    4.395322877    4.828384913
    0.637896494    2.572966222    4.392959882    4.826128700
    0.645075125    2.571764512    4.390573673    4.823849692
    0.652253756    2.570551332    4.388164361    4.821547976
    0.659432387    2.569326742    4.385732057    4.819223640
    0.666611018    2.568090805    4.383276874    4.816876772
    0.673789649    2.566843582    4.380798925    4.814507463
    0.680968280    2.565585135    4.378298323    4.812115801
    0.688146912    2.564315526    4.375775183    4.809701879
    0.695325543    2.563034818    4.373229620    4.807265787
    0.702504174    2.561743075    4.370661751    4.804807617
    0.709682805    2.560440359    4.368071691    4.802327462
    0.716861436    2.559126736    4.365459558    4.799825416
    0.724040067    2.557802268    4.362825471    4.797301572
    0.731218698    2.556467021    4.360169547    4.794756025
    0.738397329    2.555121060    4.357491907    4.792188871
    0.745575960    2.553764449    4.354792670    4.789600204
    0.752754591    2.552397255    4.352071957    4.786990122
    0.759933222    2.551019543    4.349329889    4.784358722
    0.767111853    2.549631379    4.346566588    4.781706100
    0.774290484    2.548232830    4.343782176    4.779032356
    0.781469115    2.546823963    4.340976776    4.776337587
    0.788647746    2.545404844    4.338150512    4.773621894
    0.795826377    2.543975541    4.335303508    4.770885375
    0.803005008    2.542536122    4.332435889    4.768128132
    0.810183639    2.541086654    4.329547779    4.765350264
    0.817362270    2.539627205    4.326639305    4.762551874
    0.824540902    2.538157843    4.323710593    4.759733064
    0.831719533    2.536678638    4.320761768    4.756893935
    0.838898164    2.535189658    4.317792959    4.754034591
    0.846076795    2.533690971    4.314804292    4.751155134
    0.853255426    2.532182648    4.311795897    4.748255669
    0.860434057    2.530664757    4.308767900    4.745336301
    0.867612688    2.529137368    4.305720432    4.742397133
    0.874791319    2.527600551    4.302653621    4.739438270
    0.881969950    2.526054375    4.299567597    4.736459820
    0.889148581    2.524498912    4.296462491    4.733461886
    0.896327212    2.522934230    4.293338432    4.730444577
    0.903505843    2.521360401    4.290195551    4.727407999
    0.910684474    2.519777496    4.287033979    4.724352259
    0.917863105    2.518185584    4.283853849    4.721277464
    0.925041736    2.516584738    4.280655290    4.718183724
    0.932220367    2.514975027    4.277438437    4.715071146
    0.939398998    2.513356523    4.274203420    4.711939839
    0.946577629    2.511729298    4.270950373    4.708789912
    0.953756260    2.510093422    4.267679429    4.705621475
    0.960934891    2.508448968    4.264390720    4.702434637
    0.968113523    2.506796006    4.261084380    4.699229510
    0.975292154    2.505134609    4.257760543    4.696006202
    0.982470785    2.503464848    4.254419343    4.692764826
    0.989649416    2.501786795    4.251060913    4.689505492
    0.996828047    2.500100522    4.247685388    4.686228312
    1.004006678    2.498406101    4.244292902    4.682933397
    1.011185309    2.496703604    4.240883590    4.679620859
    1.018363940    2.494993102    4.237457586    4.676290811
    1.025542571    2.493274669    4.234015027    4.672943365
    1.032721202    2.491548376    4.230556045    4.669578634
    1.039899833    2.489814295    4.227080778    4.666196731
    1.047078464    2.488072499    4.223589360    4.662797770
    1.054257095    2.486323059    4.220081926    4.659381863
    1.061435726    2.484566048    4.216558612    4.655949124
    1.068614357    2.482801539    4.213019553    4.652499668
    1.075792988    2.481029603    4.209464886    4.649033608
    1.082971619    2.479250313    4.205894745    4.645551059
    1.090150250    2.477463741    4.202309267    4.642052135
    1.097328881    2.475669958    4.198708588    4.638536952
    1.104507513    2.473869038    4.195092842    4.635005623
    1.111686144    2.472061052    4.191462167    4.631458264
    1.118864775    2.470246072    4.187816697    4.627894990
    1.126043406    2.468424171    4.184156568    4.624315917
    1.133222037    2.466595420    4.180481917    4.620721159
    1.140400668    2.464759892    4.176792879    4.617110833
    1.147579299    2.462917658    4.173089590    4.613485054
    1.154757930    2.461068789    4.169372185    4.609843938
    1.161936561    2.459213359    4.165640800    4.606187601
    1.169115192    2.457351438    4.161895571    4.602516159
    1.176293823    2.455483098    4.158136633    4.598829728
    1.183472454    2.453608410    4.154364121    4.595128425
    1.190651085    2.451727446    4.150578171    4.591412365
    1.197829716    2.449840277    4.146778918    4.587681665
    1.205008347    2.447946974    4.142966496    4.583936441
    1.212186978    2.446047609    4.139141042    4.580176811
    1.219365609    2.444142252    4.135302689    4.576402889
    1.226544240    2.442230974    4.131451572    4.572614794
    1.233722871    2.440313846    4.127587826    4.568812640
    1.240901503    2.438390939    4.123711584    4.564996546
    1.248080134    2.436462322    4.119822982    4.561166628
    1.255258765    2.434528067    4.115922153    4.557323001
    1.262437396    2.432588242    4.112009231    4.553465784
    1.269616027    2.430642920    4.108084349    4.549595092
    1.276794658    2.428692168    4.104147641    4.545711042
    1.283973289    2.426736057    4.100199240    4.541813750
    1.291151920    2.424774657    4.096239279    4.537903334
    1.298330551    2.422808036    4.092267890    4.533979909
    1.305509182    2.420836265    4.088285205    4.530043592
    1.312687813    2.418859411    4.084291358    4.526094500
    1.319866444    2.416877544    4.080286480    4.522132749
    1.327045075    2.414890733    4.076270702    4.518158454
    1.334223706    2.412899046    4.072244157    4.514171733
    1.341402337    2.410902551    4.068206974    4.510172702
    1.348580968    2.408901316    4.064159286    4.506161475
    1.355759599    2.406895410    4.060101221    4.502138171
    1.362938230    2.404884899    4.056032912    4.498102903
    1.370116861    2.402869852    4.051954487    4.494055789
    1.377295492    2.400850335    4.047866075    4.489996943
    1.384474124    2.398826416    4.043767808    4.485926481
    1.391652755    2.396798161    4.039659812    4.481844519
    1.398831386    2.394765637    4.035542217    4.477751172
    1.406010017    2.392728911    4.031415151    4.473646555
    1.413188648    2.390688048    4.027278742    4.469530782
    1.420367279    2.388643115    4.023133117    4.465403970
    1.427545910    2.386594177    4.018978404    4.461266231
    1.434724541    2.384541299    4.014814729    4.457117682
    1.441903172    2.382484548    4.010642219    4.452958436
    1.449081803    2.380423986    4.006460999    4.448788608
    1.456260434    2.378359681    4.002271196    4.444608311
    1.463439065    2.376291695    3.998072934    4.440417660
    1.470617696    2.374220093    3.993866338    4.436216767
    1.477796327    2.372144939    3.989651533    4.432005747
    1.484974958    2.370066296    3.985428643    4.427784713
    1.492153589    2.367984229    3.981197791    4.423553777
    1.499332220    2.365898799    3.976959100    4.419313052
    1.506510851    2.363810071    3.972712693    4.415062652
    1.513689482    2.361718106    3.968458693    4.410802688
    1.520868114    2.359622968    3.964197221    4.406533272
    1.528046745    2.357524717    3.959928398    4.402254517
    1.535225376    2.355423416    3.955652346    4.397966534
    1.542404007    2.353319126    3.951369184    4.393669434
    1.549582638    2.351211909    3.947079034    4.389363330
    1.556761269    2.349101825    3.942782014    4.385048330
    1.563939900    2.346988935    3.938478243    4.380724547
    1.571118531    2.344873300    3.934167841    4.376392091
    1.578297162    2.342754978    3.929850925    4.372051072
    1.585475793    2.340634032    3.925527612    4.367701599
    1.592654424    2.338510518    3.921198021    4.363343782
    1.599833055    2.336384498    3.916862267    4.358977731
    1.607011686    2.334256029    3.912520467    4.354603554
    1.614190317    2.332125171    3.908172737    4.350221360
    1.621368948    2.329991981    3.903819191    4.345831258
    1.628547579    2.327856517    3.899459944    4.341433356
    1.635726210    2.325718838    3.895095110    4.337027761
    1.642904841    2.323579000    3.890724804    4.332614582
    1.650083472    2.321437060    3.886349137    4.328193924
    1.657262104    2.319293076    3.881968223    4.323765896
    1.664440735    2.317147104    3.877582174    4.319330603
    1.671619366    2.314999199    3.873191100    4.314888152
    1.678797997    2.312849418    3.868795114    4.310438649
    1.685976628    2.310697816    3.864394325    4.305982199
    1.693155259    2.308544448    3.859988844    4.301518907
    1.700333890    2.306389369    3.855578780    4.297048879
    1.707512521    2.304232633    3.851164241    4.292572219
    1.714691152    2.302074295    3.846745336    4.288089031
    1.721869783    2.299914409    3.842322173    4.283599419
    1.729048414    2.297753028    3.837894858    4.279103486
    1.736227045    2.295590205    3.833463500    4.274601336
    1.743405676    2.293425994    3.829028202    4.270093071
    1.750584307    2.291260446    3.824589071    4.265578794
    1.757762938    2.289093615    3.820146213    4.261058606
    1.764941569    2.286925551    3.815699731    4.256532609
    1.772120200    2.284756307    3.811249729    4.252000906
    1.779298831    2.282585934    3.806796310    4.247463595
    1.786477462    2.280414483    3.802339577    4.242920779
    1.793656093    2.278242004    3.797879633    4.238372557
    1.800834725    2.276068548    3.793416578    4.233819029
    1.808013356    2.273894165    3.788950514    4.229260294
    1.815191987    2.271718904    3.784481541    4.224696451
    1.822370618    2.269542814    3.780009759    4.220127598
    1.829549249    2.267365945    3.775535267    4.215553835
    1.836727880    2.265188346    3.771058164    4.210975259
    1.843906511    2.263010063    3.766578547    4.206391966
    1.851085142    2.260831146    3.762096515    4.201804054
    1.858263773    2.258651643    3.757612165    4.197211620
    1.865442404    2.256471599    3.753125591    4.192614760
    1.872621035    2.254291063    3.748636892    4.188013568
    1.879799666    2.252110081    3.744146160    4.183408142
    1.886978297    2.249928699    3.739653492    4.178798575
    1.894156928    2.247746964    3.735158981    4.174184962
    1.901335559    2.245564920    3.730662720    4.169567397
    1.908514190    2.243382613    3.726164802    4.164945974
    1.915692821    2.241200089    3.721665320    4.160320786
    1.922871452    2.239017391    3.717164364    4.155691925
    1.930050083    2.236834564    3.712662027    4.151059484
    1.937228715    2.234651653    3.708158398    4.146423555
    1.944407346    2.232468700    3.703653568    4.141784229
    1.951585977    2.230285749    3.699147625    4.137141598
    1.958764608    2.228102843    3.694640659    4.132495752
    1.965943239    2.225920025    3.690132756    4.127846781
    1.973121870    2.223737336    3.685624006    4.123194774
    1.980300501    2.221554820    3.681114494    4.118539822
    1.987479132    2.219372517    3.676604307    4.113882013
    1.994657763    2.217190468    3.672093531    4.109221434
    2.001836394    2.215008716    3.667582251    4.104558176
    2.009015025    2.212827301    3.663070551    4.099892323
    2.016193656    2.210646262    3.658558515    4.095223965
    2.023372287    2.208465640    3.654046227    4.090553187
    2.030550918    2.206285474    3.649533768    4.085880076
    2.037729549    2.204105805    3.645021223    4.081204716
    2.044908180    2.201926671    3.640508671    4.076527194
    2.052086811    2.199748110    3.635996194    4.071847594
    2.059265442    2.197570161    3.631483873    4.067166001
    2.066444073    2.195392862    3.626971787    4.062482498
    2.073622705    2.193216252    3.622460015    4.057797169
    2.080801336    2.191040366    3.617948635    4.053110097
    2.087979967    2.188865243    3.613437727    4.048421363
    2.095158598    2.186690919    3.608927367    4.043731051
    2.102337229    2.184517430    3.604417633    4.039039242
    2.109515860    2.182344813    3.599908600    4.034346017
    2.116694491    2.180173104    3.595400344    4.029651456
    2.123873122    2.178002337    3.590892940    4.024955640
    2.131051753    2.175832549    3.586386463    4.020258648
    2.138230384    2.173663774    3.581880987    4.015560560
    2.145409015    2.171496046    3.577376585    4.010861455
    2.152587646    2.169329400    3.572873330    4.006161410
    2.159766277    2.167163870    3.568371294    4.001460504
    2.166944908    2.164999489    3.563870548    3.996758814
    2.174123539    2.162836291    3.559371164    3.992056417
    2.181302170    2.160674308    3.554873213    3.987353389
    2.188480801    2.158513574    3.550376763    3.982649806
    2.195659432    2.156354121    3.545881885    3.977945745
    2.202838063    2.154195980    3.541388647    3.973241279
    2.210016694    2.152039183    3.536897118    3.968536484
    2.217195326    2.149883763    3.532407365    3.963831434
    2.224373957    2.147729750    3.527919454    3.959126202
    2.231552588    2.145577175    3.523433454    3.954420861
    2.238731219    2.143426068    3.518949428    3.949715485
    2.245909850    2.141276460    3.514467444    3.945010145
    2.253088481    2.139128381    3.509987565    3.940304914
    2.260267112    2.136981860    3.505509857    3.935599861
    2.267445743    2.134836927    3.501034382    3.930895060
    2.274624374    2.132693610    3.496561203    3.926190579
    2.281803005    2.130551939    3.492090384    3.921486489
    2.288981636    2.128411943    3.487621987    3.916782859
    2.296160267    2.126273648    3.483156072    3.912079758
    2.303338898    2.124137084    3.478692702    3.907377254
    2.310517529    2.122002277    3.474231935    3.902675417
    2.317696160    2.119869256    3.469773833    3.897974312
    2.324874791    2.117738046    3.465318454    3.893274008
    2.332053422    2.115608676    3.460865857    3.888574572
    2.339232053    2.113481170    3.456416101    3.883876068
    2.346410684    2.111355557    3.451969242    3.879178563
    2.353589316    2.109231860    3.447525339    3.874482123
    2.360767947    2.107110107    3.443084448    3.869786811
    2.367946578    2.104990322    3.438646625    3.865092693
    2.375125209    2.102872530    3.434211926    3.860399832
    2.382303840    2.100756757    3.429780405    3.855708292
    2.389482471    2.098643027    3.425352117    3.851018135
    2.396661102    2.096531363    3.420927116    3.846329425
    2.403839733    2.094421791    3.416505456    3.841642223
    2.411018364    2.092314333    3.412087189    3.836956590
    2.418196995    2.090209013    3.407672369    3.832272589
    2.425375626    2.088105855    3.403261046    3.827590279
    2.432554257    2.086004881    3.398853273    3.822909721
    2.439732888    2.083906114    3.394449100    3.818230974
    2.446911519    2.081809576    3.390048577    3.813554098
    2.454090150    2.079715289    3.385651756    3.808879152
    2.461268781    2.077623276    3.381258684    3.804206194
    2.468447412    2.075533558    3.376869411    3.799535282
    2.475626043    2.073446156    3.372483985    3.794866474
    2.482804674    2.071361091    3.368102454    3.790199827
    2.489983306    2.069278384    3.363724866    3.785535396
    2.497161937    2.067198056    3.359351267    3.780873239
    2.504340568    2.065120127    3.354981704    3.776213412
    2.511519199    2.063044617    3.350616223    3.771555969
    2.518697830    2.060971546    3.346254869    3.766900965
    2.525876461    2.058900934    3.341897688    3.762248454
    2.533055092    2.056832800    3.337544723    3.757598491
    2.540233723    2.054767162    3.333196019    3.752951130
