# energy grid [eV]     epsr_x  epsr_y  epsr_z
#
    0.200000000   10.254450094    5.702097348    9.358153133
    0.207178631   10.256352342    5.703044050    9.359967922
    0.214357262   10.258322676    5.704024709    9.361847725
    0.221535893   10.260361204    5.705039385    9.363792652
    0.228714524   10.262468038    5.706088142    9.365802815
    0.235893155   10.264643294    5.707171046    9.367878330
    0.243071786   10.266887090    5.708288164    9.370019319
    0.250250417   10.269199552    5.709439569    9.372225908
    0.257429048   10.271580807    5.710625332    9.374498225
    0.264607679   10.274030988    5.711845530    9.376836405
    0.271786311   10.276550232    5.713100241    9.379240586
    0.278964942   10.279138681    5.714389546    9.381710911
    0.286143573   10.281796480    5.715713528    9.384247527
    0.293322204   10.284523781    5.717072273    9.386850587
    0.300500835   10.287320737    5.718465871    9.389520247
    0.307679466   10.290187510    5.719894413    9.392256668
    0.314858097   10.293124264    5.721357994    9.395060017
    0.322036728   10.296131168    5.722856710    9.397930464
    0.329215359   10.299208399    5.724390663    9.400868188
    0.336393990   10.302356135    5.725959956    9.403873367
    0.343572621   10.305574562    5.727564695    9.406946190
    0.350751252   10.308863871    5.729204989    9.410086849
    0.357929883   10.312224257    5.730880953    9.413295540
    0.365108514   10.315655923    5.732592701    9.416572467
    0.372287145   10.319159076    5.734340354    9.419917840
    0.379465776   10.322733930    5.736124035    9.423331872
    0.386644407   10.326380704    5.737943871    9.426814784
    0.393823038   10.330099624    5.739799991    9.430366805
    0.401001669   10.333890923    5.741692532    9.433988166
    0.408180301   10.337754841    5.743621630    9.437679109
    0.415358932   10.341691622    5.745587428    9.441439881
    0.422537563   10.345701521    5.747590073    9.445270735
    0.429716194   10.349784798    5.749629717    9.449171932
    0.436894825   10.353941722    5.751706515    9.453143743
    0.444073456   10.358172570    5.753820627    9.457186443
    0.451252087   10.362477625    5.755972219    9.461300318
    0.458430718   10.366857183    5.758161462    9.465485660
    0.465609349   10.371311545    5.760388532    9.469742773
    0.472787980   10.375841024    5.762653610    9.474071967
    0.479966611   10.380445942    5.764956884    9.478473564
    0.487145242   10.385126632    5.767298548    9.482947896
    0.494323873   10.389883438    5.769678803    9.487495304
    0.501502504   10.394716715    5.772097856    9.492116142
    0.508681135   10.399626831    5.774555921    9.496810774
    0.515859766   10.404614168    5.777053222    9.501579579
    0.523038397   10.409679118    5.779589987    9.506422947
    0.530217028   10.414822092    5.782166458    9.511341282
    0.537395659   10.420043516    5.784782883    9.516335006
    0.544574290   10.425343830    5.787439519    9.521404552
    0.551752922   10.430723494    5.790136636    9.526550374
    0.558931553   10.436182988    5.792874514    9.531772943
    0.566110184   10.441722812    5.795653446    9.537072749
    0.573288815   10.447343486    5.798473737    9.542450304
    0.580467446   10.453045558    5.801335708    9.547906141
    0.587646077   10.458829600    5.804239693    9.553440820
    0.594824708   10.464696214    5.807186045    9.559054926
    0.602003339   10.470646031    5.810175133    9.564749074
    0.609181970   10.476679717    5.813207348    9.570523910
    0.616360601   10.482797978    5.816283101    9.576380115
    0.623539232   10.489001556    5.819402829    9.582318408
    0.630717863   10.495291244    5.822566992    9.588339553
    0.637896494   10.501667881    5.825776082    9.594444355
    0.645075125   10.508132364    5.829030623    9.600633677
    0.652253756   10.514685653    5.832331175    9.606908434
    0.659432387   10.521328777    5.835678336    9.613269610
    0.666611018   10.528062842    5.839072753    9.619718257
    0.673789649   10.534889045    5.842515122    9.626255513
    0.680968280   10.541808682    5.846006195    9.632882604
    0.688146912   10.548823162    5.849546791    9.639600862
    0.695325543   10.555934026    5.853137803    9.646411738
    0.702504174   10.563142961    5.856780210    9.653316819
    0.709682805   10.570451828    5.860475087    9.660317849
    0.716861436   10.577862684    5.864223622    9.667416752
    0.724040067   10.585377816    5.868027136    9.674615663
    0.731218698   10.592999782    5.871887102    9.681916962
    0.738397329   10.600731454    5.875805173    9.689323318
    0.745575960   10.608576077    5.879783214    9.696837739
    0.752754591   10.616537342    5.883823342    9.704463639
    0.759933222   10.624619467    5.887927974    9.712204913
    0.767111853   10.632827312    5.892099890    9.720066039
    0.774290484   10.641166508    5.896342311    9.728052199
    0.781469115   10.649643636    5.900658992    9.736169437
    0.788647746   10.658266442    5.905054350    9.744424858
    0.795826377   10.667044122    5.909533621    9.752826887
    0.803005008   10.675987691    5.914103073    9.761385600
    0.810183639   10.685110467    5.918770274    9.770113170
    0.817362270   10.694428720    5.923544464    9.779024450
    0.824540902   10.703962538    5.928437041    9.788137768
    0.831719533   10.713737017    5.933462233    9.797475997
    0.838898164   10.723783892    5.938638022    9.807068049
    0.846076795   10.734143818    5.943987430    9.816950938
    0.853255426   10.744869576    5.949540333    9.827172698
    0.860434057   10.756030603    5.955336016    9.837796496
    0.867612688   10.767719330    5.961426757    9.848906391
    0.874791319   10.780059743    5.967882660    9.860615109
    0.881969950   10.793217592    5.974797426    9.873073326
    0.889148581   10.807407320    5.982292260    9.886475953
    0.896327212   10.822873062    5.990505148    9.901044879
    0.903505843   10.839751232    5.999513227    9.916904132
    0.910684474   10.857444787    6.008979330    9.933511398
    0.917863105   10.872141264    6.016749992    9.947403170
    0.925041736   10.869725351    6.014851960    9.945755842
    0.932220367   10.829041891    5.991335371    9.909350142
    0.939398998   10.781889639    5.964162560    9.867075223
    0.946577629   10.773197602    5.958712780    9.859749029
    0.953756260   10.786545275    5.965710656    9.872453706
    0.960934891   10.804802391    5.975479894    9.889626586
    0.968113523   10.822809936    5.985106433    9.906580845
    0.975292154   10.839625838    5.994058251    9.922460735
    0.982470785   10.855317850    6.002373755    9.937327935
    0.989649416   10.870126778    6.010189110    9.951401344
    0.996828047   10.884276479    6.017630914    9.964884466
    1.004006678   10.897942511    6.024798490    9.977936930
    1.011185309   10.911256685    6.031766456    9.990678624
    1.018363940   10.924317278    6.038590496   10.003198976
    1.025542571   10.937198039    6.045312447   10.015565132
    1.032721202   10.949954961    6.051964126   10.027828110
    1.039899833   10.962631128    6.058570065   10.040027208
    1.047078464   10.975260162    6.065149464   10.052193131
    1.054257095   10.987868662    6.071717565   10.064350205
    1.061435726   11.000477952    6.078286640   10.076517973
    1.068614357   11.013105344    6.084866708   10.088712337
    1.075792988   11.025765067    6.091466060   10.100946401
    1.082971619   11.038468951    6.098091643   10.113231097
    1.090150250   11.051226940    6.104749353   10.125575650
    1.097328881   11.064047486    6.111444260   10.137987933
    1.104507513   11.076937843    6.118180771   10.150474740
    1.111686144   11.089904304    6.124962767   10.163041997
    1.118864775   11.102952377    6.131793706   10.175694924
    1.126043406   11.116086933    6.138676703   10.188438169
    1.133222037   11.129312315    6.145614596   10.201275910
    1.140400668   11.142632432    6.152610001   10.214211937
    1.147579299   11.156050833    6.159665352   10.227249723
    1.154757930   11.169570768    6.166782942   10.240392478
    1.161936561   11.183195236    6.173964945   10.253643192
    1.169115192   11.196927026    6.181213450   10.267004677
    1.176293823   11.210768752    6.188530474   10.280479596
    1.183472454   11.224722881    6.195917988   10.294070491
    1.190651085   11.238791759    6.203377928   10.307779803
    1.197829716   11.252977628    6.210912212   10.321609897
    1.205008347   11.267282649    6.218522752   10.335563072
    1.212186978   11.281708913    6.226211466   10.349641583
    1.219365609   11.296258454    6.233980291   10.363847648
    1.226544240   11.310933266    6.241831191   10.378183465
    1.233722871   11.325735306    6.249766170   10.392651217
    1.240901503   11.340666511    6.257787281   10.407253089
    1.248080134   11.355728801    6.265896636   10.421991271
    1.255258765   11.370924089    6.274096417   10.436867969
    1.262437396   11.386254288    6.282388890   10.451885415
    1.269616027   11.401721319    6.290776411   10.467045874
    1.276794658   11.417327116    6.299261441   10.482351652
    1.283973289   11.433073635    6.307846563   10.497805106
    1.291151920   11.448962858    6.316534490   10.513408650
    1.298330551   11.464996801    6.325328086   10.529164767
    1.305509182   11.481177521    6.334230381   10.545076018
    1.312687813   11.497507123    6.343244592   10.561145051
    1.319866444   11.513987766    6.352374146   10.577374615
    1.327045075   11.530621674    6.361622703   10.593767568
    1.334223706   11.547411144    6.370994183   10.610326897
    1.341402337   11.564358554    6.380492804   10.627055726
    1.348580968   11.581466375    6.390123113   10.643957340
    1.355759599   11.598737187    6.399890032   10.661035201
    1.362938230   11.616173685    6.409798909   10.678292969
    1.370116861   11.633778703    6.419855570   10.695734534
    1.377295492   11.651555228    6.430066393   10.713364037
    1.384474124   11.669506422    6.440438385   10.731185912
    1.391652755   11.687635649    6.450979275   10.749204925
    1.398831386   11.705946504    6.461697630   10.767426220
    1.406010017   11.724442850    6.472602987   10.785855379
    1.413188648   11.743128859    6.483706018   10.804498490
    1.420367279   11.762009065    6.495018728   10.823362227
    1.427545910   11.781088426    6.506554696   10.842453960
    1.434724541   11.800372408    6.518329379   10.861781867
    1.441903172   11.819867075    6.530360483   10.881355097
    1.449081803   11.839579216    6.542668434   10.901183957
    1.456260434   11.859516496    6.555276972   10.921280156
    1.463439065   11.879687660    6.568213921   10.941657109
    1.470617696   11.900102780    6.581512174   10.962330338
    1.477796327   11.920773601    6.595210995   10.983317989
    1.484974958   11.941713976    6.609357746   11.004641509
    1.492153589   11.962940468    6.624010201   11.026326564
    1.499332220   11.984473157    6.639239698   11.048404269
    1.506510851   12.006336756    6.655135493   11.070912884
    1.513689482   12.028562157    6.671810800   11.093900153
    1.520868114   12.051188603    6.689411284   11.117426584
    1.528046745   12.074266715    6.708126924   11.141570014
    1.535225376   12.097862635    6.728208242   11.166431836
    1.542404007   12.122063274    6.749986766   11.192144872
    1.549582638   12.146981267    6.773894060   11.218880789
    1.556761269   12.172752639    6.800450733   11.246846506
    1.563939900   12.199497785    6.830106289   11.276225401
    1.571118531   12.227127439    6.862450364   11.306885447
    1.578297162   12.254536839    6.892945419   11.337167753
    1.585475793   12.276907061    6.901993319   11.359830217
    1.592654424   12.283304319    6.845206279   11.358439027
    1.599833055   12.278535243    6.741890046   11.340214591
    1.607011686   12.290076944    6.703099483   11.346451203
    1.614190317   12.316803425    6.724059184   11.375482368
    1.621368948   12.348462273    6.763209058   11.412048260
    1.628547579   12.380890230    6.804619900   11.450547696
    1.635726210   12.411342501    6.842065256   11.489362816
    1.642904841   12.433979567    6.866699728   11.525968451
    1.650083472   12.445073374    6.875793662   11.552700368
    1.657262104   12.453470839    6.890386150   11.556433756
    1.664440735   12.466784798    6.919384286   11.550870039
    1.671619366   12.491407904    6.961614819   11.571297610
    1.678797997   12.522674191    7.012826607   11.611527138
    1.685976628   12.555631674    7.070534228   11.658798571
    1.693155259   12.588751530    7.132852507   11.708380883
    1.700333890   12.621525918    7.189188706   11.755499036
    1.707512521   12.652752938    7.194979866   11.783483844
    1.714691152   12.679848191    7.056884692   11.757569663
    1.721869783   12.704812649    6.837074899   11.701142387
    1.729048414   12.734396513    6.758157361   11.697360195
    1.736227045   12.767654457    6.777763837   11.729308076
    1.743405676   12.801573641    6.777013098   11.749840236
    1.750584307   12.835686011    6.737555526   11.753029264
    1.757762938   12.871660438    6.742991675   11.777307002
    1.764941569   12.908533776    6.791366179   11.822271010
    1.772120200   12.941420511    6.841378228   11.870665102
    1.779298831   12.962173531    6.865410630   11.912470111
    1.786477462   12.978108596    6.874743246   11.949778147
    1.793656093   13.004214976    6.895084355   11.986294663
    1.800834725   13.028206857    6.893637462   12.002673964
    1.808013356   13.043031084    6.856692737   11.994590502
    1.815191987   13.068575714    6.848588130   12.007530641
    1.822370618   13.107777632    6.878920958   12.048416785
    1.829549249   13.152131512    6.921127742   12.099225164
    1.836727880   13.198191335    6.963941485   12.152115644
    1.843906511   13.245376982    7.004423333   12.203935426
    1.851085142   13.293582888    7.039713683   12.247785231
    1.858263773   13.342184554    7.062831057   12.266388437
    1.865442404   13.392071655    7.074961831   12.261498060
    1.872621035   13.447326341    7.096392593   12.279582926
    1.879799666   13.508084335    7.128975505   12.324486404
    1.886978297   13.571334086    7.164814564   12.377759055
    1.894156928   13.630167645    7.200579336   12.432604895
    1.901335559   13.650892412    7.229870850   12.481992872
    1.908514190   13.573636480    7.240568727   12.512865530
    1.915692821   13.460654296    7.240500652   12.531367540
    1.922871452   13.406115191    7.237479690   12.541103323
    1.930050083   13.371910792    7.224363569   12.534838723
    1.937228715   13.386375485    7.230168166   12.552510039
    1.944407346   13.441082774    7.249038143   12.586189094
    1.951585977   13.500393553    7.254996563   12.600847178
    1.958764608   13.558925045    7.260631355   12.615652505
    1.965943239   13.621881609    7.284897471   12.658213886
    1.973121870   13.686533294    7.318320433   12.714887999
    1.980300501   13.751140710    7.353162140   12.774523055
    1.987479132   13.815839384    7.387421542   12.834243737
    1.994657763   13.880510162    7.420870834   12.893576086
    2.001836394   13.941441155    7.453233687   12.951187195
    2.009015025   13.982364868    7.482704491   13.000782785
    2.016193656   13.972110536    7.505580506   13.030056322
    2.023372287   13.939863927    7.525732672   13.051035449
    2.030550918   13.958803735    7.552555308   13.093494246
    2.037729549   14.014652105    7.584427469   13.151948336
    2.044908180   14.080791075    7.618177808   13.215957938
    2.052086811   14.148561231    7.652889733   13.282305414
    2.059265442   14.216024703    7.688408364   13.350218932
    2.066444073   14.281076645    7.724134163   13.417587796
    2.073622705   14.335779759    7.757348367   13.475853720
    2.080801336   14.368907672    7.784215612   13.512994376
    2.087979967   14.401446449    7.812491741   13.551803114
    2.095158598   14.459038010    7.851710548   13.620237840
    2.102337229   14.532160607    7.898972509   13.708498032
    2.109515860   14.611381066    7.951425689   13.806626352
    2.116694491   14.691299446    8.007060896   13.907287509
    2.123873122   14.760378880    8.057529482   13.989906013
    2.131051753   14.793949168    8.070050232   14.001471997
    2.138230384   14.751890144    7.977954089   13.848123709
    2.145409015   14.672595388    7.828901955   13.609828792
    2.152587646   14.678169456    7.783345122   13.547025988
    2.159766277   14.747806684    7.818847720   13.620686556
    2.166944908   14.828276215    7.874309489   13.730737483
    2.174123539   14.899047746    7.927959503   13.842670319
    2.181302170   14.974144889    7.979992159   13.952950234
    2.188480801   15.063619541    8.032841005   14.063952619
    2.195659432   15.161699459    8.085440016   14.176919619
    2.202838063   15.265638408    8.137515017   14.293713413
    2.210016694   15.374660432    8.189337422   14.415780419
    2.217195326   15.482713932    8.240444701   14.540188726
    2.224373957   15.564399032    8.287722157   14.649344830
    2.231552588   15.581799111    8.327408094   14.711446522
    2.238731219   15.551632734    8.366991396   14.717679675
    2.245909850   15.488884645    8.411864194   14.659264289
    2.253088481   15.395368154    8.458184010   14.534122957
    2.260267112   15.253279029    8.503402288   14.327015961
    2.267445743   15.209244109    8.558914305   14.243869121
    2.274624374   15.275211899    8.626009528   14.297338158
    2.281803005   15.366905871    8.699860020   14.376068570
    2.288981636   15.475254835    8.781950909   14.490335253
    2.296160267   15.590607615    8.863625277   14.630752991
    2.303338898   15.683463342    8.908352404   14.750297271
    2.310517529   15.729338475    8.861690775   14.800870139
    2.317696160   15.771664756    8.778900446   14.781813918
    2.324874791   15.851423280    8.750201023   14.734054848
    2.332053422   15.954540349    8.792234855   14.762736056
    2.339232053   16.062037277    8.837868287   14.865425746
    2.346410684   16.161793145    8.806399033   14.982232019
    2.353589316   16.260277702    8.771514223   15.101794899
    2.360767947   16.351378378    8.736944906   15.221242418
    2.367946578   16.415379664    8.584083164   15.327529468
    2.375125209   16.490144118    8.462819811   15.438505562
    2.382303840   16.601009583    8.496540905   15.563351253
    2.389482471   16.712492166    8.594718251   15.668325164
    2.396661102   16.787051398    8.697434620   15.706839588
    2.403839733   16.843529992    8.797579193   15.708938393
    2.411018364   16.916658500    8.893794182   15.759233687
    2.418196995   16.937939171    8.970912565   15.808639277
    2.425375626   16.897861346    9.033005132   15.822565104
    2.432554257   16.888959803    9.099152771   15.860498495
    2.439732888   16.896207424    9.136240544   15.937435169
    2.446911519   16.887386246    9.118945087   16.037037817
    2.454090150   16.919309258    9.102368973   16.145189395
    2.461268781   17.011069911    9.130721188   16.248202632
    2.468447412   17.094411684    9.192971647   16.341076859
    2.475626043   17.120463650    9.262155061   16.412654962
    2.482804674   17.174601708    9.336050711   16.492203163
    2.489983306   17.301411804    9.427258518   16.625929258
    2.497161937   17.460011455    9.529020624   16.791256376
    2.504340568   17.622624821    9.634496141   16.958734160
    2.511519199   17.770067586    9.738295318   17.087289770
    2.518697830   17.879535047    9.832711090   17.112678734
    2.525876461   17.971297116    9.920911392   17.063421006
    2.533055092   18.062280099    9.986085178   17.012907409
    2.540233723   18.108592371    9.956345458   17.025269079
