# energy grid [eV]     ieps_x  ieps_y  ieps_z
#
    0.200000000    5.626542477    2.760255996    5.399917289
    0.207178631    5.625497514    2.759803413    5.398878649
    0.214357262    5.624416279    2.759335183    5.397803983
    0.221535893    5.623298831    2.758851335    5.396693351
    0.228714524    5.622145231    2.758351904    5.395546817
    0.235893155    5.620955540    2.757836921    5.394364445
    0.243071786    5.619729823    2.757306423    5.393146302
    0.250250417    5.618468146    2.756760444    5.391892456
    0.257429048    5.617170576    2.756199020    5.390602978
    0.264607679    5.615837182    2.755622188    5.389277939
    0.271786311    5.614468036    2.755029987    5.387917414
    0.278964942    5.613063210    2.754422455    5.386521478
    0.286143573    5.611622779    2.753799633    5.385090209
    0.293322204    5.610146819    2.753161561    5.383623686
    0.300500835    5.608635408    2.752508280    5.382121990
    0.307679466    5.607088625    2.751839833    5.380585203
    0.314858097    5.605506551    2.751156263    5.379013410
    0.322036728    5.603889269    2.750457614    5.377406697
    0.329215359    5.602236863    2.749743932    5.375765151
    0.336393990    5.600549419    2.749015261    5.374088863
    0.343572621    5.598827025    2.748271648    5.372377923
    0.350751252    5.597069770    2.747513140    5.370632423
    0.357929883    5.595277744    2.746739786    5.368852459
    0.365108514    5.593451039    2.745951633    5.367038125
    0.372287145    5.591589749    2.745148732    5.365189519
    0.379465776    5.589693968    2.744331133    5.363306741
    0.386644407    5.587763794    2.743498887    5.361389890
    0.393823038    5.585799325    2.742652045    5.359439068
    0.401001669    5.583800659    2.741790660    5.357454379
    0.408180301    5.581767897    2.740914784    5.355435929
    0.415358932    5.579701142    2.740024473    5.353383822
    0.422537563    5.577600498    2.739119779    5.351298168
    0.429716194    5.575466069    2.738200758    5.349179076
    0.436894825    5.573297961    2.737267466    5.347026655
    0.444073456    5.571096283    2.736319959    5.344841019
    0.451252087    5.568861143    2.735358295    5.342622281
    0.458430718    5.566592652    2.734382530    5.340370555
    0.465609349    5.564290922    2.733392723    5.338085958
    0.472787980    5.561956064    2.732388933    5.335768607
    0.479966611    5.559588194    2.731371219    5.333418621
    0.487145242    5.557187427    2.730339642    5.331036120
    0.494323873    5.554753879    2.729294261    5.328621226
    0.501502504    5.552287669    2.728235138    5.326174062
    0.508681135    5.549788915    2.727162335    5.323694750
    0.515859766    5.547257738    2.726075914    5.321183417
    0.523038397    5.544694259    2.724975937    5.318640188
    0.530217028    5.542098601    2.723862468    5.316065192
    0.537395659    5.539470887    2.722735570    5.313458557
    0.544574290    5.536811243    2.721595308    5.310820412
    0.551752922    5.534119795    2.720441747    5.308150889
    0.558931553    5.531396669    2.719274952    5.305450121
    0.566110184    5.528641993    2.718094988    5.302718239
    0.573288815    5.525855898    2.716901922    5.299955380
    0.580467446    5.523038514    2.715695820    5.297161677
    0.587646077    5.520189971    2.714476750    5.294337269
    0.594824708    5.517310402    2.713244779    5.291482291
    0.602003339    5.514399942    2.711999974    5.288596884
    0.609181970    5.511458723    2.710742405    5.285681187
    0.616360601    5.508486882    2.709472140    5.282735340
    0.623539232    5.505484555    2.708189248    5.279759484
    0.630717863    5.502451879    2.706893799    5.276753764
    0.637896494    5.499388993    2.705585862    5.273718322
    0.645075125    5.496296037    2.704265508    5.270653303
    0.652253756    5.493173149    2.702932808    5.267558852
    0.659432387    5.490020471    2.701587833    5.264435116
    0.666611018    5.486838146    2.700230654    5.261282241
    0.673789649    5.483626316    2.698861342    5.258100377
    0.680968280    5.480385125    2.697479970    5.254889673
    0.688146912    5.477114717    2.696086611    5.251650277
    0.695325543    5.473815238    2.694681337    5.248382341
    0.702504174    5.470486834    2.693264220    5.245086017
    0.709682805    5.467129652    2.691835335    5.241761456
    0.716861436    5.463743840    2.690394754    5.238408812
    0.724040067    5.460329547    2.688942552    5.235028239
    0.731218698    5.456886921    2.687478803    5.231619891
    0.738397329    5.453416113    2.686003581    5.228183924
    0.745575960    5.449917275    2.684516961    5.224720494
    0.752754591    5.446390557    2.683019017    5.221229758
    0.759933222    5.442836111    2.681509826    5.217711873
    0.767111853    5.439254092    2.679989462    5.214166998
    0.774290484    5.435644652    2.678458000    5.210595292
    0.781469115    5.432007946    2.676915517    5.206996913
    0.788647746    5.428344128    2.675362089    5.203372023
    0.795826377    5.424653355    2.673797792    5.199720782
    0.803005008    5.420935784    2.672222702    5.196043351
    0.810183639    5.417191569    2.670636897    5.192339893
    0.817362270    5.413420870    2.669040452    5.188610569
    0.824540902    5.409623844    2.667433444    5.184855544
    0.831719533    5.405800650    2.665815952    5.181074981
    0.838898164    5.401951447    2.664188051    5.177269044
    0.846076795    5.398076395    2.662549820    5.173437897
    0.853255426    5.394175654    2.660901336    5.169581706
    0.860434057    5.390249385    2.659242677    5.165700637
    0.867612688    5.386297749    2.657573920    5.161794856
    0.874791319    5.382320908    2.655895144    5.157864529
    0.881969950    5.378319025    2.654206426    5.153909824
    0.889148581    5.374292261    2.652507845    5.149930907
    0.896327212    5.370240780    2.650799479    5.145927947
    0.903505843    5.366164746    2.649081407    5.141901113
    0.910684474    5.362064323    2.647353705    5.137850572
    0.917863105    5.357939675    2.645616455    5.133776494
    0.925041736    5.353790967    2.643869733    5.129679049
    0.932220367    5.349618364    2.642113618    5.125558405
    0.939398998    5.345422032    2.640348189    5.121414733
    0.946577629    5.341202136    2.638573525    5.117248203
    0.953756260    5.336958843    2.636789705    5.113058986
    0.960934891    5.332692320    2.634996807    5.108847253
    0.968113523    5.328402733    2.633194910    5.104613175
    0.975292154    5.324090249    2.631384094    5.100356923
    0.982470785    5.319755036    2.629564436    5.096078670
    0.989649416    5.315397262    2.627736016    5.091778586
    0.996828047    5.311017094    2.625898912    5.087456844
    1.004006678    5.306614701    2.624053205    5.083113616
    1.011185309    5.302190252    2.622198971    5.078749075
    1.018363940    5.297743914    2.620336291    5.074363394
    1.025542571    5.293275857    2.618465243    5.069956744
    1.032721202    5.288786250    2.616585906    5.065529299
    1.039899833    5.284275263    2.614698358    5.061081232
    1.047078464    5.279743063    2.612802678    5.056612717
    1.054257095    5.275189822    2.610898946    5.052123925
    1.061435726    5.270615709    2.608987239    5.047615031
    1.068614357    5.266020893    2.607067637    5.043086208
    1.075792988    5.261405545    2.605140217    5.038537630
    1.082971619    5.256769834    2.603205058    5.033969469
    1.090150250    5.252113931    2.601262238    5.029381899
    1.097328881    5.247438006    2.599311836    5.024775095
    1.104507513    5.242742229    2.597353930    5.020149229
    1.111686144    5.238026771    2.595388598    5.015504474
    1.118864775    5.233291802    2.593415917    5.010841005
    1.126043406    5.228537491    2.591435967    5.006158995
    1.133222037    5.223764011    2.589448824    5.001458617
    1.140400668    5.218971530    2.587454566    4.996740045
    1.147579299    5.214160220    2.585453270    4.992003451
    1.154757930    5.209330251    2.583445015    4.987249009
    1.161936561    5.204481793    2.581429877    4.982476893
    1.169115192    5.199615016    2.579407934    4.977687274
    1.176293823    5.194730091    2.577379262    4.972880326
    1.183472454    5.189827187    2.575343939    4.968056222
    1.190651085    5.184906476    2.573302040    4.963215134
    1.197829716    5.179968126    2.571253643    4.958357235
    1.205008347    5.175012308    2.569198824    4.953482697
    1.212186978    5.170039192    2.567137660    4.948591691
    1.219365609    5.165048947    2.565070225    4.943684391
    1.226544240    5.160041742    2.562996597    4.938760966
    1.233722871    5.155017748    2.560916850    4.933821590
    1.240901503    5.149977133    2.558831061    4.928866433
    1.248080134    5.144920066    2.556739305    4.923895666
    1.255258765    5.139846717    2.554641656    4.918909460
    1.262437396    5.134757253    2.552538190    4.913907986
    1.269616027    5.129651843    2.550428982    4.908891413
    1.276794658    5.124530657    2.548314106    4.903859912
    1.283973289    5.119393860    2.546193636    4.898813652
    1.291151920    5.114241622    2.544067646    4.893752803
    1.298330551    5.109074111    2.541936212    4.888677534
    1.305509182    5.103891492    2.539799405    4.883588013
    1.312687813    5.098693934    2.537657300    4.878484410
    1.319866444    5.093481603    2.535509970    4.873366891
    1.327045075    5.088254666    2.533357487    4.868235625
    1.334223706    5.083013288    2.531199925    4.863090779
    1.341402337    5.077757637    2.529037357    4.857932521
    1.348580968    5.072487877    2.526869854    4.852761016
    1.355759599    5.067204173    2.524697488    4.847576431
    1.362938230    5.061906691    2.522520332    4.842378933
    1.370116861    5.056595596    2.520338457    4.837168685
    1.377295492    5.051271051    2.518151934    4.831945855
    1.384474124    5.045933220    2.515960834    4.826710605
    1.391652755    5.040582268    2.513765228    4.821463100
    1.398831386    5.035218357    2.511565187    4.816203505
    1.406010017    5.029841650    2.509360781    4.810931982
    1.413188648    5.024452310    2.507152079    4.805648694
    1.420367279    5.019050498    2.504939152    4.800353804
    1.427545910    5.013636376    2.502722069    4.795047473
    1.434724541    5.008210106    2.500500900    4.789729864
    1.441903172    5.002771848    2.498275712    4.784401136
    1.449081803    4.997321763    2.496046574    4.779061451
    1.456260434    4.991860010    2.493813556    4.773710969
    1.463439065    4.986386749    2.491576725    4.768349848
    1.470617696    4.980902139    2.489336148    4.762978249
    1.477796327    4.975406339    2.487091894    4.757596328
    1.484974958    4.969899507    2.484844028    4.752204245
    1.492153589    4.964381800    2.482592619    4.746802157
    1.499332220    4.958853376    2.480337733    4.741390220
    1.506510851    4.953314391    2.478079435    4.735968591
    1.513689482    4.947765002    2.475817792    4.730537426
    1.520868114    4.942205363    2.473552870    4.725096879
    1.528046745    4.936635632    2.471284734    4.719647106
    1.535225376    4.931055961    2.469013448    4.714188260
    1.542404007    4.925466505    2.466739078    4.708720495
    1.549582638    4.919867418    2.464461688    4.703243963
    1.556761269    4.914258854    2.462181341    4.697758817
    1.563939900    4.908640963    2.459898103    4.692265209
    1.571118531    4.903013899    2.457612036    4.686763290
    1.578297162    4.897377813    2.455323203    4.681253210
    1.585475793    4.891732856    2.453031667    4.675735118
    1.592654424    4.886079179    2.450737490    4.670209165
    1.599833055    4.880416930    2.448440735    4.664675499
    1.607011686    4.874746259    2.446141464    4.659134268
    1.614190317    4.869067316    2.443839738    4.653585619
    1.621368948    4.863380247    2.441535618    4.648029698
    1.628547579    4.857685201    2.439229165    4.642466653
    1.635726210    4.851982323    2.436920439    4.636896628
    1.642904841    4.846271762    2.434609501    4.631319768
    1.650083472    4.840553661    2.432296410    4.625736217
    1.657262104    4.834828167    2.429981227    4.620146119
    1.664440735    4.829095424    2.427664009    4.614549617
    1.671619366    4.823355575    2.425344816    4.608946852
    1.678797997    4.817608764    2.423023707    4.603337966
    1.685976628    4.811855133    2.420700739    4.597723099
    1.693155259    4.806094825    2.418375970    4.592102393
    1.700333890    4.800327980    2.416049458    4.586475986
    1.707512521    4.794554739    2.413721260    4.580844016
    1.714691152    4.788775243    2.411391432    4.575206623
    1.721869783    4.782989631    2.409060032    4.569563943
    1.729048414    4.777198041    2.406727114    4.563916113
    1.736227045    4.771400612    2.404392736    4.558263268
    1.743405676    4.765597481    2.402056951    4.552605545
    1.750584307    4.759788785    2.399719816    4.546943077
    1.757762938    4.753974661    2.397381384    4.541275999
    1.764941569    4.748155242    2.395041711    4.535604443
    1.772120200    4.742330665    2.392700850    4.529928542
    1.779298831    4.736501063    2.390358855    4.524248427
    1.786477462    4.730666570    2.388015779    4.518564230
    1.793656093    4.724827319    2.385671675    4.512876081
    1.800834725    4.718983442    2.383326596    4.507184108
    1.808013356    4.713135070    2.380980594    4.501488442
    1.815191987    4.707282333    2.378633721    4.495789209
    1.822370618    4.701425363    2.376286028    4.490086538
    1.829549249    4.695564287    2.373937567    4.484380554
    1.836727880    4.689699236    2.371588388    4.478671384
    1.843906511    4.683830336    2.369238542    4.472959153
    1.851085142    4.677957716    2.366888079    4.467243985
    1.858263773    4.672081501    2.364537050    4.461526003
    1.865442404    4.666201818    2.362185502    4.455805332
    1.872621035    4.660318791    2.359833486    4.450082092
    1.879799666    4.654432546    2.357481050    4.444356405
    1.886978297    4.648543205    2.355128243    4.438628392
    1.894156928    4.642650893    2.352775112    4.432898173
    1.901335559    4.636755730    2.350421706    4.427165866
    1.908514190    4.630857840    2.348068071    4.421431591
    1.915692821    4.624957342    2.345714255    4.415695465
    1.922871452    4.619054357    2.343360304    4.409957605
    1.930050083    4.613149005    2.341006265    4.404218127
    1.937228715    4.607241404    2.338652184    4.398477147
    1.944407346    4.601331671    2.336298106    4.392734778
    1.951585977    4.595419926    2.333944076    4.386991136
    1.958764608    4.589506284    2.331590140    4.381246333
    1.965943239    4.583590860    2.329236341    4.375500482
    1.973121870    4.577673771    2.326882725    4.369753694
    1.980300501    4.571755130    2.324529335    4.364006080
    1.987479132    4.565835052    2.322176214    4.358257751
    1.994657763    4.559913649    2.319823406    4.352508815
    2.001836394    4.553991034    2.317470954    4.346759382
    2.009015025    4.548067318    2.315118899    4.341009560
    2.016193656    4.542142611    2.312767286    4.335259454
    2.023372287    4.536217025    2.310416154    4.329509173
    2.030550918    4.530290668    2.308065546    4.323758821
    2.037729549    4.524363649    2.305715502    4.318008504
    2.044908180    4.518436076    2.303366064    4.312258325
    2.052086811    4.512508057    2.301017272    4.306508389
    2.059265442    4.506579696    2.298669166    4.300758797
    2.066444073    4.500651102    2.296321786    4.295009651
    2.073622705    4.494722377    2.293975172    4.289261053
    2.080801336    4.488793628    2.291629361    4.283513103
    2.087979967    4.482864956    2.289284395    4.277765901
    2.095158598    4.476936466    2.286940309    4.272019545
    2.102337229    4.471008259    2.284597144    4.266274134
    2.109515860    4.465080436    2.282254936    4.260529765
    2.116694491    4.459153099    2.279913724    4.254786535
    2.123873122    4.453226347    2.277573543    4.249044540
    2.131051753    4.447300280    2.275234431    4.243303875
    2.138230384    4.441374995    2.272896425    4.237564634
    2.145409015    4.435450591    2.270559561    4.231826911
    2.152587646    4.429527165    2.268223874    4.226090799
    2.159766277    4.423604814    2.265889400    4.220356390
    2.166944908    4.417683632    2.263556174    4.214623777
    2.174123539    4.411763714    2.261224231    4.208893048
    2.181302170    4.405845156    2.258893605    4.203164296
    2.188480801    4.399928050    2.256564331    4.197437608
    2.195659432    4.394012490    2.254236443    4.191713073
    2.202838063    4.388098566    2.251909973    4.185990780
    2.210016694    4.382186371    2.249584956    4.180270815
    2.217195326    4.376275996    2.247261425    4.174553266
    2.224373957    4.370367529    2.244939411    4.168838216
    2.231552588    4.364461061    2.242618948    4.163125752
    2.238731219    4.358556680    2.240300067    4.157415958
    2.245909850    4.352654474    2.237982800    4.151708916
    2.253088481    4.346754529    2.235667178    4.146004711
    2.260267112    4.340856933    2.233353233    4.140303424
    2.267445743    4.334961770    2.231040995    4.134605136
    2.274624374    4.329069127    2.228730495    4.128909929
    2.281803005    4.323179086    2.226421762    4.123217881
    2.288981636    4.317291733    2.224114827    4.117529073
    2.296160267    4.311407149    2.221809720    4.111843583
    2.303338898    4.305525418    2.219506468    4.106161488
    2.310517529    4.299646620    2.217205103    4.100482867
    2.317696160    4.293770836    2.214905651    4.094807794
    2.324874791    4.287898147    2.212608142    4.089136347
    2.332053422    4.282028631    2.210312604    4.083468601
    2.339232053    4.276162369    2.208019063    4.077804628
    2.346410684    4.270299438    2.205727549    4.072144505
    2.353589316    4.264439915    2.203438088    4.066488302
    2.360767947    4.258583877    2.201150706    4.060836093
    2.367946578    4.252731400    2.198865431    4.055187950
    2.375125209    4.246882560    2.196582289    4.049543942
    2.382303840    4.241037432    2.194301306    4.043904142
    2.389482471    4.235196088    2.192022507    4.038268618
    2.396661102    4.229358604    2.189745919    4.032637439
    2.403839733    4.223525051    2.187471566    4.027010673
    2.411018364    4.217695502    2.185199473    4.021388389
    2.418196995    4.211870029    2.182929665    4.015770653
    2.425375626    4.206048701    2.180662167    4.010157531
    2.432554257    4.200231589    2.178397002    4.004549089
    2.439732888    4.194418762    2.176134194    3.998945393
    2.446911519    4.188610290    2.173873767    3.993346506
    2.454090150    4.182806240    2.171615744    3.987752492
    2.461268781    4.177006680    2.169360148    3.982163415
    2.468447412    4.171211677    2.167107001    3.976579336
    2.475626043    4.165421297    2.164856327    3.971000318
    2.482804674    4.159635605    2.162608148    3.965426422
    2.489983306    4.153854667    2.160362485    3.959857707
    2.497161937    4.148078547    2.158119360    3.954294235
    2.504340568    4.142307309    2.155878794    3.948736064
    2.511519199    4.136541015    2.153640810    3.943183252
    2.518697830    4.130779729    2.151405427    3.937635859
    2.525876461    4.125023511    2.149172666    3.932093941
    2.533055092    4.119272424    2.146942548    3.926557555
    2.540233723    4.113526527    2.144715093    3.921026758
