# energy grid [eV]     ieps_x  ieps_y  ieps_z
#
    0.200000000    7.504264772    3.998903666    6.656337026
    0.207178631    7.502741777    3.998256000    6.654967066
    0.214357262    7.501165973    3.997585945    6.653549613
    0.221535893    7.499537451    3.996893547    6.652084752
    0.228714524    7.497856305    3.996178852    6.650572568
    0.235893155    7.496122632    3.995441907    6.649013150
    0.243071786    7.494336532    3.994682762    6.647406590
    0.250250417    7.492498107    3.993901467    6.645752981
    0.257429048    7.490607462    3.993098073    6.644052419
    0.264607679    7.488664705    3.992272633    6.642305004
    0.271786311    7.486669947    3.991425202    6.640510837
    0.278964942    7.484623301    3.990555833    6.638670021
    0.286143573    7.482524883    3.989664583    6.636782665
    0.293322204    7.480374811    3.988751509    6.634848875
    0.300500835    7.478173207    3.987816670    6.632868764
    0.307679466    7.475920194    3.986860125    6.630842445
    0.314858097    7.473615899    3.985881934    6.628770035
    0.322036728    7.471260450    3.984882160    6.626651652
    0.329215359    7.468853979    3.983860864    6.624487418
    0.336393990    7.466396619    3.982818110    6.622277454
    0.343572621    7.463888506    3.981753962    6.620021887
    0.350751252    7.461329780    3.980668487    6.617720845
    0.357929883    7.458720580    3.979561750    6.615374458
    0.365108514    7.456061051    3.978433819    6.612982857
    0.372287145    7.453351338    3.977284762    6.610546179
    0.379465776    7.450591588    3.976114647    6.608064558
    0.386644407    7.447781953    3.974923545    6.605538135
    0.393823038    7.444922584    3.973711527    6.602967049
    0.401001669    7.442013636    3.972478664    6.600351445
    0.408180301    7.439055266    3.971225028    6.597691468
    0.415358932    7.436047634    3.969950692    6.594987264
    0.422537563    7.432990899    3.968655731    6.592238983
    0.429716194    7.429885226    3.967340219    6.589446777
    0.436894825    7.426730780    3.966004231    6.586610799
    0.444073456    7.423527728    3.964647843    6.583731203
    0.451252087    7.420276239    3.963271132    6.580808148
    0.458430718    7.416976485    3.961874176    6.577841793
    0.465609349    7.413628640    3.960457053    6.574832297
    0.472787980    7.410232879    3.959019840    6.571779825
    0.479966611    7.406789378    3.957562619    6.568684542
    0.487145242    7.403298318    3.956085467    6.565546612
    0.494323873    7.399759879    3.954588467    6.562366206
    0.501502504    7.396174244    3.953071699    6.559143493
    0.508681135    7.392541597    3.951535245    6.555878645
    0.515859766    7.388862126    3.949979187    6.552571835
    0.523038397    7.385136018    3.948403608    6.549223239
    0.530217028    7.381363463    3.946808592    6.545833033
    0.537395659    7.377544653    3.945194221    6.542401396
    0.544574290    7.373679782    3.943560581    6.538928509
    0.551752922    7.369769044    3.941907757    6.535414552
    0.558931553    7.365812636    3.940235833    6.531859710
    0.566110184    7.361810757    3.938544895    6.528264167
    0.573288815    7.357763605    3.936835030    6.524628109
    0.580467446    7.353671383    3.935106325    6.520951724
    0.587646077    7.349534294    3.933358866    6.517235201
    0.594824708    7.345352541    3.931592741    6.513478731
    0.602003339    7.341126331    3.929808037    6.509682506
    0.609181970    7.336855871    3.928004844    6.505846720
    0.616360601    7.332541370    3.926183251    6.501971567
    0.623539232    7.328183038    3.924343345    6.498057244
    0.630717863    7.323781087    3.922485217    6.494103947
    0.637896494    7.319335730    3.920608956    6.490111876
    0.645075125    7.314847181    3.918714653    6.486081231
    0.652253756    7.310315655    3.916802399    6.482012213
    0.659432387    7.305741370    3.914872283    6.477905023
    0.666611018    7.301124544    3.912924398    6.473759867
    0.673789649    7.296465395    3.910958835    6.469576948
    0.680968280    7.291764146    3.908975685    6.465356473
    0.688146912    7.287021017    3.906975042    6.461098648
    0.695325543    7.282236231    3.904956997    6.456803682
    0.702504174    7.277410013    3.902921642    6.452471784
    0.709682805    7.272542588    3.900869072    6.448103163
    0.716861436    7.267634182    3.898799379    6.443698031
    0.724040067    7.262685022    3.896712657    6.439256600
    0.731218698    7.257695338    3.894609000    6.434779084
    0.738397329    7.252665358    3.892488501    6.430265696
    0.745575960    7.247595313    3.890351255    6.425716651
    0.752754591    7.242485434    3.888197357    6.421132165
    0.759933222    7.237335955    3.886026901    6.416512455
    0.767111853    7.232147108    3.883839982    6.411857738
    0.774290484    7.226919127    3.881636695    6.407168233
    0.781469115    7.221652249    3.879417136    6.402444159
    0.788647746    7.216346708    3.877181400    6.397685736
    0.795826377    7.211002741    3.874929584    6.392893184
    0.803005008    7.205620588    3.872661782    6.388066725
    0.810183639    7.200200485    3.870378091    6.383206581
    0.817362270    7.194742672    3.868078608    6.378312976
    0.824540902    7.189247390    3.865763428    6.373386131
    0.831719533    7.183714878    3.863432649    6.368426272
    0.838898164    7.178145379    3.861086368    6.363433622
    0.846076795    7.172539135    3.858724680    6.358408409
    0.853255426    7.166896389    3.856347684    6.353350856
    0.860434057    7.161217383    3.853955477    6.348261191
    0.867612688    7.155502363    3.851548155    6.343139640
    0.874791319    7.149751572    3.849125817    6.337986432
    0.881969950    7.143965257    3.846688560    6.332801793
    0.889148581    7.138143663    3.844236481    6.327585952
    0.896327212    7.132287036    3.841769679    6.322339139
    0.903505843    7.126395623    3.839288251    6.317061581
    0.910684474    7.120469672    3.836792295    6.311753510
    0.917863105    7.114509431    3.834281910    6.306415154
    0.925041736    7.108515148    3.831757194    6.301046744
    0.932220367    7.102487072    3.829218244    6.295648511
    0.939398998    7.096425451    3.826665160    6.290220686
    0.946577629    7.090330536    3.824098040    6.284763500
    0.953756260    7.084202576    3.821516981    6.279277184
    0.960934891    7.078041822    3.818922084    6.273761971
    0.968113523    7.071848525    3.816313445    6.268218092
    0.975292154    7.065622934    3.813691164    6.262645779
    0.982470785    7.059365302    3.811055340    6.257045266
    0.989649416    7.053075880    3.808406071    6.251416784
    0.996828047    7.046754919    3.805743456    6.245760566
    1.004006678    7.040402672    3.803067594    6.240076845
    1.011185309    7.034019390    3.800378583    6.234365854
    1.018363940    7.027605327    3.797676522    6.228627827
    1.025542571    7.021160734    3.794961510    6.222862995
    1.032721202    7.014685864    3.792233646    6.217071593
    1.039899833    7.008180971    3.789493029    6.211253854
    1.047078464    7.001646306    3.786739757    6.205410011
    1.054257095    6.995082123    3.783973929    6.199540297
    1.061435726    6.988488675    3.781195643    6.193644945
    1.068614357    6.981866215    3.778405000    6.187724189
    1.075792988    6.975214996    3.775602096    6.181778262
    1.082971619    6.968535271    3.772787032    6.175807396
    1.090150250    6.961827294    3.769959905    6.169811825
    1.097328881    6.955091317    3.767120814    6.163791782
    1.104507513    6.948327594    3.764269858    6.157747500
    1.111686144    6.941536378    3.761407135    6.151679210
    1.118864775    6.934717922    3.758532744    6.145587146
    1.126043406    6.927872478    3.755646782    6.139471540
    1.133222037    6.921000299    3.752749349    6.133332624
    1.140400668    6.914101638    3.749840542    6.127170629
    1.147579299    6.907176747    3.746920459    6.120985788
    1.154757930    6.900225879    3.743989199    6.114778332
    1.161936561    6.893249286    3.741046859    6.108548491
    1.169115192    6.886247220    3.738093538    6.102296498
    1.176293823    6.879219932    3.735129333    6.096022582
    1.183472454    6.872167674    3.732154342    6.089726974
    1.190651085    6.865090697    3.729168662    6.083409904
    1.197829716    6.857989253    3.726172391    6.077071602
    1.205008347    6.850863591    3.723165626    6.070712297
    1.212186978    6.843713962    3.720148465    6.064332217
    1.219365609    6.836540617    3.717121003    6.057931592
    1.226544240    6.829343804    3.714083340    6.051510649
    1.233722871    6.822123774    3.711035570    6.045069617
    1.240901503    6.814880776    3.707977791    6.038608723
    1.248080134    6.807615057    3.704910100    6.032128194
    1.255258765    6.800326867    3.701832592    6.025628256
    1.262437396    6.793016453    3.698745364    6.019109136
    1.269616027    6.785684063    3.695648513    6.012571058
    1.276794658    6.778329944    3.692542133    6.006014249
    1.283973289    6.770954342    3.689426321    5.999438933
    1.291151920    6.763557504    3.686301173    5.992845333
    1.298330551    6.756139675    3.683166783    5.986233674
    1.305509182    6.748701100    3.680023247    5.979604178
    1.312687813    6.741242024    3.676870660    5.972957068
    1.319866444    6.733762690    3.673709117    5.966292567
    1.327045075    6.726263344    3.670538712    5.959610894
    1.334223706    6.718744226    3.667359540    5.952912272
    1.341402337    6.711205581    3.664171696    5.946196920
    1.348580968    6.703647650    3.660975273    5.939465058
    1.355759599    6.696070675    3.657770365    5.932716905
    1.362938230    6.688474895    3.654557065    5.925952680
    1.370116861    6.680860551    3.651335468    5.919172599
    1.377295492    6.673227884    3.648105667    5.912376881
    1.384474124    6.665577130    3.644867754    5.905565741
    1.391652755    6.657908530    3.641621822    5.898739395
    1.398831386    6.650222319    3.638367964    5.891898059
    1.406010017    6.642518736    3.635106272    5.885041947
    1.413188648    6.634798016    3.631836838    5.878171272
    1.420367279    6.627060395    3.628559754    5.871286247
    1.427545910    6.619306108    3.625275112    5.864387086
    1.434724541    6.611535389    3.621983002    5.857473998
    1.441903172    6.603748471    3.618683517    5.850547196
    1.449081803    6.595945587    3.615376747    5.843606889
    1.456260434    6.588126968    3.612062782    5.836653286
    1.463439065    6.580292847    3.608741712    5.829686597
    1.470617696    6.572443452    3.605413629    5.822707028
    1.477796327    6.564579015    3.602078621    5.815714787
    1.484974958    6.556699763    3.598736779    5.808710080
    1.492153589    6.548805925    3.595388191    5.801693112
    1.499332220    6.540897728    3.592032946    5.794664089
    1.506510851    6.532975399    3.588671134    5.787623214
    1.513689482    6.525039162    3.585302842    5.780570689
    1.520868114    6.517089243    3.581928158    5.773506717
    1.528046745    6.509125865    3.578547172    5.766431500
    1.535225376    6.501149252    3.575159969    5.759345238
    1.542404007    6.493159627    3.571766637    5.752248130
    1.549582638    6.485157209    3.568367264    5.745140376
    1.556761269    6.477142220    3.564961936    5.738022173
    1.563939900    6.469114879    3.561550740    5.730893718
    1.571118531    6.461075405    3.558133760    5.723755208
    1.578297162    6.453024016    3.554711084    5.716606838
    1.585475793    6.444960929    3.551282797    5.709448803
    1.592654424    6.436886359    3.547848983    5.702281295
    1.599833055    6.428800522    3.544409728    5.695104508
    1.607011686    6.420703632    3.540965116    5.687918633
    1.614190317    6.412595902    3.537515231    5.680723861
    1.621368948    6.404477545    3.534060158    5.673520383
    1.628547579    6.396348771    3.530599979    5.666308386
    1.635726210    6.388209792    3.527134778    5.659088060
    1.642904841    6.380060815    3.523664638    5.651859592
    1.650083472    6.371902051    3.520189642    5.644623167
    1.657262104    6.363733707    3.516709871    5.637378971
    1.664440735    6.355555988    3.513225408    5.630127189
    1.671619366    6.347369101    3.509736333    5.622868003
    1.678797997    6.339173250    3.506242730    5.615601597
    1.685976628    6.330968639    3.502744677    5.608328151
    1.693155259    6.322755470    3.499242256    5.601047847
    1.700333890    6.314533945    3.495735548    5.593760865
    1.707512521    6.306304265    3.492224631    5.586467382
    1.714691152    6.298066628    3.488709585    5.579167576
    1.721869783    6.289821234    3.485190491    5.571861624
    1.729048414    6.281568280    3.481667425    5.564549703
    1.736227045    6.273307962    3.478140467    5.557231986
    1.743405676    6.265040477    3.474609696    5.549908647
    1.750584307    6.256766018    3.471075188    5.542579860
    1.757762938    6.248484779    3.467537021    5.535245795
    1.764941569    6.240196952    3.463995273    5.527906625
    1.772120200    6.231902728    3.460450019    5.520562519
    1.779298831    6.223602299    3.456901336    5.513213645
    1.786477462    6.215295853    3.453349301    5.505860172
    1.793656093    6.206983578    3.449793988    5.498502266
    1.800834725    6.198665661    3.446235474    5.491140093
    1.808013356    6.190342289    3.442673832    5.483773819
    1.815191987    6.182013647    3.439109137    5.476403606
    1.822370618    6.173679918    3.435541465    5.469029619
    1.829549249    6.165341285    3.431970887    5.461652018
    1.836727880    6.156997931    3.428397478    5.454270965
    1.843906511    6.148650036    3.424821311    5.446886620
    1.851085142    6.140297779    3.421242458    5.439499141
    1.858263773    6.131941340    3.417660992    5.432108686
    1.865442404    6.123580895    3.414076985    5.424715412
    1.872621035    6.115216622    3.410490507    5.417319475
    1.879799666    6.106848696    3.406901631    5.409921029
    1.886978297    6.098477290    3.403310427    5.402520229
    1.894156928    6.090102579    3.399716966    5.395117228
    1.901335559    6.081724734    3.396121317    5.387712176
    1.908514190    6.073343926    3.392523550    5.380305225
    1.915692821    6.064960326    3.388923735    5.372896525
    1.922871452    6.056574102    3.385321940    5.365486224
    1.930050083    6.048185423    3.381718234    5.358074470
    1.937228715    6.039794454    3.378112684    5.350661410
    1.944407346    6.031401361    3.374505360    5.343247189
    1.951585977    6.023006310    3.370896328    5.335831952
    1.958764608    6.014609462    3.367285654    5.328415843
    1.965943239    6.006210982    3.363673407    5.320999005
    1.973121870    5.997811030    3.360059652    5.313581578
    1.980300501    5.989409766    3.356444454    5.306163704
    1.987479132    5.981007350    3.352827879    5.298745523
    1.994657763    5.972603939    3.349209993    5.291327172
    2.001836394    5.964199690    3.345590860    5.283908790
    2.009015025    5.955794759    3.341970544    5.276490513
    2.016193656    5.947389301    3.338349110    5.269072477
    2.023372287    5.938983470    3.334726620    5.261654816
    2.030550918    5.930577418    3.331103139    5.254237665
    2.037729549    5.922171297    3.327478728    5.246821154
    2.044908180    5.913765257    3.323853450    5.239405417
    2.052086811    5.905359447    3.320227367    5.231990583
    2.059265442    5.896954016    3.316600541    5.224576782
    2.066444073    5.888549111    3.312973033    5.217164144
    2.073622705    5.880144877    3.309344903    5.209752794
    2.080801336    5.871741461    3.305716213    5.202342861
    2.087979967    5.863339005    3.302087023    5.194934469
    2.095158598    5.854937653    3.298457391    5.187527743
    2.102337229    5.846537546    3.294827378    5.180122807
    2.109515860    5.838138826    3.291197042    5.172719783
    2.116694491    5.829741631    3.287566442    5.165318794
    2.123873122    5.821346101    3.283935635    5.157919959
    2.131051753    5.812952372    3.280304681    5.150523399
    2.138230384    5.804560582    3.276673636    5.143129231
    2.145409015    5.796170865    3.273042557    5.135737575
    2.152587646    5.787783357    3.269411500    5.128348546
    2.159766277    5.779398189    3.265780523    5.120962260
    2.166944908    5.771015495    3.262149680    5.113578833
    2.174123539    5.762635405    3.258519028    5.106198377
    2.181302170    5.754258049    3.254888622    5.098821007
    2.188480801    5.745883558    3.251258515    5.091446833
    2.195659432    5.737512057    3.247628763    5.084075967
    2.202838063    5.729143675    3.243999420    5.076708519
    2.210016694    5.720778538    3.240370539    5.069344598
    2.217195326    5.712416769    3.236742173    5.061984312
    2.224373957    5.704058494    3.233114375    5.054627768
    2.231552588    5.695703834    3.229487197    5.047275072
    2.238731219    5.687352912    3.225860693    5.039926330
    2.245909850    5.679005847    3.222234913    5.032581646
    2.253088481    5.670662761    3.218609908    5.025241123
    2.260267112    5.662323770    3.214985730    5.017904864
    2.267445743    5.653988994    3.211362429    5.010572971
    2.274624374    5.645658549    3.207740056    5.003245543
    2.281803005    5.637332550    3.204118660    4.995922682
    2.288981636    5.629011111    3.200498290    4.988604484
    2.296160267    5.620694347    3.196878997    4.981291049
    2.303338898    5.612382370    3.193260828    4.973982473
    2.310517529    5.604075291    3.189643832    4.966678853
    2.317696160    5.595773222    3.186028056    4.959380283
    2.324874791    5.587476271    3.182413549    4.952086857
    2.332053422    5.579184547    3.178800358    4.944798670
    2.339232053    5.570898158    3.175188530    4.937515813
    2.346410684    5.562617210    3.171578110    4.930238378
    2.353589316    5.554341809    3.167969146    4.922966455
    2.360767947    5.546072060    3.164361683    4.915700135
    2.367946578    5.537808066    3.160755767    4.908439506
    2.375125209    5.529549930    3.157151442    4.901184657
    2.382303840    5.521297753    3.153548754    4.893935674
    2.389482471    5.513051637    3.149947746    4.886692643
    2.396661102    5.504811681    3.146348463    4.879455651
    2.403839733    5.496577984    3.142750948    4.872224781
    2.411018364    5.488350644    3.139155245    4.865000118
    2.418196995    5.480129757    3.135561396    4.857781744
    2.425375626    5.471915421    3.131969444    4.850569741
    2.432554257    5.463707729    3.128379432    4.843364190
    2.439732888    5.455506776    3.124791401    4.836165171
    2.446911519    5.447312656    3.121205392    4.828972765
    2.454090150    5.439125459    3.117621448    4.821787049
    2.461268781    5.430945279    3.114039608    4.814608102
    2.468447412    5.422772204    3.110459914    4.807436000
    2.475626043    5.414606325    3.106882404    4.800270819
    2.482804674    5.406447730    3.103307120    4.793112635
    2.489983306    5.398296507    3.099734101    4.785961523
    2.497161937    5.390152743    3.096163385    4.778817556
    2.504340568    5.382016523    3.092595011    4.771680806
    2.511519199    5.373887932    3.089029019    4.764551346
    2.518697830    5.365767055    3.085465445    4.757429248
    2.525876461    5.357653974    3.081904328    4.750314581
    2.533055092    5.349548773    3.078345705    4.743207416
    2.540233723    5.341451531    3.074789614    4.736107821
