# energy grid [eV]     epsr_x  epsr_y  epsr_z
#
    0.200000000    6.867038542    9.561590957   11.752394598
    0.207178631    6.868279744    9.563534983   11.754791396
    0.214357262    6.869565583    9.565548821   11.757274325
    0.221535893    6.870896153    9.567632605   11.759843559
    0.228714524    6.872271551    9.569786474   11.762499276
    0.235893155    6.873691878    9.572010573   11.765241664
    0.243071786    6.875157237    9.574305053   11.768070916
    0.250250417    6.876667737    9.576670067   11.770987231
    0.257429048    6.878223491    9.579105778   11.773990817
    0.264607679    6.879824614    9.581612349   11.777081889
    0.271786311    6.881471226    9.584189953   11.780260668
    0.278964942    6.883163452    9.586838768   11.783527385
    0.286143573    6.884901421    9.589558974   11.786882274
    0.293322204    6.886685264    9.592350761   11.790325583
    0.300500835    6.888515118    9.595214324   11.793857562
    0.307679466    6.890391125    9.598149861   11.797478472
    0.314858097    6.892313432    9.601157579   11.801188582
    0.322036728    6.894282187    9.604237690   11.804988169
    0.329215359    6.896297548    9.607390413   11.808877518
    0.336393990    6.898359672    9.610615972   11.812856924
    0.343572621    6.900468726    9.613914599   11.816926689
    0.350751252    6.902624880    9.617286532   11.821087125
    0.357929883    6.904828308    9.620732015   11.825338555
    0.365108514    6.907079191    9.624251299   11.829681308
    0.372287145    6.909377714    9.627844643   11.834115725
    0.379465776    6.911724071    9.631512312   11.838642158
    0.386644407    6.914118457    9.635254579   11.843260967
    0.393823038    6.916561075    9.639071725   11.847972523
    0.401001669    6.919052136    9.642964038   11.852777209
    0.408180301    6.921591854    9.646931813   11.857675419
    0.415358932    6.924180452    9.650975355   11.862667557
    0.422537563    6.926818157    9.655094975   11.867754039
    0.429716194    6.929505206    9.659290994   11.872935296
    0.436894825    6.932241841    9.663563742   11.878211768
    0.444073456    6.935028312    9.667913557   11.883583910
    0.451252087    6.937864876    9.672340786   11.889052190
    0.458430718    6.940751799    9.676845786   11.894617090
    0.465609349    6.943689354    9.681428924   11.900279105
    0.472787980    6.946677822    9.686090578   11.906038746
    0.479966611    6.949717496    9.690831134   11.911896541
    0.487145242    6.952808673    9.695650990   11.917853031
    0.494323873    6.955951664    9.700550556   11.923908775
    0.501502504    6.959146788    9.705530252   11.930064349
    0.508681135    6.962394373    9.710590511   11.936320348
    0.515859766    6.965694760    9.715731778   11.942677384
    0.523038397    6.969048300    9.720954511   11.949136090
    0.530217028    6.972455356    9.726259182   11.955697119
    0.537395659    6.975916303    9.731646274   11.962361144
    0.544574290    6.979431527    9.737116289   11.969128862
    0.551752922    6.983001432    9.742669740   11.976000992
    0.558931553    6.986626431    9.748307158   11.982978278
    0.566110184    6.990306955    9.754029091   11.990061489
    0.573288815    6.994043448    9.759836101   11.997251422
    0.580467446    6.997836372    9.765728772   12.004548901
    0.587646077    7.001686207    9.771707704   12.011954781
    0.594824708    7.005593448    9.777773518   12.019469947
    0.602003339    7.009558611    9.783926856   12.027095318
    0.609181970    7.013582233    9.790168382   12.034831847
    0.616360601    7.017664871    9.796498782   12.042680525
    0.623539232    7.021807105    9.802918767   12.050642381
    0.630717863    7.026009538    9.809429075   12.058718487
    0.637896494    7.030272800    9.816030469   12.066909958
    0.645075125    7.034597548    9.822723743   12.075217954
    0.652253756    7.038984467    9.829509721   12.083643689
    0.659432387    7.043434273    9.836389258   12.092188428
    0.666611018    7.047947716    9.843363247   12.100853491
    0.673789649    7.052525578    9.850432616   12.109640261
    0.680968280    7.057168683    9.857598332   12.118550185
    0.688146912    7.061877892    9.864861405   12.127584782
    0.695325543    7.066654112    9.872222892   12.136745641
    0.702504174    7.071498295    9.879683895   12.146034437
    0.709682805    7.076411443    9.887245572   12.155452927
    0.716861436    7.081394615    9.894909136   12.165002967
    0.724040067    7.086448925    9.902675860   12.174686510
    0.731218698    7.091575554    9.910547084   12.184505620
    0.738397329    7.096775752    9.918524219   12.194462482
    0.745575960    7.102050842    9.926608754   12.204559410
    0.752754591    7.107402231    9.934802262   12.214798859
    0.759933222    7.112831414    9.943106407   12.225183439
    0.767111853    7.118339987    9.951522955   12.235715928
    0.774290484    7.123929651    9.960053781   12.246399292
    0.781469115    7.129602225    9.968700883   12.257236698
    0.788647746    7.135359659    9.977466390   12.268231540
    0.795826377    7.141204047    9.986352578   12.279387459
    0.803005008    7.147137642    9.995361887   12.290708370
    0.810183639    7.153162872   10.004496936   12.302198496
    0.817362270    7.159282363   10.013760546   12.313862397
    0.824540902    7.165498961   10.023155760   12.325705011
    0.831719533    7.171815756   10.032685874   12.337731704
    0.838898164    7.178236112   10.042354463   12.349948315
    0.846076795    7.184763706   10.052165420   12.362361221
    0.853255426    7.191402565   10.062122995   12.374977405
    0.860434057    7.198157110   10.072231846   12.387804538
    0.867612688    7.205032217   10.082497091   12.400851076
    0.874791319    7.212033279   10.092924377   12.414126365
    0.881969950    7.219166277   10.103519958   12.427640782
    0.889148581    7.226437878   10.114290785   12.441405882
    0.896327212    7.233855534   10.125244618   12.455434591
    0.903505843    7.241427617   10.136390157   12.469741423
    0.910684474    7.249163567   10.147737200   12.484342751
    0.917863105    7.257074080   10.159296836   12.499257129
    0.925041736    7.265171338   10.171081681   12.514505688
    0.932220367    7.273469284   10.183106161   12.530112621
    0.939398998    7.281983966   10.195386874   12.546105776
    0.946577629    7.290733966   10.207943024   12.562517409
    0.953756260    7.299740937   10.220796985   12.579385110
    0.960934891    7.309030278   10.233974997   12.596752985
    0.968113523    7.318632005   10.247508066   12.614673166
    0.975292154    7.328581860   10.261433121   12.633207750
    0.982470785    7.338922770   10.275794516   12.652431324
    0.989649416    7.349706750   10.290646014   12.672434294
    0.996828047    7.360997449   10.306053427   12.693327306
    1.004006678    7.372873568   10.322098159   12.715247199
    1.011185309    7.385433522   10.338882056   12.738365121
    1.018363940    7.398801871   10.356534077   12.762897719
    1.025542571    7.413138276   10.375219604   12.789122740
    1.032721202    7.428650115   10.395153551   12.817400977
    1.039899833    7.445610271   10.416618849   12.848207253
    1.047078464    7.464382035   10.439992326   12.882173749
    1.054257095    7.485452577   10.465779503   12.920148286
    1.061435726    7.509472505   10.494655710   12.963263176
    1.068614357    7.537280784   10.527491981   13.012978615
    1.075792988    7.569821542   10.565268511   13.070937879
    1.082971619    7.607571042   10.608478752   13.137969952
    1.090150250    7.647950325   10.654438813   13.209586037
    1.097328881    7.675137666   10.686693521   13.258247382
    1.104507513    7.631934679   10.645760294   13.184396058
    1.111686144    7.439768885   10.449929495   12.851271053
    1.118864775    7.234278065   10.240245602   12.494961351
    1.126043406    7.178139702   10.185870794   12.398621010
    1.133222037    7.202447593   10.215145622   12.442315034
    1.140400668    7.243815950   10.262150479   12.515717786
    1.147579299    7.283679314   10.307572943   12.586517810
    1.154757930    7.318767266   10.348004604   12.649027058
    1.161936561    7.349433210   10.383804085   12.703866681
    1.169115192    7.376636558   10.415958551   12.752714910
    1.176293823    7.401263308   10.445376806   12.797125360
    1.183472454    7.424018984   10.472777471   12.838341959
    1.190651085    7.445450581   10.498711169   12.877339002
    1.197829716    7.465988677   10.523603461   12.914897107
    1.205008347    7.485985316   10.547793121   12.951673025
    1.212186978    7.505744562   10.571562393   12.988258268
    1.219365609    7.525547317   10.595160794   13.025229505
    1.226544240    7.545672088   10.618824142   13.063192336
    1.233722871    7.566410523   10.642787830   13.102808644
    1.240901503    7.588065667   10.667283601   13.144753808
    1.248080134    7.610878900   10.692471495   13.189377745
    1.255258765    7.634666510   10.718111621   13.235166309
    1.262437396    7.657400918   10.742294203   13.272858758
    1.269616027    7.671955164   10.758531614   13.272008879
    1.276794658    7.672764206   10.761674234   13.208208408
    1.283973289    7.680590693   10.769939602   13.164574553
    1.291151920    7.707960399   10.794135804   13.189865189
    1.298330551    7.746649000   10.826562322   13.247429554
    1.305509182    7.791488120   10.862458243   13.314793154
    1.312687813    7.838120751   10.899154664   13.383003052
    1.319866444    7.869313042   10.928377841   13.433843129
    1.327045075    7.825378068   10.921784567   13.406715146
    1.334223706    7.633282551   10.844701833   13.227544712
    1.341402337    7.441658560   10.767850381   13.048040562
    1.348580968    7.397800356   10.761306939   13.018486512
    1.355759599    7.428156466   10.790132560   13.064124895
    1.362938230    7.473320812   10.826110100   13.124570611
    1.370116861    7.516446605   10.861256608   13.182769737
    1.377295492    7.554710313   10.894256452   13.235936969
    1.384474124    7.588564562   10.925352748   13.284613738
    1.391652755    7.618987883   10.955041189   13.329871902
    1.398831386    7.646872729   10.983780812   13.372695177
    1.406010017    7.672935453   11.011953323   13.413892265
    1.413188648    7.697743385   11.039878779   13.454129783
    1.420367279    7.721760105   11.067840895   13.493984897
    1.427545910    7.745387397   11.096112241   13.533996494
    1.434724541    7.769001812   11.124978827   13.574713618
    1.441903172    7.792987663   11.154765233   13.616743470
    1.449081803    7.817766191   11.185858790   13.660796722
    1.456260434    7.843809215   11.218718957   13.707705921
    1.463439065    7.871581121   11.253809286   13.758306462
    1.470617696    7.901178140   11.291196698   13.812728760
    1.477796327    7.930747555   11.328806206   13.867311927
    1.484974958    7.950556521   11.355879082   13.903033186
    1.492153589    7.930350256   11.339031744   13.860849400
    1.499332220    7.850398753   11.256489448   13.702249505
    1.506510851    7.792377607   11.198298180   13.586508336
    1.513689482    7.794477528   11.206555976   13.588089861
    1.520868114    7.820598988   11.241443956   13.636563409
    1.528046745    7.850564391   11.280701218   13.692553749
    1.535225376    7.879228045   11.318643076   13.746004618
    1.542404007    7.905892576   11.354490416   13.795535853
    1.549582638    7.930847759   11.388552833   13.841692152
    1.556761269    7.954512327   11.421282010   13.885268679
    1.563939900    7.977250144   11.453068704   13.926951906
    1.571118531    7.999348919   11.484218920   13.967277351
    1.578297162    8.021033777   11.514968457   14.006655159
    1.585475793    8.042484678   11.545501610   14.045402957
    1.592654424    8.063851139   11.575966779   14.083773144
    1.599833055    8.085263818   11.606488415   14.121973599
    1.607011686    8.106843797   11.637176176   14.160183274
    1.614190317    8.128710604   11.668132314   14.198564416
    1.621368948    8.150989904   11.699458150   14.237272845
    1.628547579    8.173821796   11.731260441   14.276467536
    1.635726210    8.197370711   11.763658393   14.316320619
    1.642904841    8.221838015   11.796792093   14.357028908
    1.650083472    8.247478449   11.830833164   14.398828030
    1.657262104    8.274620585   11.865997875   14.442009636
    1.664440735    8.303686780   11.902560277   14.486939045
    1.671619366    8.335188487   11.940851745   14.534057766
    1.678797997    8.369595230   11.981188858   14.583803763
    1.685976628    8.406666916   12.023494580   14.636176772
    1.693155259    8.442655925   12.065699110   14.688887487
    1.700333890    8.460707828   12.098239303   14.730974801
    1.707512521    8.420025942   12.097805216   14.735538078
    1.714691152    8.330592066   12.069846730   14.709048247
    1.721869783    8.296547768   12.072443839   14.718802006
    1.729048414    8.317626108   12.099958522   14.756963960
    1.736227045    8.349401872   12.118382718   14.781776669
    1.743405676    8.382343579   12.134092588   14.803915095
    1.750584307    8.420716564   12.168806046   14.851296558
    1.757762938    8.451175912   12.212439737   14.897980937
    1.764941569    8.446720089   12.251336803   14.896151839
    1.772120200    8.412519868   12.284239784   14.851064378
    1.779298831    8.409433948   12.323374273   14.853284410
    1.786477462    8.439220441   12.369337655   14.905280995
    1.793656093    8.479132882   12.417791449   14.972930741
    1.800834725    8.520534950   12.467297260   15.043316428
    1.808013356    8.561850767   12.517860149   15.114135621
    1.815191987    8.603248094   12.569810612   15.185712673
    1.822370618    8.644597493   12.623218630   15.257869222
    1.829549249    8.682988917   12.676704705   15.325918731
    1.836727880    8.708229721   12.725063626   15.373238262
    1.843906511    8.714546951   12.765234865   15.389485363
    1.851085142    8.731057203   12.811596879   15.417239735
    1.858263773    8.766799086   12.865661340   15.457395062
    1.865442404    8.795349680   12.914875446   15.459445530
    1.872621035    8.784333892   12.968414191   15.427969637
    1.879799666    8.756463240   13.036751935   15.416015582
    1.886978297    8.771774178   13.107470276   15.461066210
    1.894156928    8.816243381   13.145682623   15.527694804
    1.901335559    8.867439041   13.145761627   15.587719285
    1.908514190    8.922545125   13.181864101   15.651993011
    1.915692821    8.969853260   13.241063594   15.698473467
    1.922871452    8.976909891   13.234821315   15.698143491
    1.930050083    8.901593037   13.094980701   15.697985401
    1.937228715    8.796219125   12.918389021   15.734043230
    1.944407346    8.778846994   12.898941377   15.806293908
    1.951585977    8.819658427   12.973937098   15.879146194
    1.958764608    8.868158253   13.044657630   15.914430320
    1.965943239    8.916771597   13.108342300   15.937063474
    1.973121870    8.971314399   13.175696871   15.965297649
    1.980300501    9.025977102   13.198348346   15.937091751
    1.987479132    9.078274561   13.206954352   15.896788485
    1.994657763    9.121116032   13.252685091   15.934304767
    2.001836394    9.124457998   13.261913627   16.017027529
    2.009015025    9.087733744   13.208797380   16.109883737
    2.016193656    9.087724864   13.215930593   16.203563005
    2.023372287    9.133953126   13.297923121   16.297144343
    2.030550918    9.197042241   13.404984916   16.391480495
    2.037729549    9.264145116   13.516461583   16.487425098
    2.044908180    9.328004471   13.624945925   16.583205154
    2.052086811    9.368810009   13.715055038   16.666974353
    2.059265442    9.343452610   13.751603112   16.710454546
    2.066444073    9.273240950   13.743579609   16.723688382
    2.073622705    9.256183522   13.740339813   16.753042035
    2.080801336    9.270720492   13.691512807   16.741128033
    2.087979967    9.288778696   13.636317365   16.677882253
    2.095158598    9.328531626   13.662461549   16.687038981
    2.102337229    9.389023427   13.750264044   16.774974551
    2.109515860    9.455690649   13.854620422   16.888764943
    2.116694491    9.519049160   13.951897147   17.001958658
    2.123873122    9.568118976   14.021472899   17.094815528
    2.131051753    9.601657694   14.063707028   17.155684218
    2.138230384    9.634517183   14.114625868   17.175180757
    2.145409015    9.660381732   14.170428866   17.125338426
    2.152587646    9.699903321   14.238295027   17.108862929
    2.159766277    9.763609608   14.325445295   17.181475975
    2.166944908    9.825075381   14.417282766   17.289908292
    2.174123539    9.851127021   14.503659324   17.400560826
    2.181302170    9.812012828   14.582241195   17.500690691
    2.188480801    9.756426823   14.662424518   17.594809386
    2.195659432    9.761945497   14.757618412   17.687325199
    2.202838063    9.780712572   14.859582055   17.760015723
    2.210016694    9.801750703   14.950748617   17.834502320
    2.217195326    9.839397624   14.999238820   17.941614798
    2.224373957    9.880105027   15.012730195   18.064873038
    2.231552588    9.938789560   15.059054942   18.174357473
    2.238731219    9.999867268   15.097875701   18.206244204
    2.245909850   10.043679677   15.073773112   18.121288808
    2.253088481   10.098613165   15.081989045   18.083959366
    2.260267112   10.176323786   15.168835142   18.167781848
    2.267445743   10.248529365   15.286561035   18.290831411
    2.274624374   10.263301622   15.406573067   18.382698068
    2.281803005   10.192358019   15.521127393   18.415330917
    2.288981636   10.155436494   15.639272506   18.471110129
    2.296160267   10.200555994   15.765106779   18.586380376
    2.303338898   10.272471000   15.895481070   18.725830040
    2.310517529   10.356944820   16.034386652   18.874043073
    2.317696160   10.453920583   16.183567569   19.027522579
    2.324874791   10.553896611   16.333384637   19.178324602
    2.332053422   10.641414130   16.453145849   19.305674530
    2.339232053   10.687590927   16.496098645   19.399855209
    2.346410684   10.661636042   16.453487511   19.498951954
    2.353589316   10.614457092   16.428784950   19.614217386
    2.360767947   10.606618999   16.445258545   19.668414726
    2.367946578   10.595526905   16.417516477   19.608279822
    2.375125209   10.621366369   16.443001132   19.593568029
    2.382303840   10.685699702   16.515420778   19.614507144
    2.389482471   10.733025314   16.592997000   19.556583628
    2.396661102   10.754537929   16.710564663   19.452640354
    2.403839733   10.786894088   16.842773148   19.432300004
    2.411018364   10.832035484   16.989593639   19.526196622
    2.418196995   10.908708194   17.178079366   19.692555179
    2.425375626   11.012542574   17.390061838   19.887026085
    2.432554257   11.120765242   17.560069576   20.082241961
    2.439732888   11.213490041   17.557997615   20.264644754
    2.446911519   11.283357419   17.374910198   20.430520861
    2.454090150   11.337087211   17.305026509   20.583158214
    2.461268781   11.326360164   17.343470624   20.692607537
    2.468447412   11.274931979   17.404498238   20.761924431
    2.475626043   11.304969389   17.541458598   20.873365875
    2.482804674   11.399119176   17.748463907   21.041746799
    2.489983306   11.503754005   17.977308675   21.217859683
    2.497161937   11.607281859   18.210461941   21.373309376
    2.504340568   11.712325770   18.445246488   21.512681614
    2.511519199   11.813740748   18.673983368   21.672345477
    2.518697830   11.883584996   18.876781744   21.816438810
    2.525876461   11.924722472   19.045053884   21.913941878
    2.533055092   11.992923958   19.210935109   22.026717535
    2.540233723   12.103460157   19.412749615   22.186992490
