# energy grid [eV]     epsr_x  epsr_y  epsr_z
#
    0.200000000   12.880984635    9.222478770   14.102255813
    0.207178631   12.883659548    9.224171068   14.105282578
    0.214357262   12.886430157    9.225923816   14.108417635
    0.221535893   12.889296607    9.227737098   14.111661148
    0.228714524   12.892259046    9.229610997   14.115013288
    0.235893155   12.895317630    9.231545602   14.118474231
    0.243071786   12.898472517    9.233541002   14.122044159
    0.250250417   12.901723874    9.235597291   14.125723259
    0.257429048   12.905071871    9.237714564   14.129511725
    0.264607679   12.908516682    9.239892923   14.133409756
    0.271786311   12.912058489    9.242132467   14.137417559
    0.278964942   12.915697478    9.244433304   14.141535345
    0.286143573   12.919433840    9.246795540   14.145763332
    0.293322204   12.923267771    9.249219286   14.150101743
    0.300500835   12.927199474    9.251704658   14.154550808
    0.307679466   12.931229156    9.254251771   14.159110764
    0.314858097   12.935357030    9.256860747   14.163781852
    0.322036728   12.939583315    9.259531708   14.168564321
    0.329215359   12.943908234    9.262264781   14.173458425
    0.336393990   12.948332016    9.265060094   14.178464426
    0.343572621   12.952854897    9.267917781   14.183582590
    0.350751252   12.957477116    9.270837978   14.188813191
    0.357929883   12.962198921    9.273820821   14.194156510
    0.365108514   12.967020562    9.276866455   14.199612831
    0.372287145   12.971942298    9.279975023   14.205182450
    0.379465776   12.976964392    9.283146674   14.210865663
    0.386644407   12.982087112    9.286381559   14.216662779
    0.393823038   12.987310733    9.289679833   14.222574108
    0.401001669   12.992635536    9.293041654   14.228599971
    0.408180301   12.998061808    9.296467183   14.234740693
    0.415358932   13.003589841    9.299956584   14.240996607
    0.422537563   13.009219934    9.303510026   14.247368052
    0.429716194   13.014952391    9.307127679   14.253855374
    0.436894825   13.020787522    9.310809718   14.260458928
    0.444073456   13.026725645    9.314556320   14.267179072
    0.451252087   13.032767083    9.318367667   14.274016174
    0.458430718   13.038912163    9.322243944   14.280970608
    0.465609349   13.045161223    9.326185339   14.288042756
    0.472787980   13.051514602    9.330192042   14.295233005
    0.479966611   13.057972651    9.334264250   14.302541751
    0.487145242   13.064535722    9.338402161   14.309969398
    0.494323873   13.071204177    9.342605976   14.317516356
    0.501502504   13.077978384    9.346875903   14.325183042
    0.508681135   13.084858716    9.351212149   14.332969881
    0.515859766   13.091845554    9.355614929   14.340877307
    0.523038397   13.098939286    9.360084458   14.348905759
    0.530217028   13.106140305    9.364620957   14.357055685
    0.537395659   13.113449013    9.369224649   14.365327542
    0.544574290   13.120865818    9.373895764   14.373721792
    0.551752922   13.128391135    9.378634532   14.382238907
    0.558931553   13.136025384    9.383441188   14.390879367
    0.566110184   13.143768997    9.388315973   14.399643658
    0.573288815   13.151622407    9.393259128   14.408532277
    0.580467446   13.159586060    9.398270901   14.417545726
    0.587646077   13.167660404    9.403351544   14.426684518
    0.594824708   13.175845899    9.408501310   14.435949173
    0.602003339   13.184143010    9.413720458   14.445340220
    0.609181970   13.192552210    9.419009253   14.454858196
    0.616360601   13.201073979    9.424367960   14.464503646
    0.623539232   13.209708806    9.429796852   14.474277125
    0.630717863   13.218457186    9.435296203   14.484179196
    0.637896494   13.227319623    9.440866293   14.494210431
    0.645075125   13.236296629    9.446507405   14.504371412
    0.652253756   13.245388724    9.452219829   14.514662728
    0.659432387   13.254596435    9.458003856   14.525084978
    0.666611018   13.263920298    9.463859783   14.535638771
    0.673789649   13.273360859    9.469787911   14.546324725
    0.680968280   13.282918668    9.475788546   14.557143467
    0.688146912   13.292594287    9.481861998   14.568095633
    0.695325543   13.302388286    9.488008582   14.579181870
    0.702504174   13.312301243    9.494228617   14.590402835
    0.709682805   13.322333744    9.500522427   14.601759192
    0.716861436   13.332486386    9.506890340   14.613251619
    0.724040067   13.342759774    9.513332689   14.624880800
    0.731218698   13.353154520    9.519849814   14.636647434
    0.738397329   13.363671248    9.526442056   14.648552225
    0.745575960   13.374310590    9.533109764   14.660595891
    0.752754591   13.385073188    9.539853290   14.672779160
    0.759933222   13.395959692    9.546672991   14.685102771
    0.767111853   13.406970764    9.553569232   14.697567471
    0.774290484   13.418107073    9.560542378   14.710174022
    0.781469115   13.429369299    9.567592804   14.722923194
    0.788647746   13.440758134    9.574720887   14.735815771
    0.795826377   13.452274276    9.581927012   14.748852545
    0.803005008   13.463918436    9.589211566   14.762034322
    0.810183639   13.475691336    9.596574943   14.775361919
    0.817362270   13.487593706    9.604017545   14.788836164
    0.824540902   13.499626288    9.611539774   14.802457899
    0.831719533   13.511789835    9.619142043   14.816227976
    0.838898164   13.524085110    9.626824767   14.830147260
    0.846076795   13.536512888    9.634588368   14.844216628
    0.853255426   13.549073954    9.642433275   14.858436970
    0.860434057   13.561769106    9.650359920   14.872809190
    0.867612688   13.574599151    9.658368743   14.887334202
    0.874791319   13.587564910    9.666460190   14.902012936
    0.881969950   13.600667214    9.674634713   14.916846332
    0.889148581   13.613906908    9.682892767   14.931835347
    0.896327212   13.627284847    9.691234819   14.946980950
    0.903505843   13.640801900    9.699661337   14.962284122
    0.910684474   13.654458947    9.708172798   14.977745862
    0.917863105   13.668256882    9.716769685   14.993367178
    0.925041736   13.682196610    9.725452487   15.009149098
    0.932220367   13.696279050    9.734221700   15.025092660
    0.939398998   13.710505135    9.743077827   15.041198918
    0.946577629   13.724875811    9.752021378   15.057468943
    0.953756260   13.739392035    9.761052868   15.073903820
    0.960934891   13.754054782    9.770172820   15.090504647
    0.968113523   13.768865038    9.779381765   15.107272541
    0.975292154   13.783823804    9.788680240   15.124208633
    0.982470785   13.798932095    9.798068790   15.141314070
    0.989649416   13.814190941    9.807547966   15.158590017
    0.996828047   13.829601387    9.817118328   15.176037654
    1.004006678   13.845164493    9.826780442   15.193658179
    1.011185309   13.860881334    9.836534883   15.211452804
    1.018363940   13.876753000    9.846382232   15.229422762
    1.025542571   13.892780597    9.856323080   15.247569301
    1.032721202   13.908965244    9.866358023   15.265893689
    1.039899833   13.925308068    9.876487666   15.284397211
    1.047078464   13.941810194    9.886712618   15.303081168
    1.054257095   13.958472802    9.897033504   15.321946884
    1.061435726   13.975297152    9.907450962   15.340995699
    1.068614357   13.992284450    9.917965633   15.360228973
    1.075792988   14.009435890    9.928578159   15.379648086
    1.082971619   14.026752703    9.939289196   15.399254436
    1.090150250   14.044236146    9.950099408   15.419049443
    1.097328881   14.061887494    9.961009469   15.439034546
    1.104507513   14.079708044    9.972020062   15.459211207
    1.111686144   14.097699111    9.983131880   15.479580906
    1.118864775   14.115862028    9.994345624   15.500145147
    1.126043406   14.134198150   10.005662006   15.520905454
    1.133222037   14.152708849   10.017081745   15.541863374
    1.140400668   14.171395520   10.028605574   15.563020477
    1.147579299   14.190259576   10.040234231   15.584378354
    1.154757930   14.209302451   10.051968468   15.605938622
    1.161936561   14.228525603   10.063809046   15.627702918
    1.169115192   14.247930509   10.075756735   15.649672906
    1.176293823   14.267518669   10.087812317   15.671850273
    1.183472454   14.287291605   10.099976585   15.694236730
    1.190651085   14.307250862   10.112250341   15.716834017
    1.197829716   14.327398008   10.124634399   15.739643894
    1.205008347   14.347734633   10.137129586   15.762668152
    1.212186978   14.368262355   10.149736737   15.785908605
    1.219365609   14.388982812   10.162456702   15.809367096
    1.226544240   14.409897670   10.175290339   15.833045495
    1.233722871   14.431008617   10.188238520   15.856945699
    1.240901503   14.452317371   10.201302131   15.881069635
    1.248080134   14.473825672   10.214482065   15.905419258
    1.255258765   14.495535288   10.227779234   15.929996552
    1.262437396   14.517448016   10.241194557   15.954803531
    1.269616027   14.539565679   10.254728968   15.979842240
    1.276794658   14.561890127   10.268383416   16.005114754
    1.283973289   14.584423241   10.282158861   16.030623182
    1.291151920   14.607166929   10.296056276   16.056369662
    1.298330551   14.630123131   10.310076650   16.082356366
    1.305509182   14.653293815   10.324220985   16.108585501
    1.312687813   14.676680982   10.338490296   16.135059304
    1.319866444   14.700286662   10.352885614   16.161780049
    1.327045075   14.724112918   10.367407983   16.188750047
    1.334223706   14.748161848   10.382058465   16.215971640
    1.341402337   14.772435579   10.396838134   16.243447212
    1.348580968   14.796936276   10.411748081   16.271179179
    1.355759599   14.821666136   10.426789412   16.299169998
    1.362938230   14.846627392   10.441963249   16.327422164
    1.370116861   14.871822313   10.457270732   16.355938212
    1.377295492   14.897253204   10.472713014   16.384720715
    1.384474124   14.922922410   10.488291269   16.413772288
    1.391652755   14.948832310   10.504006686   16.443095589
    1.398831386   14.974985325   10.519860470   16.472693317
    1.406010017   15.001383914   10.535853846   16.502568213
    1.413188648   15.028030570   10.551988057   16.532723065
    1.420367279   15.054927822   10.568264363   16.563160701
    1.427545910   15.082078263   10.584684044   16.593884001
    1.434724541   15.109484548   10.601248398   16.624895893
    1.441903172   15.137149342   10.617958735   16.656199341
    1.449081803   15.165075342   10.634816375   16.687797341
    1.456260434   15.193265296   10.651822657   16.719692942
    1.463439065   15.221722031   10.668979002   16.751889320
    1.470617696   15.250448417   10.686286840   16.784389688
    1.477796327   15.279447352   10.703747575   16.817197248
    1.484974958   15.308721789   10.721362646   16.850315269
    1.492153589   15.338274729   10.739133508   16.883747078
    1.499332220   15.368109228   10.757061642   16.917496063
    1.506510851   15.398228397   10.775148555   16.951565671
    1.513689482   15.428635399   10.793395781   16.985959410
    1.520868114   15.459333455   10.811804875   17.020680844
    1.528046745   15.490325836   10.830377419   17.055733590
    1.535225376   15.521615863   10.849115017   17.091121312
    1.542404007   15.553206933   10.868019301   17.126847770
    1.549582638   15.585102539   10.887091925   17.162916851
    1.556761269   15.617306199   10.906334574   17.199332444
    1.563939900   15.649821481   10.925748956   17.236098477
    1.571118531   15.682652024   10.945336807   17.273218963
    1.578297162   15.715801540   10.965099891   17.310697995
    1.585475793   15.749273810   10.985040001   17.348539740
    1.592654424   15.783072684   11.005158960   17.386748440
    1.599833055   15.817202084   11.025458617   17.425328413
    1.607011686   15.851666003   11.045940854   17.464284055
    1.614190317   15.886468512   11.066607583   17.503619843
    1.621368948   15.921613756   11.087460749   17.543340332
    1.628547579   15.957105960   11.108502326   17.583450164
    1.635726210   15.992949428   11.129734323   17.623954063
    1.642904841   16.029148548   11.151158782   17.664856843
    1.650083472   16.065707789   11.172777780   17.706163405
    1.657262104   16.102631711   11.194593428   17.747878744
    1.664440735   16.139924959   11.216607872   17.790007945
    1.671619366   16.177592271   11.238823297   17.832556192
    1.678797997   16.215638477   11.261241922   17.875528767
    1.685976628   16.254068502   11.283866008   17.918931051
    1.693155259   16.292887371   11.306697851   17.962768529
    1.700333890   16.332100209   11.329739789   18.007046791
    1.707512521   16.371712242   11.352994201   18.051771537
    1.714691152   16.411728804   11.376463508   18.096948576
    1.721869783   16.452155338   11.400150171   18.142583831
    1.729048414   16.492997397   11.424056698   18.188683343
    1.736227045   16.534260650   11.448185639   18.235253271
    1.743405676   16.575950884   11.472539592   18.282299898
    1.750584307   16.618074005   11.497121200   18.329829631
    1.757762938   16.660636046   11.521933155   18.377849008
    1.764941569   16.703643164   11.546978196   18.426364699
    1.772120200   16.747101647   11.572259114   18.475383508
    1.779298831   16.791017908   11.597778745   18.524912380
    1.786477462   16.835398476   11.623539968   18.574958398
    1.793656093   16.880250050   11.649545731   18.625528797
    1.800834725   16.925579567   11.675799072   18.676630974
    1.808013356   16.971394027   11.702303053   18.728272469
    1.815191987   17.017700556   11.729060778   18.780460978
    1.822370618   17.064506504   11.756075427   18.833204373
    1.829549249   17.111819347   11.783350227   18.886510675
    1.836727880   17.159646696   11.810888457   18.940388069
    1.843906511   17.207996330   11.838693493   18.994844935
    1.851085142   17.256876236   11.866768808   19.049889821
    1.858263773   17.306294636   11.895117904   19.105531466
    1.865442404   17.356260045   11.923744331   19.161778940
    1.872621035   17.406781068   11.952651720   19.218641426
    1.879799666   17.457866417   11.981843781   19.276128218
    1.886978297   17.509525052   12.011324300   19.334248852
    1.894156928   17.561766171   12.041097142   19.393013103
    1.901335559   17.614599205   12.071166251   19.452430974
    1.908514190   17.668033814   12.101535653   19.512512704
    1.915692821   17.722079898   12.132209456   19.573268765
    1.922871452   17.776747599   12.163191855   19.634709879
    1.930050083   17.832047315   12.194487134   19.696847016
    1.937228715   17.887989704   12.226099666   19.759691408
    1.944407346   17.944585695   12.258033920   19.823254556
    1.951585977   18.001846496   12.290294460   19.887548235
    1.958764608   18.059783607   12.322885951   19.952584509
    1.965943239   18.118408823   12.355813156   20.018375735
    1.973121870   18.177734253   12.389080947   20.084934573
    1.980300501   18.237772323   12.422694298   20.152273993
    1.987479132   18.298535795   12.456658294   20.220407289
    1.994657763   18.360037771   12.490978152   20.289348111
    2.001836394   18.422291712   12.525659212   20.359110459
    2.009015025   18.485311449   12.560706914   20.429708668
    2.016193656   18.549111194   12.596126829   20.501157445
    2.023372287   18.613705557   12.631924659   20.573471882
    2.030550918   18.679109563   12.668106237   20.646667466
    2.037729549   18.745338662   12.704677532   20.720760087
    2.044908180   18.812408747   12.741644666   20.795766077
    2.052086811   18.880336173   12.779013923   20.871702237
    2.059265442   18.949137751   12.816791689   20.948585748
    2.066444073   19.018830778   12.854984513   21.026434211
    2.073622705   19.089433083   12.893599201   21.105265739
    2.080801336   19.160963060   12.932642746   21.185098996
    2.087979967   19.233439674   12.972122234   21.265953112
    2.095158598   19.306882423   13.012044890   21.347847786
    2.102337229   19.381311311   13.052418133   21.430803850
    2.109515860   19.456746977   13.093249598   21.514842442
    2.116694491   19.533211415   13.134547215   21.599984990
    2.123873122   19.610726968   13.176319083   21.686253588
    2.131051753   19.689316076   13.218573448   21.773670890
    2.138230384   19.769002314   13.261318831   21.862260351
    2.145409015   19.849810212   13.304564006   21.952046202
    2.152587646   19.931764879   13.348317960   22.043053396
    2.159766277   20.014892292   13.392589935   22.135307648
    2.166944908   20.099219388   13.437389445   22.228835516
    2.174123539   20.184774085   13.482726285   22.323664461
    2.181302170   20.271585251   13.528610535   22.419822744
    2.188480801   20.359682777   13.575052572   22.517339531
    2.195659432   20.449097649   13.622063089   22.616244990
    2.202838063   20.539861971   13.669653101   22.716570252
    2.210016694   20.632009030   13.717833963   22.818347477
    2.217195326   20.725573386   13.766617386   22.921609933
    2.224373957   20.820590915   13.816015450   23.026392028
    2.231552588   20.917098831   13.866040622   23.132729343
    2.238731219   21.015135753   13.916705767   23.240658653
    2.245909850   21.114741691   13.968024169   23.350217829
    2.253088481   21.215958124   14.020009564   23.461445586
    2.260267112   21.318828607   14.072676195   23.574382338
    2.267445743   21.423399287   14.126038761   23.689072235
    2.274624374   21.529717637   14.180112446   23.805560273
    2.281803005   21.637832463   14.234913010   23.923891633
    2.288981636   21.747794799   14.290456810   24.044113333
    2.296160267   21.859658150   14.346760748   24.166274370
    2.303338898   21.973478459   14.403842347   24.290425825
    2.310517529   22.089314088   14.461719788   24.416620777
    2.317696160   22.207226024   14.520412008   24.544914495
    2.324874791   22.327277977   14.579938706   24.675364502
    2.332053422   22.449536548   14.640320294   24.808030636
    2.339232053   22.574072162   14.701578009   24.942975445
    2.346410684   22.700958892   14.763733950   25.080264209
    2.353589316   22.830273644   14.826811159   25.219964746
    2.360767947   22.962097227   14.890833844   25.362147896
    2.367946578   23.096514734   14.955827188   25.506887691
    2.375125209   23.233615675   15.021817375   25.654261462
    2.382303840   23.373494335   15.088831806   25.804350122
    2.389482471   23.516250080   15.156899186   25.957238337
    2.396661102   23.661987718   15.226049591   26.113014759
    2.403839733   23.810817920   15.296314561   26.271772308
    2.411018364   23.962857662   15.367727195   26.433608454
    2.418196995   24.118230686   15.440322268   26.598625504
    2.425375626   24.277067947   15.514136327   26.766930902
    2.432554257   24.439507967   15.589207763   26.938637552
    2.439732888   24.605697309   15.665576924   27.113864347
    2.446911519   24.775792510   15.743286697   27.292736732
    2.454090150   24.949963235   15.822383064   27.475386928
    2.461268781   25.128388563   15.902914195   27.661954431
    2.468447412   25.311257071   15.984930578   27.852586278
    2.475626043   25.498770685   16.068485735   28.047437542
    2.482804674   25.691146305   16.153637382   28.246673581
    2.489983306   25.888616803   16.240447182   28.450470200
    2.497161937   26.091432079   16.328979880   28.659012998
    2.504340568   26.299861168   16.419305390   28.872499745
    2.511519199   26.514193641   16.511499277   29.091140241
    2.518697830   26.734741715   16.605641652   29.315157853
    2.525876461   26.961843121   16.701818560   29.544791242
    2.533055092   27.195863932   16.800122990   29.780295625
    2.540233723   27.437201697   16.900655453   30.021944248
