# energy grid [eV]     ieps_x  ieps_y  ieps_z
#
    0.200000000    5.487392807    5.376577988    3.023861988
    0.207178631    5.486410922    5.375612261    3.023385214
    0.214357262    5.485394873    5.374612936    3.022891877
    0.221535893    5.484344707    5.373580061    3.022382004
    0.228714524    5.483260474    5.372513683    3.021855620
    0.235893155    5.482142224    5.371413853    3.021312753
    0.243071786    5.480990009    5.370280622    3.020753432
    0.250250417    5.479803882    5.369114043    3.020177685
    0.257429048    5.478583899    5.367914171    3.019585541
    0.264607679    5.477330115    5.366681062    3.018977032
    0.271786311    5.476042589    5.365414773    3.018352189
    0.278964942    5.474721380    5.364115363    3.017711045
    0.286143573    5.473366550    5.362782893    3.017053632
    0.293322204    5.471978160    5.361417425    3.016379983
    0.300500835    5.470556275    5.360019022    3.015690135
    0.307679466    5.469100961    5.358587749    3.014984122
    0.314858097    5.467612284    5.357123673    3.014261980
    0.322036728    5.466090313    5.355626861    3.013523747
    0.329215359    5.464535117    5.354097383    3.012769460
    0.336393990    5.462946769    5.352535310    3.011999158
    0.343572621    5.461325340    5.350940713    3.011212880
    0.350751252    5.459670905    5.349313666    3.010410666
    0.357929883    5.457983540    5.347654245    3.009592557
    0.365108514    5.456263321    5.345962525    3.008758595
    0.372287145    5.454510328    5.344238584    3.007908823
    0.379465776    5.452724639    5.342482503    3.007043282
    0.386644407    5.450906337    5.340694360    3.006162017
    0.393823038    5.449055503    5.338874238    3.005265073
    0.401001669    5.447172223    5.337022220    3.004352495
    0.408180301    5.445256580    5.335138391    3.003424328
    0.415358932    5.443308662    5.333222837    3.002480620
    0.422537563    5.441328558    5.331275646    3.001521418
    0.429716194    5.439316355    5.329296905    3.000546770
    0.436894825    5.437272146    5.327286704    2.999556726
    0.444073456    5.435196022    5.325245136    2.998551333
    0.451252087    5.433088076    5.323172291    2.997530643
    0.458430718    5.430948403    5.321068265    2.996494707
    0.465609349    5.428777099    5.318933152    2.995443575
    0.472787980    5.426574261    5.316767048    2.994377301
    0.479966611    5.424339987    5.314570052    2.993295937
    0.487145242    5.422074377    5.312342261    2.992199537
    0.494323873    5.419777533    5.310083776    2.991088154
    0.501502504    5.417449555    5.307794698    2.989961844
    0.508681135    5.415090548    5.305475129    2.988820662
    0.515859766    5.412700616    5.303125173    2.987664664
    0.523038397    5.410279864    5.300744935    2.986493906
    0.530217028    5.407828401    5.298334521    2.985308446
    0.537395659    5.405346333    5.295894038    2.984108343
    0.544574290    5.402833770    5.293423593    2.982893653
    0.551752922    5.400290822    5.290923297    2.981664436
    0.558931553    5.397717601    5.288393261    2.980420753
    0.566110184    5.395114220    5.285833595    2.979162663
    0.573288815    5.392480792    5.283244412    2.977890226
    0.580467446    5.389817433    5.280625826    2.976603505
    0.587646077    5.387124257    5.277977953    2.975302560
    0.594824708    5.384401383    5.275300907    2.973987456
    0.602003339    5.381648928    5.272594806    2.972658253
    0.609181970    5.378867011    5.269859769    2.971315017
    0.616360601    5.376055753    5.267095913    2.969957811
    0.623539232    5.373215274    5.264303359    2.968586699
    0.630717863    5.370345697    5.261482229    2.967201746
    0.637896494    5.367447146    5.258632643    2.965803019
    0.645075125    5.364519744    5.255754726    2.964390583
    0.652253756    5.361563616    5.252848601    2.962964504
    0.659432387    5.358578889    5.249914393    2.961524850
    0.666611018    5.355565689    5.246952228    2.960071688
    0.673789649    5.352524145    5.243962233    2.958605086
    0.680968280    5.349454386    5.240944535    2.957125112
    0.688146912    5.346356541    5.237899263    2.955631836
    0.695325543    5.343230741    5.234826546    2.954125325
    0.702504174    5.340077117    5.231726515    2.952605651
    0.709682805    5.336895803    5.228599301    2.951072883
    0.716861436    5.333686932    5.225445036    2.949527091
    0.724040067    5.330450637    5.222263853    2.947968347
    0.731218698    5.327187054    5.219055885    2.946396722
    0.738397329    5.323896318    5.215821267    2.944812288
    0.745575960    5.320578566    5.212560135    2.943215116
    0.752754591    5.317233936    5.209272624    2.941605279
    0.759933222    5.313862566    5.205958870    2.939982850
    0.767111853    5.310464594    5.202619013    2.938347903
    0.774290484    5.307040160    5.199253189    2.936700510
    0.781469115    5.303589405    5.195861538    2.935040746
    0.788647746    5.300112470    5.192444200    2.933368685
    0.795826377    5.296609497    5.189001315    2.931684401
    0.803005008    5.293080628    5.185533024    2.929987969
    0.810183639    5.289526006    5.182039469    2.928279465
    0.817362270    5.285945776    5.178520793    2.926558964
    0.824540902    5.282340082    5.174977137    2.924826542
    0.831719533    5.278709069    5.171408647    2.923082274
    0.838898164    5.275052882    5.167815467    2.921326238
    0.846076795    5.271371669    5.164197740    2.919558509
    0.853255426    5.267665577    5.160555614    2.917779165
    0.860434057    5.263934752    5.156889233    2.915988283
    0.867612688    5.260179343    5.153198744    2.914185940
    0.874791319    5.256399500    5.149484296    2.912372214
    0.881969950    5.252595370    5.145746034    2.910547182
    0.889148581    5.248767104    5.141984109    2.908710924
    0.896327212    5.244914853    5.138198667    2.906863516
    0.903505843    5.241038766    5.134389859    2.905005039
    0.910684474    5.237138996    5.130557835    2.903135569
    0.917863105    5.233215695    5.126702743    2.901255187
    0.925041736    5.229269013    5.122824736    2.899363972
    0.932220367    5.225299105    5.118923964    2.897462002
    0.939398998    5.221306123    5.115000578    2.895549358
    0.946577629    5.217290221    5.111054731    2.893626119
    0.953756260    5.213251553    5.107086574    2.891692364
    0.960934891    5.209190273    5.103096261    2.889748174
    0.968113523    5.205106536    5.099083945    2.887793628
    0.975292154    5.201000497    5.095049778    2.885828808
    0.982470785    5.196872312    5.090993915    2.883853792
    0.989649416    5.192722136    5.086916509    2.881868663
    0.996828047    5.188550126    5.082817716    2.879873500
    1.004006678    5.184356437    5.078697690    2.877868384
    1.011185309    5.180141228    5.074556585    2.875853396
    1.018363940    5.175904654    5.070394558    2.873828617
    1.025542571    5.171646874    5.066211763    2.871794127
    1.032721202    5.167368045    5.062008357    2.869750009
    1.039899833    5.163068324    5.057784496    2.867696342
    1.047078464    5.158747870    5.053540335    2.865633208
    1.054257095    5.154406842    5.049276032    2.863560689
    1.061435726    5.150045397    5.044991744    2.861478865
    1.068614357    5.145663694    5.040687626    2.859387818
    1.075792988    5.141261893    5.036363836    2.857287630
    1.082971619    5.136840153    5.032020532    2.855178382
    1.090150250    5.132398633    5.027657871    2.853060154
    1.097328881    5.127937491    5.023276010    2.850933030
    1.104507513    5.123456889    5.018875107    2.848797090
    1.111686144    5.118956985    5.014455320    2.846652415
    1.118864775    5.114437940    5.010016807    2.844499087
    1.126043406    5.109899913    5.005559726    2.842337188
    1.133222037    5.105343064    5.001084234    2.840166799
    1.140400668    5.100767554    4.996590491    2.837988001
    1.147579299    5.096173542    4.992078654    2.835800876
    1.154757930    5.091561189    4.987548882    2.833605505
    1.161936561    5.086930655    4.983001332    2.831401969
    1.169115192    5.082282101    4.978436164    2.829190351
    1.176293823    5.077615686    4.973853536    2.826970730
    1.183472454    5.072931571    4.969253605    2.824743188
    1.190651085    5.068229917    4.964636531    2.822507806
    1.197829716    5.063510884    4.960002471    2.820264666
    1.205008347    5.058774631    4.955351584    2.818013848
    1.212186978    5.054021320    4.950684028    2.815755432
    1.219365609    5.049251110    4.945999962    2.813489501
    1.226544240    5.044464162    4.941299543    2.811216134
    1.233722871    5.039660635    4.936582930    2.808935412
    1.240901503    5.034840690    4.931850280    2.806647415
    1.248080134    5.030004487    4.927101752    2.804352225
    1.255258765    5.025152185    4.922337502    2.802049920
    1.262437396    5.020283944    4.917557690    2.799740582
    1.269616027    5.015399924    4.912762471    2.797424290
    1.276794658    5.010500284    4.907952005    2.795101124
    1.283973289    5.005585184    4.903126447    2.792771164
    1.291151920    5.000654782    4.898285955    2.790434489
    1.298330551    4.995709238    4.893430686    2.788091180
    1.305509182    4.990748710    4.888560797    2.785741314
    1.312687813    4.985773358    4.883676444    2.783384972
    1.319866444    4.980783339    4.878777783    2.781022232
    1.327045075    4.975778812    4.873864972    2.778653173
    1.334223706    4.970759934    4.868938164    2.776277874
    1.341402337    4.965726864    4.863997517    2.773896414
    1.348580968    4.960679760    4.859043185    2.771508869
    1.355759599    4.955618778    4.854075325    2.769115320
    1.362938230    4.950544076    4.849094090    2.766715842
    1.370116861    4.945455810    4.844099636    2.764310515
    1.377295492    4.940354137    4.839092117    2.761899416
    1.384474124    4.935239214    4.834071687    2.759482622
    1.391652755    4.930111196    4.829038500    2.757060210
    1.398831386    4.924970239    4.823992709    2.754632257
    1.406010017    4.919816498    4.818934468    2.752198839
    1.413188648    4.914650130    4.813863930    2.749760034
    1.420367279    4.909471287    4.808781247    2.747315917
    1.427545910    4.904280126    4.803686572    2.744866565
    1.434724541    4.899076799    4.798580057    2.742412053
    1.441903172    4.893861461    4.793461852    2.739952456
    1.449081803    4.888634266    4.788332110    2.737487851
    1.456260434    4.883395365    4.783190981    2.735018311
    1.463439065    4.878144913    4.778038616    2.732543913
    1.470617696    4.872883061    4.772875164    2.730064730
    1.477796327    4.867609961    4.767700777    2.727580837
    1.484974958    4.862325764    4.762515602    2.725092307
    1.492153589    4.857030623    4.757319789    2.722599215
    1.499332220    4.851724687    4.752113486    2.720101634
    1.506510851    4.846408108    4.746896842    2.717599638
    1.513689482    4.841081034    4.741670004    2.715093299
    1.520868114    4.835743616    4.736433120    2.712582690
    1.528046745    4.830396002    4.731186336    2.710067884
    1.535225376    4.825038341    4.725929799    2.707548952
    1.542404007    4.819670781    4.720663654    2.705025967
    1.549582638    4.814293471    4.715388048    2.702499001
    1.556761269    4.808906556    4.710103125    2.699968123
    1.563939900    4.803510185    4.704809029    2.697433407
    1.571118531    4.798104503    4.699505906    2.694894921
    1.578297162    4.792689656    4.694193897    2.692352737
    1.585475793    4.787265789    4.688873148    2.689806926
    1.592654424    4.781833048    4.683543799    2.687257555
    1.599833055    4.776391577    4.678205994    2.684704696
    1.607011686    4.770941519    4.672859873    2.682148417
    1.614190317    4.765483018    4.667505579    2.679588788
    1.621368948    4.760016217    4.662143251    2.677025877
    1.628547579    4.754541258    4.656773030    2.674459751
    1.635726210    4.749058283    4.651395055    2.671890480
    1.642904841    4.743567433    4.646009466    2.669318131
    1.650083472    4.738068849    4.640616400    2.666742771
    1.657262104    4.732562671    4.635215996    2.664164467
    1.664440735    4.727049039    4.629808391    2.661583287
    1.671619366    4.721528092    4.624393722    2.658999295
    1.678797997    4.715999968    4.618972125    2.656412559
    1.685976628    4.710464805    4.613543736    2.653823143
    1.693155259    4.704922741    4.608108691    2.651231115
    1.700333890    4.699373913    4.602667123    2.648636537
    1.707512521    4.693818456    4.597219167    2.646039476
    1.714691152    4.688256508    4.591764956    2.643439995
    1.721869783    4.682688201    4.586304624    2.640838159
    1.729048414    4.677113672    4.580838301    2.638234032
    1.736227045    4.671533055    4.575366121    2.635627676
    1.743405676    4.665946482    4.569888214    2.633019154
    1.750584307    4.660354086    4.564404711    2.630408530
    1.757762938    4.654755999    4.558915742    2.627795866
    1.764941569    4.649152353    4.553421435    2.625181224
    1.772120200    4.643543280    4.547921921    2.622564665
    1.779298831    4.637928908    4.542417326    2.619946250
    1.786477462    4.632309368    4.536907778    2.617326042
    1.793656093    4.626684790    4.531393404    2.614704099
    1.800834725    4.621055300    4.525874331    2.612080483
    1.808013356    4.615421028    4.520350683    2.609455253
    1.815191987    4.609782101    4.514822587    2.606828470
    1.822370618    4.604138645    4.509290166    2.604200191
    1.829549249    4.598490785    4.503753544    2.601570476
    1.836727880    4.592838648    4.498212844    2.598939384
    1.843906511    4.587182358    4.492668188    2.596306972
    1.851085142    4.581522039    4.487119699    2.593673299
    1.858263773    4.575857815    4.481567498    2.591038421
    1.865442404    4.570189808    4.476011705    2.588402397
    1.872621035    4.564518140    4.470452440    2.585765281
    1.879799666    4.558842932    4.464889822    2.583127132
    1.886978297    4.553164306    4.459323970    2.580488004
    1.894156928    4.547482382    4.453755001    2.577847954
    1.901335559    4.541797278    4.448183034    2.575207037
    1.908514190    4.536109115    4.442608185    2.572565307
    1.915692821    4.530418010    4.437030569    2.569922819
    1.922871452    4.524724080    4.431450302    2.567279628
    1.930050083    4.519027442    4.425867499    2.564635787
    1.937228715    4.513328213    4.420282274    2.561991349
    1.944407346    4.507626508    4.414694739    2.559346368
    1.951585977    4.501922442    4.409105008    2.556700897
    1.958764608    4.496216128    4.403513193    2.554054987
    1.965943239    4.490507681    4.397919405    2.551408691
    1.973121870    4.484797213    4.392323754    2.548762060
    1.980300501    4.479084837    4.386726351    2.546115147
    1.987479132    4.473370663    4.381127304    2.543468001
    1.994657763    4.467654802    4.375526724    2.540820673
    2.001836394    4.461937366    4.369924716    2.538173214
    2.009015025    4.456218462    4.364321390    2.535525672
    2.016193656    4.450498200    4.358716850    2.532878099
    2.023372287    4.444776688    4.353111204    2.530230543
    2.030550918    4.439054033    4.347504557    2.527583052
    2.037729549    4.433330343    4.341897013    2.524935675
    2.044908180    4.427605721    4.336288676    2.522288460
    2.052086811    4.421880276    4.330679649    2.519641455
    2.059265442    4.416154110    4.325070035    2.516994707
    2.066444073    4.410427327    4.319459936    2.514348263
    2.073622705    4.404700032    4.313849453    2.511702169
    2.080801336    4.398972327    4.308238686    2.509056473
    2.087979967    4.393244313    4.302627736    2.506411219
    2.095158598    4.387516092    4.297016701    2.503766453
    2.102337229    4.381787765    4.291405680    2.501122221
    2.109515860    4.376059430    4.285794771    2.498478567
    2.116694491    4.370331188    4.280184071    2.495835536
    2.123873122    4.364603137    4.274573676    2.493193171
    2.131051753    4.358875375    4.268963682    2.490551517
    2.138230384    4.353147998    4.263354185    2.487910617
    2.145409015    4.347421104    4.257745278    2.485270514
    2.152587646    4.341694787    4.252137056    2.482631251
    2.159766277    4.335969144    4.246529611    2.479992870
    2.166944908    4.330244268    4.240923035    2.477355413
    2.174123539    4.324520253    4.235317422    2.474718921
    2.181302170    4.318797193    4.229712861    2.472083436
    2.188480801    4.313075179    4.224109443    2.469449000
    2.195659432    4.307354303    4.218507258    2.466815651
    2.202838063    4.301634656    4.212906394    2.464183432
    2.210016694    4.295916329    4.207306940    2.461552381
    2.217195326    4.290199411    4.201708985    2.458922538
    2.224373957    4.284483991    4.196112614    2.456293943
    2.231552588    4.278770157    4.190517914    2.453666634
    2.238731219    4.273057998    4.184924970    2.451040650
    2.245909850    4.267347599    4.179333869    2.448416029
    2.253088481    4.261639048    4.173744694    2.445792809
    2.260267112    4.255932429    4.168157528    2.443171028
    2.267445743    4.250227828    4.162572455    2.440550722
    2.274624374    4.244525329    4.156989558    2.437931928
    2.281803005    4.238825015    4.151408917    2.435314683
    2.288981636    4.233126970    4.145830614    2.432699024
    2.296160267    4.227431275    4.140254730    2.430084986
    2.303338898    4.221738013    4.134681343    2.427472604
    2.310517529    4.216047264    4.129110534    2.424861913
    2.317696160    4.210359109    4.123542380    2.422252950
    2.324874791    4.204673626    4.117976960    2.419645747
    2.332053422    4.198990896    4.112414349    2.417040339
    2.339232053    4.193310996    4.106854626    2.414436761
    2.346410684    4.187634004    4.101297865    2.411835046
    2.353589316    4.181959997    4.095744143    2.409235226
    2.360767947    4.176289051    4.090193532    2.406637335
    2.367946578    4.170621242    4.084646108    2.404041405
    2.375125209    4.164956646    4.079101943    2.401447469
    2.382303840    4.159295335    4.073561111    2.398855559
    2.389482471    4.153637385    4.068023682    2.396265706
    2.396661102    4.147982869    4.062489729    2.393677942
    2.403839733    4.142331857    4.056959322    2.391092297
    2.411018364    4.136684424    4.051432532    2.388508802
    2.418196995    4.131040639    4.045909427    2.385927488
    2.425375626    4.125400574    4.040390076    2.383348384
    2.432554257    4.119764298    4.034874549    2.380771521
    2.439732888    4.114131880    4.029362911    2.378196928
    2.446911519    4.108503390    4.023855231    2.375624634
    2.454090150    4.102878895    4.018351574    2.373054668
    2.461268781    4.097258462    4.012852007    2.370487058
    2.468447412    4.091642159    4.007356594    2.367921833
    2.475626043    4.086030052    4.001865400    2.365359021
    2.482804674    4.080422206    3.996378489    2.362798648
    2.489983306    4.074818686    3.990895924    2.360240743
    2.497161937    4.069219557    3.985417768    2.357685333
    2.504340568    4.063624882    3.979944082    2.355132445
    2.511519199    4.058034724    3.974474929    2.352582104
    2.518697830    4.052449146    3.969010369    2.350034337
    2.525876461    4.046868209    3.963550463    2.347489169
    2.533055092    4.041291976    3.958095270    2.344946628
    2.540233723    4.035720507    3.952644849    2.342406737
