# energy grid [eV]     ieps_x  ieps_y  ieps_z
#
    0.200000000   10.598715932    4.796219337   11.141368433
    0.207178631   10.596042125    4.795216582   11.138432151
    0.214357262   10.593276164    4.794180185   11.135395958
    0.221535893   10.590418262    4.793110309   11.132260204
    0.228714524   10.587468640    4.792007118   11.129025244
    0.235893155   10.584427525    4.790870779   11.125691440
    0.243071786   10.581295150    4.789701460   11.122259161
    0.250250417   10.578071752    4.788499334   11.118728784
    0.257429048   10.574757577    4.787264575   11.115100691
    0.264607679   10.571352875    4.785997359   11.111375271
    0.271786311   10.567857901    4.784697863   11.107552916
    0.278964942   10.564272918    4.783366268   11.103634027
    0.286143573   10.560598194    4.782002753   11.099619008
    0.293322204   10.556833999    4.780607501   11.095508267
    0.300500835   10.552980613    4.779180695   11.091302219
    0.307679466   10.549038318    4.777722521   11.087001282
    0.314858097   10.545007404    4.776233163   11.082605877
    0.322036728   10.540888164    4.774712808   11.078116431
    0.329215359   10.536680896    4.773161642   11.073533373
    0.336393990   10.532385904    4.771579852   11.068857136
    0.343572621   10.528003496    4.769967627   11.064088156
    0.350751252   10.523533986    4.768325154   11.059226872
    0.357929883   10.518977691    4.766652621   11.054273726
    0.365108514   10.514334934    4.764950217   11.049229162
    0.372287145   10.509606041    4.763218129   11.044093628
    0.379465776   10.504791344    4.761456547   11.038867573
    0.386644407   10.499891179    4.759665657   11.033551447
    0.393823038   10.494905886    4.757845647   11.028145705
    0.401001669   10.489835810    4.755996706   11.022650801
    0.408180301   10.484681297    4.754119019   11.017067192
    0.415358932   10.479442702    4.752212773   11.011395338
    0.422537563   10.474120379    4.750278154   11.005635698
    0.429716194   10.468714691    4.748315347   10.999788733
    0.436894825   10.463226000    4.746324538   10.993854907
    0.444073456   10.457654675    4.744305910   10.987834683
    0.451252087   10.452001087    4.742259647   10.981728528
    0.458430718   10.446265612    4.740185931   10.975536906
    0.465609349   10.440448628    4.738084945   10.969260285
    0.472787980   10.434550517    4.735956869   10.962899134
    0.479966611   10.428571666    4.733801884   10.956453921
    0.487145242   10.422512462    4.731620169   10.949925117
    0.494323873   10.416373299    4.729411903   10.943313192
    0.501502504   10.410154572    4.727177264   10.936618618
    0.508681135   10.403856679    4.724916429   10.929841866
    0.515859766   10.397480023    4.722629574   10.922983409
    0.523038397   10.391025007    4.720316874   10.916043721
    0.530217028   10.384492040    4.717978503   10.909023276
    0.537395659   10.377881531    4.715614634   10.901922548
    0.544574290   10.371193895    4.713225441   10.894742012
    0.551752922   10.364429548    4.710811094   10.887482144
    0.558931553   10.357588907    4.708371765   10.880143420
    0.566110184   10.350672395    4.705907623   10.872726316
    0.573288815   10.343680436    4.703418838   10.865231310
    0.580467446   10.336613455    4.700905576   10.857658878
    0.587646077   10.329471883    4.698368006   10.850009499
    0.594824708   10.322256150    4.695806294   10.842283651
    0.602003339   10.314966690    4.693220606   10.834481813
    0.609181970   10.307603939    4.690611105   10.826604464
    0.616360601   10.300168335    4.687977956   10.818652083
    0.623539232   10.292660318    4.685321322   10.810625150
    0.630717863   10.285080331    4.682641365   10.802524146
    0.637896494   10.277428818    4.679938247   10.794349552
    0.645075125   10.269706226    4.677212129   10.786101848
    0.652253756   10.261913003    4.674463169   10.777781515
    0.659432387   10.254049598    4.671691528   10.769389036
    0.666611018   10.246116465    4.668897364   10.760924893
    0.673789649   10.238114056    4.666080834   10.752389568
    0.680968280   10.230042828    4.663242096   10.743783544
    0.688146912   10.221903237    4.660381306   10.735107304
    0.695325543   10.213695743    4.657498620   10.726361331
    0.702504174   10.205420804    4.654594193   10.717546110
    0.709682805   10.197078884    4.651668178   10.708662124
    0.716861436   10.188670445    4.648720731   10.699709858
    0.724040067   10.180195951    4.645752003   10.690689796
    0.731218698   10.171655869    4.642762148   10.681602424
    0.738397329   10.163050666    4.639751317   10.672448226
    0.745575960   10.154380810    4.636719661   10.663227689
    0.752754591   10.145646770    4.633667332   10.653941297
    0.759933222   10.136849017    4.630594480   10.644589538
    0.767111853   10.127988023    4.627501254   10.635172897
    0.774290484   10.119064260    4.624387803   10.625691860
    0.781469115   10.110078203    4.621254276   10.616146915
    0.788647746   10.101030325    4.618100822   10.606538547
    0.795826377   10.091921102    4.614927587   10.596867245
    0.803005008   10.082751011    4.611734719   10.587133496
    0.810183639   10.073520528    4.608522364   10.577337786
    0.817362270   10.064230131    4.605290668   10.567480603
    0.824540902   10.054880298    4.602039778   10.557562435
    0.831719533   10.045471509    4.598769839   10.547583770
    0.838898164   10.036004242    4.595480994   10.537545095
    0.846076795   10.026478979    4.592173390   10.527446897
    0.853255426   10.016896199    4.588847168   10.517289666
    0.860434057   10.007256384    4.585502474   10.507073889
    0.867612688    9.997560015    4.582139450   10.496800053
    0.874791319    9.987807574    4.578758239   10.486468647
    0.881969950    9.977999543    4.575358983   10.476080158
    0.889148581    9.968136404    4.571941824   10.465635075
    0.896327212    9.958218639    4.568506903   10.455133884
    0.903505843    9.948246732    4.565054362   10.444577074
    0.910684474    9.938221164    4.561584341   10.433965132
    0.917863105    9.928142420    4.558096981   10.423298545
    0.925041736    9.918010981    4.554592422   10.412577801
    0.932220367    9.907827331    4.551070803   10.401803386
    0.939398998    9.897591952    4.547532264   10.390975787
    0.946577629    9.887305327    4.543976943   10.380095490
    0.953756260    9.876967939    4.540404980   10.369162983
    0.960934891    9.866580271    4.536816511   10.358178751
    0.968113523    9.856142803    4.533211676   10.347143278
    0.975292154    9.845656019    4.529590612   10.336057052
    0.982470785    9.835120399    4.525953456   10.324920556
    0.989649416    9.824536426    4.522300345   10.313734275
    0.996828047    9.813904580    4.518631414   10.302498693
    1.004006678    9.803225341    4.514946802   10.291214294
    1.011185309    9.792499191    4.511246643   10.279881561
    1.018363940    9.781726607    4.507531072   10.268500977
    1.025542571    9.770908070    4.503800226   10.257073023
    1.032721202    9.760044058    4.500054239   10.245598182
    1.039899833    9.749135049    4.496293245   10.234076934
    1.047078464    9.738181520    4.492517380   10.222509760
    1.054257095    9.727183947    4.488726775   10.210897139
    1.061435726    9.716142807    4.484921566   10.199239551
    1.068614357    9.705058575    4.481101886   10.187537474
    1.075792988    9.693931725    4.477267866   10.175791386
    1.082971619    9.682762731    4.473419641   10.164001764
    1.090150250    9.671552065    4.469557342   10.152169084
    1.097328881    9.660300200    4.465681101   10.140293822
    1.104507513    9.649007606    4.461791050   10.128376452
    1.111686144    9.637674754    4.457887320   10.116417447
    1.118864775    9.626302112    4.453970042   10.104417282
    1.126043406    9.614890150    4.450039347   10.092376427
    1.133222037    9.603439332    4.446095364   10.080295354
    1.140400668    9.591950127    4.442138225   10.068174534
    1.147579299    9.580422999    4.438168059   10.056014434
    1.154757930    9.568858411    4.434184994   10.043815525
    1.161936561    9.557256826    4.430189161   10.031578272
    1.169115192    9.545618706    4.426180687   10.019303142
    1.176293823    9.533944511    4.422159701   10.006990599
    1.183472454    9.522234701    4.418126332    9.994641109
    1.190651085    9.510489732    4.414080706    9.982255133
    1.197829716    9.498710062    4.410022951    9.969833134
    1.205008347    9.486896146    4.405953194    9.957375571
    1.212186978    9.475048437    4.401871561    9.944882905
    1.219365609    9.463167389    4.397778180    9.932355593
    1.226544240    9.451253452    4.393673176    9.919794093
    1.233722871    9.439307076    4.389556674    9.907198859
    1.240901503    9.427328710    4.385428800    9.894570346
    1.248080134    9.415318801    4.381289678    9.881909008
    1.255258765    9.403277793    4.377139434    9.869215295
    1.262437396    9.391206131    4.372978192    9.856489658
    1.269616027    9.379104257    4.368806075    9.843732547
    1.276794658    9.366972612    4.364623207    9.830944409
    1.283973289    9.354811635    4.360429710    9.818125689
    1.291151920    9.342621765    4.356225709    9.805276833
    1.298330551    9.330403436    4.352011325    9.792398283
    1.305509182    9.318157083    4.347786680    9.779490482
    1.312687813    9.305883140    4.343551896    9.766553870
    1.319866444    9.293582038    4.339307094    9.753588885
    1.327045075    9.281254205    4.335052395    9.740595965
    1.334223706    9.268900070    4.330787920    9.727575545
    1.341402337    9.256520058    4.326513789    9.714528060
    1.348580968    9.244114595    4.322230122    9.701453941
    1.355759599    9.231684101    4.317937038    9.688353620
    1.362938230    9.219228999    4.313634656    9.675227526
    1.370116861    9.206749707    4.309323095    9.662076086
    1.377295492    9.194246643    4.305002474    9.648899727
    1.384474124    9.181720221    4.300672909    9.635698872
    1.391652755    9.169170855    4.296334519    9.622473943
    1.398831386    9.156598956    4.291987420    9.609225363
    1.406010017    9.144004936    4.287631729    9.595953549
    1.413188648    9.131389200    4.283267564    9.582658918
    1.420367279    9.118752156    4.278895038    9.569341888
    1.427545910    9.106094207    4.274514269    9.556002870
    1.434724541    9.093415755    4.270125371    9.542642277
    1.441903172    9.080717202    4.265728459    9.529260520
    1.449081803    9.067998944    4.261323646    9.515858005
    1.456260434    9.055261378    4.256911048    9.502435141
    1.463439065    9.042504899    4.252490776    9.488992330
    1.470617696    9.029729898    4.248062946    9.475529977
    1.477796327    9.016936767    4.243627668    9.462048481
    1.484974958    9.004125893    4.239185055    9.448548242
    1.492153589    8.991297663    4.234735219    9.435029657
    1.499332220    8.978452461    4.230278272    9.421493120
    1.506510851    8.965590669    4.225814324    9.407939025
    1.513689482    8.952712668    4.221343485    9.394367763
    1.520868114    8.939818835    4.216865866    9.380779724
    1.528046745    8.926909546    4.212381576    9.367175294
    1.535225376    8.913985176    4.207890725    9.353554858
    1.542404007    8.901046096    4.203393422    9.339918801
    1.549582638    8.888092677    4.198889773    9.326267503
    1.556761269    8.875125285    4.194379889    9.312601343
    1.563939900    8.862144287    4.189863875    9.298920700
    1.571118531    8.849150046    4.185341839    9.285225948
    1.578297162    8.836142923    4.180813887    9.271517460
    1.585475793    8.823123277    4.176280126    9.257795607
    1.592654424    8.810091467    4.171740661    9.244060759
    1.599833055    8.797047845    4.167195598    9.230313283
    1.607011686    8.783992767    4.162645040    9.216553543
    1.614190317    8.770926581    4.158089093    9.202781903
    1.621368948    8.757849637    4.153527860    9.188998722
    1.628547579    8.744762280    4.148961444    9.175204361
    1.635726210    8.731664856    4.144389949    9.161399176
    1.642904841    8.718557706    4.139813477    9.147583520
    1.650083472    8.705441170    4.135232130    9.133757748
    1.657262104    8.692315586    4.130646009    9.119922208
    1.664440735    8.679181289    4.126055215    9.106077249
    1.671619366    8.666038613    4.121459850    9.092223217
    1.678797997    8.652887888    4.116860012    9.078360455
    1.685976628    8.639729444    4.112255803    9.064489307
    1.693155259    8.626563608    4.107647320    9.050610111
    1.700333890    8.613390703    4.103034663    9.036723205
    1.707512521    8.600211053    4.098417930    9.022828924
    1.714691152    8.587024978    4.093797218    9.008927602
    1.721869783    8.573832795    4.089172625    8.995019569
    1.729048414    8.560634821    4.084544248    8.981105154
    1.736227045    8.547431369    4.079912183    8.967184685
    1.743405676    8.534222751    4.075276526    8.953258485
    1.750584307    8.521009275    4.070637372    8.939326877
    1.757762938    8.507791250    4.065994816    8.925390181
    1.764941569    8.494568979    4.061348953    8.911448716
    1.772120200    8.481342766    4.056699876    8.897502797
    1.779298831    8.468112910    4.052047679    8.883552739
    1.786477462    8.454879711    4.047392454    8.869598851
    1.793656093    8.441643464    4.042734295    8.855641445
    1.800834725    8.428404464    4.038073292    8.841680827
    1.808013356    8.415163001    4.033409539    8.827717302
    1.815191987    8.401919366    4.028743125    8.813751173
    1.822370618    8.388673845    4.024074141    8.799782740
    1.829549249    8.375426725    4.019402677    8.785812303
    1.836727880    8.362178287    4.014728823    8.771840158
    1.843906511    8.348928813    4.010052667    8.757866598
    1.851085142    8.335678582    4.005374298    8.743891916
    1.858263773    8.322427870    4.000693805    8.729916402
    1.865442404    8.309176950    3.996011275    8.715940343
    1.872621035    8.295926097    3.991326794    8.701964024
    1.879799666    8.282675578    3.986640449    8.687987730
    1.886978297    8.269425663    3.981952327    8.674011740
    1.894156928    8.256176616    3.977262513    8.660036335
    1.901335559    8.242928702    3.972571092    8.646061791
    1.908514190    8.229682182    3.967878148    8.632088383
    1.915692821    8.216437314    3.963183766    8.618116383
    1.922871452    8.203194357    3.958488029    8.604146062
    1.930050083    8.189953564    3.953791021    8.590177687
    1.937228715    8.176715189    3.949092824    8.576211525
    1.944407346    8.163479483    3.944393519    8.562247841
    1.951585977    8.150246695    3.939693189    8.548286894
    1.958764608    8.137017069    3.934991915    8.534328946
    1.965943239    8.123790852    3.930289777    8.520374254
    1.973121870    8.110568285    3.925586855    8.506423074
    1.980300501    8.097349609    3.920883229    8.492475657
    1.987479132    8.084135061    3.916178978    8.478532257
    1.994657763    8.070924878    3.911474181    8.464593121
    2.001836394    8.057719294    3.906768916    8.450658497
    2.009015025    8.044518540    3.902063260    8.436728629
    2.016193656    8.031322846    3.897357290    8.422803760
    2.023372287    8.018132440    3.892651084    8.408884132
    2.030550918    8.004947548    3.887944717    8.394969982
    2.037729549    7.991768394    3.883238264    8.381061546
    2.044908180    7.978595198    3.878531802    8.367159060
    2.052086811    7.965428180    3.873825404    8.353262756
    2.059265442    7.952267559    3.869119145    8.339372864
    2.066444073    7.939113550    3.864413098    8.325489611
    2.073622705    7.925966365    3.859707337    8.311613225
    2.080801336    7.912826217    3.855001934    8.297743929
    2.087979967    7.899693316    3.850296961    8.283881945
    2.095158598    7.886567868    3.845592490    8.270027494
    2.102337229    7.873450079    3.840888592    8.256180793
    2.109515860    7.860340153    3.836185339    8.242342058
    2.116694491    7.847238292    3.831482799    8.228511503
    2.123873122    7.834144695    3.826781043    8.214689341
    2.131051753    7.821059560    3.822080140    8.200875780
    2.138230384    7.807983082    3.817380159    8.187071030
    2.145409015    7.794915456    3.812681167    8.173275295
    2.152587646    7.781856873    3.807983233    8.159488780
    2.159766277    7.768807523    3.803286424    8.145711687
    2.166944908    7.755767595    3.798590807    8.131944216
    2.174123539    7.742737274    3.793896448    8.118186565
    2.181302170    7.729716746    3.789203412    8.104438930
    2.188480801    7.716706191    3.784511766    8.090701505
    2.195659432    7.703705792    3.779821573    8.076974482
    2.202838063    7.690715726    3.775132899    8.063258053
    2.210016694    7.677736170    3.770445806    8.049552404
    2.217195326    7.664767300    3.765760360    8.035857723
    2.224373957    7.651809288    3.761076621    8.022174194
    2.231552588    7.638862305    3.756394654    8.008501999
    2.238731219    7.625926522    3.751714519    7.994841320
    2.245909850    7.613002106    3.747036278    7.981192336
    2.253088481    7.600089222    3.742359993    7.967555223
    2.260267112    7.587188034    3.737685724    7.953930157
    2.267445743    7.574298706    3.733013530    7.940317311
    2.274624374    7.561421397    3.728343472    7.926716856
    2.281803005    7.548556266    3.723675608    7.913128963
    2.288981636    7.535703471    3.719009997    7.899553798
    2.296160267    7.522863165    3.714346698    7.885991528
    2.303338898    7.510035503    3.709685768    7.872442317
    2.310517529    7.497220637    3.705027264    7.858906327
    2.317696160    7.484418716    3.700371243    7.845383719
    2.324874791    7.471629889    3.695717761    7.831874652
    2.332053422    7.458854303    3.691066875    7.818379283
    2.339232053    7.446092101    3.686418639    7.804897767
    2.346410684    7.433343429    3.681773108    7.791430258
    2.353589316    7.420608426    3.677130338    7.777976906
    2.360767947    7.407887233    3.672490382    7.764537863
    2.367946578    7.395179988    3.667853293    7.751113276
    2.375125209    7.382486828    3.663219124    7.737703293
    2.382303840    7.369807888    3.658587929    7.724308057
    2.389482471    7.357143300    3.653959760    7.710927713
    2.396661102    7.344493197    3.649334667    7.697562401
    2.403839733    7.331857709    3.644712704    7.684212261
    2.411018364    7.319236964    3.640093919    7.670877432
    2.418196995    7.306631089    3.635478364    7.657558049
    2.425375626    7.294040210    3.630866089    7.644254248
    2.432554257    7.281464450    3.626257143    7.630966162
    2.439732888    7.268903931    3.621651576    7.617693922
    2.446911519    7.256358774    3.617049435    7.604437658
    2.454090150    7.243829099    3.612450770    7.591197499
    2.461268781    7.231315022    3.607855627    7.577973570
    2.468447412    7.218816660    3.603264055    7.564765998
    2.475626043    7.206334127    3.598676100    7.551574905
    2.482804674    7.193867536    3.594091808    7.538400413
    2.489983306    7.181416999    3.589511226    7.525242643
    2.497161937    7.168982627    3.584934399    7.512101714
    2.504340568    7.156564526    3.580361373    7.498977742
    2.511519199    7.144162806    3.575792191    7.485870843
    2.518697830    7.131777570    3.571226899    7.472781132
    2.525876461    7.119408924    3.566665541    7.459708721
    2.533055092    7.107056971    3.562108159    7.446653721
    2.540233723    7.094721811    3.557554797    7.433616241
