# energy grid [eV]     ieps_x  ieps_y  ieps_z
#
    0.200000000    9.166104940    9.289234180    2.652343871
    0.207178631    9.164017716    9.287119198    2.651982684
    0.214357262    9.161858210    9.284931109    2.651609054
    0.221535893    9.159626556    9.282670061    2.651223009
    0.228714524    9.157322893    9.280336209    2.650824580
    0.235893155    9.154947365    9.277929710    2.650413798
    0.243071786    9.152500119    9.275450727    2.649990694
    0.250250417    9.149981306    9.272899426    2.649555301
    0.257429048    9.147391083    9.270275979    2.649107652
    0.264607679    9.144729609    9.267580561    2.648647781
    0.271786311    9.141997048    9.264813351    2.648175722
    0.278964942    9.139193569    9.261974533    2.647691511
    0.286143573    9.136319343    9.259064295    2.647195184
    0.293322204    9.133374547    9.256082828    2.646686777
    0.300500835    9.130359360    9.253030329    2.646166328
    0.307679466    9.127273966    9.249906996    2.645633874
    0.314858097    9.124118553    9.246713034    2.645089455
    0.322036728    9.120893313    9.243448650    2.644533110
    0.329215359    9.117598441    9.240114055    2.643964878
    0.336393990    9.114234137    9.236709463    2.643384800
    0.343572621    9.110800602    9.233235094    2.642792916
    0.350751252    9.107298045    9.229691169    2.642189269
    0.357929883    9.103726675    9.226077913    2.641573900
    0.365108514    9.100086706    9.222395556    2.640946852
    0.372287145    9.096378355    9.218644330    2.640308167
    0.379465776    9.092601843    9.214824471    2.639657890
    0.386644407    9.088757396    9.210936219    2.638996064
    0.393823038    9.084845240    9.206979814    2.638322733
    0.401001669    9.080865607    9.202955504    2.637637943
    0.408180301    9.076818732    9.198863537    2.636941739
    0.415358932    9.072704853    9.194704164    2.636234167
    0.422537563    9.068524211    9.190477640    2.635515271
    0.429716194    9.064277050    9.186184224    2.634785101
    0.436894825    9.059963619    9.181824176    2.634043701
    0.444073456    9.055584168    9.177397760    2.633291119
    0.451252087    9.051138951    9.172905242    2.632527403
    0.458430718    9.046628226    9.168346892    2.631752601
    0.465609349    9.042052252    9.163722982    2.630966760
    0.472787980    9.037411293    9.159033786    2.630169930
    0.479966611    9.032705614    9.154279582    2.629362160
    0.487145242    9.027935484    9.149460650    2.628543497
    0.494323873    9.023101176    9.144577272    2.627713993
    0.501502504    9.018202964    9.139629734    2.626873696
    0.508681135    9.013241126    9.134618322    2.626022657
    0.515859766    9.008215940    9.129543327    2.625160926
    0.523038397    9.003127691    9.124405041    2.624288552
    0.530217028    8.997976664    9.119203759    2.623405587
    0.537395659    8.992763146    9.113939776    2.622512082
    0.544574290    8.987487428    9.108613393    2.621608088
    0.551752922    8.982149804    9.103224910    2.620693656
    0.558931553    8.976750569    9.097774631    2.619768837
    0.566110184    8.971290020    9.092262860    2.618833684
    0.573288815    8.965768459    9.086689907    2.617888248
    0.580467446    8.960186187    9.081056079    2.616932580
    0.587646077    8.954543511    9.075361688    2.615966735
    0.594824708    8.948840736    9.069607048    2.614990762
    0.602003339    8.943078173    9.063792473    2.614004716
    0.609181970    8.937256134    9.057918282    2.613008649
    0.616360601    8.931374930    9.051984792    2.612002613
    0.623539232    8.925434880    9.045992324    2.610986662
    0.630717863    8.919436300    9.039941200    2.609960849
    0.637896494    8.913379510    9.033831745    2.608925226
    0.645075125    8.907264832    9.027664284    2.607879847
    0.652253756    8.901092589    9.021439143    2.606824765
    0.659432387    8.894863107    9.015156653    2.605760034
    0.666611018    8.888576714    9.008817143    2.604685708
    0.673789649    8.882233738    9.002420944    2.603601839
    0.680968280    8.875834511    8.995968391    2.602508482
    0.688146912    8.869379364    8.989459817    2.601405691
    0.695325543    8.862868632    8.982895559    2.600293519
    0.702504174    8.856302650    8.976275953    2.599172021
    0.709682805    8.849681756    8.969601340    2.598041250
    0.716861436    8.843006289    8.962872057    2.596901261
    0.724040067    8.836276590    8.956088447    2.595752107
    0.731218698    8.829492999    8.949250852    2.594593843
    0.738397329    8.822655859    8.942359615    2.593426524
    0.745575960    8.815765517    8.935415081    2.592250203
    0.752754591    8.808822316    8.928417596    2.591064935
    0.759933222    8.801826605    8.921367505    2.589870774
    0.767111853    8.794778732    8.914265158    2.588667775
    0.774290484    8.787679045    8.907110902    2.587455992
    0.781469115    8.780527897    8.899905088    2.586235480
    0.788647746    8.773325638    8.892648065    2.585006292
    0.795826377    8.766072622    8.885340186    2.583768485
    0.803005008    8.758769202    8.877981803    2.582522112
    0.810183639    8.751415733    8.870573269    2.581267227
    0.817362270    8.744012571    8.863114937    2.580003886
    0.824540902    8.736560073    8.855607163    2.578732143
    0.831719533    8.729058597    8.848050303    2.577452053
    0.838898164    8.721508501    8.840444711    2.576163670
    0.846076795    8.713910143    8.832790745    2.574867049
    0.853255426    8.706263886    8.825088762    2.573562245
    0.860434057    8.698570088    8.817339121    2.572249312
    0.867612688    8.690829112    8.809542180    2.570928304
    0.874791319    8.683041319    8.801698297    2.569599277
    0.881969950    8.675207073    8.793807833    2.568262285
    0.889148581    8.667326737    8.785871148    2.566917383
    0.896327212    8.659400674    8.777888602    2.565564624
    0.903505843    8.651429249    8.769860556    2.564204065
    0.910684474    8.643412827    8.761787372    2.562835758
    0.917863105    8.635351773    8.753669411    2.561459760
    0.925041736    8.627246453    8.745507034    2.560076123
    0.932220367    8.619097233    8.737300605    2.558684904
    0.939398998    8.610904479    8.729050486    2.557286156
    0.946577629    8.602668558    8.720757040    2.555879933
    0.953756260    8.594389836    8.712420629    2.554466290
    0.960934891    8.586068682    8.704041617    2.553045282
    0.968113523    8.577705463    8.695620368    2.551616962
    0.975292154    8.569300545    8.687157243    2.550181386
    0.982470785    8.560854297    8.678652608    2.548738606
    0.989649416    8.552367086    8.670106826    2.547288678
    0.996828047    8.543839281    8.661520259    2.545831655
    1.004006678    8.535271249    8.652893273    2.544367592
    1.011185309    8.526663358    8.644226230    2.542896543
    1.018363940    8.518015976    8.635519494    2.541418561
    1.025542571    8.509329471    8.626773429    2.539933701
    1.032721202    8.500604210    8.617988397    2.538442016
    1.039899833    8.491840561    8.609164763    2.536943561
    1.047078464    8.483038892    8.600302888    2.535438389
    1.054257095    8.474199569    8.591403137    2.533926554
    1.061435726    8.465322961    8.582465872    2.532408109
    1.068614357    8.456409432    8.573491455    2.530883108
    1.075792988    8.447459351    8.564480248    2.529351605
    1.082971619    8.438473084    8.555432614    2.527813653
    1.090150250    8.429450996    8.546348914    2.526269305
    1.097328881    8.420393453    8.537229509    2.524718616
    1.104507513    8.411300819    8.528074761    2.523161637
    1.111686144    8.402173461    8.518885029    2.521598423
    1.118864775    8.393011742    8.509660674    2.520029026
    1.126043406    8.383816027    8.500402055    2.518453499
    1.133222037    8.374586678    8.491109533    2.516871896
    1.140400668    8.365324058    8.481783465    2.515284268
    1.147579299    8.356028531    8.472424210    2.513690670
    1.154757930    8.346700457    8.463032125    2.512091153
    1.161936561    8.337340198    8.453607568    2.510485771
    1.169115192    8.327948114    8.444150896    2.508874575
    1.176293823    8.318524566    8.434662463    2.507257618
    1.183472454    8.309069913    8.425142627    2.505634953
    1.190651085    8.299584513    8.415591741    2.504006632
    1.197829716    8.290068725    8.406010160    2.502372706
    1.205008347    8.280522904    8.396398236    2.500733228
    1.212186978    8.270947409    8.386756324    2.499088251
    1.219365609    8.261342595    8.377084774    2.497437824
    1.226544240    8.251708816    8.367383938    2.495782002
    1.233722871    8.242046426    8.357654166    2.494120834
    1.240901503    8.232355779    8.347895809    2.492454373
    1.248080134    8.222637227    8.338109214    2.490782670
    1.255258765    8.212891121    8.328294731    2.489105776
    1.262437396    8.203117812    8.318452705    2.487423743
    1.269616027    8.193317650    8.308583485    2.485736622
    1.276794658    8.183490983    8.298687414    2.484044463
    1.283973289    8.173638159    8.288764838    2.482347317
    1.291151920    8.163759525    8.278816100    2.480645236
    1.298330551    8.153855426    8.268841543    2.478938270
    1.305509182    8.143926207    8.258841509    2.477226469
    1.312687813    8.133972211    8.248816338    2.475509884
    1.319866444    8.123993782    8.238766371    2.473788565
    1.327045075    8.113991261    8.228691945    2.472062562
    1.334223706    8.103964988    8.218593399    2.470331925
    1.341402337    8.093915303    8.208471070    2.468596704
    1.348580968    8.083842543    8.198325292    2.466856949
    1.355759599    8.073747046    8.188156401    2.465112709
    1.362938230    8.063629148    8.177964731    2.463364035
    1.370116861    8.053489183    8.167750612    2.461610975
    1.377295492    8.043327486    8.157514378    2.459853578
    1.384474124    8.033144387    8.147256357    2.458091894
    1.391652755    8.022940219    8.136976879    2.456325971
    1.398831386    8.012715311    8.126676271    2.454555859
    1.406010017    8.002469992    8.116354861    2.452781606
    1.413188648    7.992204589    8.106012973    2.451003260
    1.420367279    7.981919428    8.095650932    2.449220871
    1.427545910    7.971614835    8.085269060    2.447434486
    1.434724541    7.961291131    8.074867680    2.445644153
    1.441903172    7.950948641    8.064447112    2.443849920
    1.449081803    7.940587684    8.054007675    2.442051836
    1.456260434    7.930208580    8.043549687    2.440249947
    1.463439065    7.919811647    8.033073464    2.438444302
    1.470617696    7.909397202    8.022579323    2.436634947
    1.477796327    7.898965560    8.012067578    2.434821930
    1.484974958    7.888517035    8.001538540    2.433005298
    1.492153589    7.878051940    7.990992521    2.431185098
    1.499332220    7.867570586    7.980429832    2.429361377
    1.506510851    7.857073283    7.969850781    2.427534180
    1.513689482    7.846560339    7.959255675    2.425703555
    1.520868114    7.836032060    7.948644821    2.423869548
    1.528046745    7.825488754    7.938018523    2.422032205
    1.535225376    7.814930722    7.927377084    2.420191572
    1.542404007    7.804358269    7.916720806    2.418347694
    1.549582638    7.793771694    7.906049989    2.416500618
    1.556761269    7.783171298    7.895364932    2.414650388
    1.563939900    7.772557378    7.884665934    2.412797051
    1.571118531    7.761930232    7.873953289    2.410940650
    1.578297162    7.751290153    7.863227292    2.409081232
    1.585475793    7.740637436    7.852488237    2.407218840
    1.592654424    7.729972373    7.841736416    2.405353520
    1.599833055    7.719295253    7.830972118    2.403485316
    1.607011686    7.708606367    7.820195633    2.401614272
    1.614190317    7.697906001    7.809407247    2.399740432
    1.621368948    7.687194441    7.798607246    2.397863841
    1.628547579    7.676471971    7.787795915    2.395984541
    1.635726210    7.665738874    7.776973536    2.394102577
    1.642904841    7.654995432    7.766140391    2.392217992
    1.650083472    7.644241923    7.755296760    2.390330830
    1.657262104    7.633478626    7.744442920    2.388441132
    1.664440735    7.622705817    7.733579148    2.386548942
    1.671619366    7.611923771    7.722705719    2.384654303
    1.678797997    7.601132761    7.711822908    2.382757258
    1.685976628    7.590333058    7.700930986    2.380857848
    1.693155259    7.579524933    7.690030223    2.378956116
    1.700333890    7.568708654    7.679120888    2.377052103
    1.707512521    7.557884488    7.668203250    2.375145852
    1.714691152    7.547052700    7.657277573    2.373237404
    1.721869783    7.536213553    7.646344122    2.371326801
    1.729048414    7.525367310    7.635403160    2.369414083
    1.736227045    7.514514230    7.624454947    2.367499292
    1.743405676    7.503654572    7.613499744    2.365582469
    1.750584307    7.492788594    7.602537808    2.363663654
    1.757762938    7.481916551    7.591569396    2.361742888
    1.764941569    7.471038696    7.580594762    2.359820211
    1.772120200    7.460155281    7.569614160    2.357895663
    1.779298831    7.449266558    7.558627841    2.355969284
    1.786477462    7.438372775    7.547636055    2.354041114
    1.793656093    7.427474179    7.536639051    2.352111192
    1.800834725    7.416571016    7.525637075    2.350179559
    1.808013356    7.405663530    7.514630372    2.348246252
    1.815191987    7.394751962    7.503619187    2.346311311
    1.822370618    7.383836554    7.492603762    2.344374774
    1.829549249    7.372917545    7.481584336    2.342436681
    1.836727880    7.361995172    7.470561148    2.340497070
    1.843906511    7.351069671    7.459534436    2.338555978
    1.851085142    7.340141276    7.448504435    2.336613444
    1.858263773    7.329210219    7.437471380    2.334669506
    1.865442404    7.318276731    7.426435502    2.332724202
    1.872621035    7.307341041    7.415397033    2.330777568
    1.879799666    7.296403377    7.404356201    2.328829642
    1.886978297    7.285463964    7.393313235    2.326880461
    1.894156928    7.274523027    7.382268359    2.324930061
    1.901335559    7.263580789    7.371221799    2.322978481
    1.908514190    7.252637470    7.360173777    2.321025755
    1.915692821    7.241693289    7.349124515    2.319071920
    1.922871452    7.230748465    7.338074231    2.317117013
    1.930050083    7.219803213    7.327023145    2.315161069
    1.937228715    7.208857748    7.315971471    2.313204124
    1.944407346    7.197912283    7.304919426    2.311246213
    1.951585977    7.186967028    7.293867221    2.309287372
    1.958764608    7.176022193    7.282815070    2.307327635
    1.965943239    7.165077987    7.271763180    2.305367038
    1.973121870    7.154134615    7.260711762    2.303405615
    1.980300501    7.143192282    7.249661021    2.301443401
    1.987479132    7.132251191    7.238611164    2.299480430
    1.994657763    7.121311544    7.227562392    2.297516736
    2.001836394    7.110373540    7.216514910    2.295552353
    2.009015025    7.099437378    7.205468916    2.293587315
    2.016193656    7.088503254    7.194424610    2.291621655
    2.023372287    7.077571364    7.183382189    2.289655406
    2.030550918    7.066641900    7.172341849    2.287688603
    2.037729549    7.055715055    7.161303783    2.285721277
    2.044908180    7.044791018    7.150268186    2.283753461
    2.052086811    7.033869980    7.139235246    2.281785188
    2.059265442    7.022952125    7.128205155    2.279816490
    2.066444073    7.012037641    7.117178100    2.277847400
    2.073622705    7.001126711    7.106154266    2.275877948
    2.080801336    6.990219518    7.095133840    2.273908168
    2.087979967    6.979316242    7.084117004    2.271938090
    2.095158598    6.968417062    7.073103940    2.269967746
    2.102337229    6.957522157    7.062094828    2.267997167
    2.109515860    6.946631701    7.051089846    2.266026384
    2.116694491    6.935745871    7.040089173    2.264055428
    2.123873122    6.924864839    7.029092982    2.262084328
    2.131051753    6.913988777    7.018101450    2.260113117
    2.138230384    6.903117853    7.007114747    2.258141823
    2.145409015    6.892252238    6.996133045    2.256170476
    2.152587646    6.881392098    6.985156514    2.254199108
    2.159766277    6.870537599    6.974185321    2.252227746
    2.166944908    6.859688903    6.963219634    2.250256421
    2.174123539    6.848846175    6.952259616    2.248285161
    2.181302170    6.838009574    6.941305432    2.246313996
    2.188480801    6.827179260    6.930357244    2.244342955
    2.195659432    6.816355391    6.919415212    2.242372065
    2.202838063    6.805538123    6.908479495    2.240401356
    2.210016694    6.794727612    6.897550251    2.238430856
    2.217195326    6.783924011    6.886627636    2.236460592
    2.224373957    6.773127472    6.875711806    2.234490592
    2.231552588    6.762338145    6.864802912    2.232520885
    2.238731219    6.751556180    6.853901107    2.230551498
    2.245909850    6.740781724    6.843006541    2.228582457
    2.253088481    6.730014924    6.832119364    2.226613790
    2.260267112    6.719255924    6.821239722    2.224645524
    2.267445743    6.708504867    6.810367762    2.222677685
    2.274624374    6.697761896    6.799503629    2.220710301
    2.281803005    6.687027151    6.788647465    2.218743396
    2.288981636    6.676300772    6.777799413    2.216776998
    2.296160267    6.665582895    6.766959612    2.214811132
    2.303338898    6.654873657    6.756128203    2.212845824
    2.310517529    6.644173194    6.745305322    2.210881100
    2.317696160    6.633481637    6.734491106    2.208916984
    2.324874791    6.622799121    6.723685690    2.206953503
    2.332053422    6.612125775    6.712889207    2.204990681
    2.339232053    6.601461729    6.702101790    2.203028542
    2.346410684    6.590807110    6.691323569    2.201067112
    2.353589316    6.580162047    6.680554673    2.199106415
    2.360767947    6.569526663    6.669795231    2.197146474
    2.367946578    6.558901082    6.659045370    2.195187315
    2.375125209    6.548285429    6.648305215    2.193228961
    2.382303840    6.537679823    6.637574889    2.191271436
    2.389482471    6.527084384    6.626854517    2.189314763
    2.396661102    6.516499233    6.616144218    2.187358965
    2.403839733    6.505924485    6.605444114    2.185404066
    2.411018364    6.495360257    6.594754323    2.183450088
    2.418196995    6.484806664    6.584074963    2.181497055
    2.425375626    6.474263818    6.573406150    2.179544988
    2.432554257    6.463731834    6.562747999    2.177593911
    2.439732888    6.453210820    6.552100623    2.175643846
    2.446911519    6.442700888    6.541464136    2.173694814
    2.454090150    6.432202145    6.530838648    2.171746838
    2.461268781    6.421714698    6.520224269    2.169799938
    2.468447412    6.411238654    6.509621108    2.167854138
    2.475626043    6.400774118    6.499029273    2.165909457
    2.482804674    6.390321192    6.488448868    2.163965917
    2.489983306    6.379879978    6.477880000    2.162023540
    2.497161937    6.369450579    6.467322773    2.160082345
    2.504340568    6.359033093    6.456777288    2.158142354
    2.511519199    6.348627619    6.446243647    2.156203588
    2.518697830    6.338234255    6.435721950    2.154266065
    2.525876461    6.327853097    6.425212296    2.152329807
    2.533055092    6.317484240    6.414714783    2.150394833
    2.540233723    6.307127777    6.404229507    2.148461163
