# energy grid [eV]     epsr_x  epsr_y  epsr_z
#
    0.200000000   14.815814279    4.262645973   15.444251276
    0.207178631   14.819145796    4.263129551   15.447543733
    0.214357262   14.822596651    4.263630347   15.450953957
    0.221535893   14.826167038    4.264148378   15.454482123
    0.228714524   14.829857160    4.264683661   15.458128411
    0.235893155   14.833667228    4.265236215   15.461893011
    0.243071786   14.837597457    4.265806059   15.465776116
    0.250250417   14.841648073    4.266393214   15.469777927
    0.257429048   14.845819305    4.266997699   15.473898650
    0.264607679   14.850111393    4.267619535   15.478138498
    0.271786311   14.854524582    4.268258745   15.482497691
    0.278964942   14.859059123    4.268915350   15.486976454
    0.286143573   14.863715278    4.269589374   15.491575020
    0.293322204   14.868493313    4.270280839   15.496293627
    0.300500835   14.873393503    4.270989770   15.501132520
    0.307679466   14.878416130    4.271716193   15.506091952
    0.314858097   14.883561483    4.272460131   15.511172181
    0.322036728   14.888829859    4.273221612   15.516373471
    0.329215359   14.894221562    4.274000662   15.521696094
    0.336393990   14.899736905    4.274797308   15.527140329
    0.343572621   14.905376207    4.275611578   15.532706460
    0.350751252   14.911139795    4.276443501   15.538394779
    0.357929883   14.917028005    4.277293106   15.544205584
    0.365108514   14.923041179    4.278160424   15.550139181
    0.372287145   14.929179668    4.279045484   15.556195883
    0.379465776   14.935443830    4.279948318   15.562376008
    0.386644407   14.941834033    4.280868957   15.568679882
    0.393823038   14.948350651    4.281807435   15.575107839
    0.401001669   14.954994066    4.282763785   15.581660219
    0.408180301   14.961764669    4.283738040   15.588337370
    0.415358932   14.968662860    4.284730235   15.595139645
    0.422537563   14.975689046    4.285740405   15.602067407
    0.429716194   14.982843642    4.286768586   15.609121024
    0.436894825   14.990127073    4.287814815   15.616300873
    0.444073456   14.997539771    4.288879129   15.623607338
    0.451252087   15.005082178    4.289961566   15.631040810
    0.458430718   15.012754743    4.291062165   15.638601687
    0.465609349   15.020557925    4.292180965   15.646290376
    0.472787980   15.028492192    4.293318006   15.654107290
    0.479966611   15.036558019    4.294473329   15.662052851
    0.487145242   15.044755891    4.295646976   15.670127488
    0.494323873   15.053086304    4.296838988   15.678331638
    0.501502504   15.061549760    4.298049409   15.686665745
    0.508681135   15.070146772    4.299278282   15.695130264
    0.515859766   15.078877861    4.300525651   15.703725653
    0.523038397   15.087743560    4.301791563   15.712452383
    0.530217028   15.096744409    4.303076062   15.721310929
    0.537395659   15.105880958    4.304379195   15.730301777
    0.544574290   15.115153767    4.305701010   15.739425421
    0.551752922   15.124563407    4.307041554   15.748682362
    0.558931553   15.134110456    4.308400877   15.758073110
    0.566110184   15.143795505    4.309779028   15.767598184
    0.573288815   15.153619154    4.311176058   15.777258111
    0.580467446   15.163582011    4.312592017   15.787053427
    0.587646077   15.173684699    4.314026958   15.796984676
    0.594824708   15.183927846    4.315480933   15.807052412
    0.602003339   15.194312096    4.316953996   15.817257197
    0.609181970   15.204838099    4.318446202   15.827599603
    0.616360601   15.215506518    4.319957604   15.838080209
    0.623539232   15.226318027    4.321488260   15.848699606
    0.630717863   15.237273310    4.323038225   15.859458392
    0.637896494   15.248373064    4.324607558   15.870357175
    0.645075125   15.259617995    4.326196317   15.881396573
    0.652253756   15.271008822    4.327804560   15.892577213
    0.659432387   15.282546274    4.329432349   15.903899732
    0.666611018   15.294231094    4.331079744   15.915364776
    0.673789649   15.306064035    4.332746806   15.926973002
    0.680968280   15.318045863    4.334433598   15.938725076
    0.688146912   15.330177355    4.336140184   15.950621674
    0.695325543   15.342459301    4.337866627   15.962663484
    0.702504174   15.354892503    4.339612994   15.974851201
    0.709682805   15.367477776    4.341379350   15.987185534
    0.716861436   15.380215949    4.343165762   15.999667199
    0.724040067   15.393107861    4.344972299   16.012296926
    0.731218698   15.406154367    4.346799028   16.025075453
    0.738397329   15.419356333    4.348646019   16.038003531
    0.745575960   15.432714639    4.350513343   16.051081920
    0.752754591   15.446230179    4.352401073   16.064311393
    0.759933222   15.459903862    4.354309279   16.077692732
    0.767111853   15.473736609    4.356238035   16.091226733
    0.774290484   15.487729355    4.358187417   16.104914202
    0.781469115   15.501883050    4.360157499   16.118755957
    0.788647746   15.516198661    4.362148357   16.132752827
    0.795826377   15.530677165    4.364160069   16.146905654
    0.803005008   15.545319558    4.366192713   16.161215292
    0.810183639   15.560126848    4.368246368   16.175682606
    0.817362270   15.575100062    4.370321116   16.190308476
    0.824540902   15.590240239    4.372417036   16.205093791
    0.831719533   15.605548435    4.374534211   16.220039455
    0.838898164   15.621025724    4.376672725   16.235146385
    0.846076795   15.636673194    4.378832662   16.250415510
    0.853255426   15.652491950    4.381014107   16.265847773
    0.860434057   15.668483113    4.383217148   16.281444128
    0.867612688   15.684647824    4.385441871   16.297205546
    0.874791319   15.700987238    4.387688366   16.313133010
    0.881969950   15.717502529    4.389956721   16.329227516
    0.889148581   15.734194888    4.392247029   16.345490076
    0.896327212   15.751065526    4.394559380   16.361921714
    0.903505843   15.768115670    4.396893869   16.378523469
    0.910684474   15.785346566    4.399250589   16.395296398
    0.917863105   15.802759481    4.401629636   16.412241567
    0.925041736   15.820355698    4.404031106   16.429360061
    0.932220367   15.838136522    4.406455098   16.446652979
    0.939398998   15.856103278    4.408901710   16.464121436
    0.946577629   15.874257308    4.411371042   16.481766561
    0.953756260   15.892599978    4.413863195   16.499589502
    0.960934891   15.911132673    4.416378274   16.517591419
    0.968113523   15.929856800    4.418916380   16.535773491
    0.975292154   15.948773786    4.421477619   16.554136914
    0.982470785   15.967885081    4.424062098   16.572682898
    0.989649416   15.987192158    4.426669925   16.591412671
    0.996828047   16.006696511    4.429301207   16.610327481
    1.004006678   16.026399657    4.431956056   16.629428589
    1.011185309   16.046303138    4.434634582   16.648717277
    1.018363940   16.066408518    4.437336900   16.668194844
    1.025542571   16.086717386    4.440063122   16.687862607
    1.032721202   16.107231357    4.442813365   16.707721901
    1.039899833   16.127952068    4.445587746   16.727774081
    1.047078464   16.148881182    4.448386383   16.748020521
    1.054257095   16.170020381    4.451209395   16.768462611
    1.061435726   16.191371345    4.454056905   16.789101766
    1.068614357   16.212935738    4.456929033   16.809939415
    1.075792988   16.234715355    4.459825906   16.830977010
    1.082971619   16.256712191    4.462747648   16.852216030
    1.090150250   16.278928069    4.465694386   16.873657968
    1.097328881   16.301364769    4.468666250   16.895304337
    1.104507513   16.324024143    4.471663368   16.917156672
    1.111686144   16.346908099    4.474685873   16.939216534
    1.118864775   16.370018577    4.477733899   16.961485500
    1.126043406   16.393357553    4.480807579   16.983965176
    1.133222037   16.416927032    4.483907050   17.006657186
    1.140400668   16.440729053    4.487032450   17.029563179
    1.147579299   16.464765684    4.490183920   17.052684827
    1.154757930   16.489039030    4.493361600   17.076023828
    1.161936561   16.513551227    4.496565633   17.099581903
    1.169115192   16.538304446    4.499796164   17.123360795
    1.176293823   16.563300895    4.503053339   17.147362277
    1.183472454   16.588542814    4.506337307   17.171588145
    1.190651085   16.614032483    4.509648218   17.196040220
    1.197829716   16.639772217    4.512986223   17.220720351
    1.205008347   16.665764371    4.516351476   17.245630414
    1.212186978   16.692011337    4.519744132   17.270772311
    1.219365609   16.718515546    4.523164349   17.296147972
    1.226544240   16.745279471    4.526612285   17.321759356
    1.233722871   16.772305626    4.530088102   17.347608450
    1.240901503   16.799596565    4.533591963   17.373697271
    1.248080134   16.827154886    4.537124032   17.400027864
    1.255258765   16.854983231    4.540684477   17.426602306
    1.262437396   16.883084287    4.544273466   17.453422703
    1.269616027   16.911460784    4.547891170   17.480491193
    1.276794658   16.940115502    4.551537762   17.507809945
    1.283973289   16.969051264    4.555213418   17.535381163
    1.291151920   16.998270946    4.558918314   17.563207081
    1.298330551   17.027777469    4.562652630   17.591289966
    1.305509182   17.057573809    4.566416548   17.619632122
    1.312687813   17.087662990    4.570210250   17.648235885
    1.319866444   17.118048090    4.574033923   17.677103626
    1.327045075   17.148732241    4.577887755   17.706237750
    1.334223706   17.179718629    4.581771937   17.735640693
    1.341402337   17.211010496    4.585686661   17.765314938
    1.348580968   17.242611145    4.589632123   17.795263027
    1.355759599   17.274523935    4.593608519   17.825487518
    1.362938230   17.306752284    4.597616051   17.855991001
    1.370116861   17.339299673    4.601654920   17.886776110
    1.377295492   17.372169646    4.605725332   17.917845521
    1.384474124   17.405365809    4.609827493   17.949201954
    1.391652755   17.438891837    4.613961615   17.980848172
    1.398831386   17.472751469    4.618127908   18.012786979
    1.406010017   17.506948516    4.622326589   18.045021223
    1.413188648   17.541486857    4.626557876   18.077553800
    1.420367279   17.576370443    4.630821988   18.110387647
    1.427545910   17.611603302    4.635119151   18.143525751
    1.434724541   17.647189533    4.639449588   18.176971144
    1.441903172   17.683133317    4.643813531   18.210726908
    1.449081803   17.719438909    4.648211210   18.244796173
    1.456260434   17.756110651    4.652642860   18.279182121
    1.463439065   17.793152963    4.657108719   18.313887982
    1.470617696   17.830570354    4.661609029   18.348917040
    1.477796327   17.868367419    4.666144031   18.384272631
    1.484974958   17.906548840    4.670713975   18.419958133
    1.492153589   17.945119395    4.675319108   18.455976968
    1.499332220   17.984083953    4.679959685   18.492332659
    1.506510851   18.023447484    4.684635963   18.529028822
    1.513689482   18.063215052    4.689348201   18.566069070
    1.520868114   18.103391825    4.694096662   18.603457060
    1.528046745   18.143983074    4.698881614   18.641196528
    1.535225376   18.184994178    4.703703324   18.679291274
    1.542404007   18.226430625    4.708562069   18.717745167
    1.549582638   18.268298016    4.713458123   18.756562140
    1.556761269   18.310602069    4.718391768   18.795746192
    1.563939900   18.353348620    4.723363289   18.835301390
    1.571118531   18.396543625    4.728372973   18.875231873
    1.578297162   18.440193169    4.733421113   18.915541847
    1.585475793   18.484303464    4.738508003   18.956235592
    1.592654424   18.528880855    4.743633944   18.997317464
    1.599833055   18.573931823    4.748799239   19.038791893
    1.607011686   18.619462989    4.754004196   19.080663385
    1.614190317   18.665481119    4.759249127   19.122936527
    1.621368948   18.711993124    4.764534348   19.165615986
    1.628547579   18.759006073    4.769860178   19.208706513
    1.635726210   18.806527187    4.775226944   19.252212940
    1.642904841   18.854563851    4.780634973   19.296140189
    1.650083472   18.903123615    4.786084598   19.340493269
    1.657262104   18.952214201    4.791576159   19.385277279
    1.664440735   19.001843508    4.797109998   19.430497410
    1.671619366   19.052019615    4.802686461   19.476158948
    1.678797997   19.102750789    4.808305902   19.522267277
    1.685976628   19.154045491    4.813968677   19.568827878
    1.693155259   19.205912380    4.819675148   19.615846334
    1.700333890   19.258360321    4.825425683   19.663328333
    1.707512521   19.311398390    4.831220652   19.711279667
    1.714691152   19.365035882    4.837060435   19.759706238
    1.721869783   19.419282317    4.842945413   19.808614059
    1.729048414   19.474147448    4.848875975   19.858009257
    1.736227045   19.529641268    4.854852515   19.907898077
    1.743405676   19.585774008    4.860875431   19.958286882
    1.750584307   19.642556136    4.866945129   20.009182156
    1.757762938   19.699998350    4.873062020   20.060590509
    1.764941569   19.758111728    4.879226520   20.112518683
    1.772120200   19.816907743    4.885439053   20.164973558
    1.779298831   19.876397988    4.891700047   20.217962140
    1.786477462   19.936594315    4.898009937   20.271491574
    1.793656093   19.997508908    4.904369166   20.325569148
    1.800834725   20.059154258    4.910778182   20.380202298
    1.808013356   20.121543256    4.917237439   20.435398608
    1.815191987   20.184689292    4.923747399   20.491165818
    1.822370618   20.248605977    4.930308530   20.547511825
    1.829549249   20.313307224    4.936921309   20.604444687
    1.836727880   20.378807369    4.943586218   20.661972628
    1.843906511   20.445121166    4.950303748   20.720104045
    1.851085142   20.512263793    4.957074394   20.778847508
    1.858263773   20.580250864    4.963898664   20.838211768
    1.865442404   20.649098437    4.970777070   20.898205761
    1.872621035   20.718823036    4.977710132   20.958838614
    1.879799666   20.789441671    4.984698379   21.020119647
    1.886978297   20.860971873    4.991742350   21.082058384
    1.894156928   20.933431696    4.998842590   21.144664553
    1.901335559   21.006839722    5.005999652   21.207948095
    1.908514190   21.081215102    5.013214099   21.271919169
    1.915692821   21.156577579    5.020486503   21.336588152
    1.922871452   21.232947507    5.027817441   21.401965650
    1.930050083   21.310345899    5.035207505   21.468062524
    1.937228715   21.388794450    5.042657304   21.534889900
    1.944407346   21.468315530    5.050167446   21.602459124
    1.951585977   21.548932231    5.057738548   21.670781795
    1.958764608   21.630668412    5.065371238   21.739869784
    1.965943239   21.713548723    5.073066152   21.809735224
    1.973121870   21.797598641    5.080823929   21.880390505
    1.980300501   21.882844507    5.088645232   21.951848365
    1.987479132   21.969313559    5.096530756   22.024121947
    1.994657763   22.057033997    5.104481186   22.097224599
    2.001836394   22.146035093    5.112497221   22.171169950
    2.009015025   22.236347105    5.120579566   22.245971980
    2.016193656   22.328001322    5.128728936   22.321645016
    2.023372287   22.421030170    5.136946058   22.398203742
    2.030550918   22.515467204    5.145231666   22.475663194
    2.037729549   22.611347170    5.153586495   22.554038753
    2.044908180   22.708706457    5.162011311   22.633346200
    2.052086811   22.807583103    5.170506957   22.713601878
    2.059265442   22.908016208    5.179074257   22.794822485
    2.066444073   23.010046253    5.187713996   22.877024997
    2.073622705   23.113715479    5.196426990   22.960226885
    2.080801336   23.219067827    5.205214078   23.044446182
    2.087979967   23.326149032    5.214076118   23.129701335
    2.095158598   23.435006748    5.223013982   23.216011246
    2.102337229   23.545690637    5.232028561   23.303395343
    2.109515860   23.658252482    5.241120761   23.391873591
    2.116694491   23.772746316    5.250291506   23.481466508
    2.123873122   23.889228547    5.259541741   23.572195175
    2.131051753   24.007758076    5.268872423   23.664081263
    2.138230384   24.128396462    5.278284530   23.757147044
    2.145409015   24.251208080    5.287779057   23.851415418
    2.152587646   24.376260277    5.297357016   23.946909909
    2.159766277   24.503623573    5.307019431   24.043654698
    2.166944908   24.633371991    5.316767339   24.141674755
    2.174123539   24.765583172    5.326601801   24.240995825
    2.181302170   24.900338483    5.336523979   24.341644460
    2.188480801   25.037723376    5.346535038   24.443647956
    2.195659432   25.177827685    5.356636090   24.547034297
    2.202838063   25.320745914    5.366828277   24.651832344
    2.210016694   25.466577542    5.377112763   24.758071831
    2.217195326   25.615427362    5.387490699   24.865783381
    2.224373957   25.767405963    5.397963226   24.974998730
    2.231552588   25.922630140    5.408531556   25.085750732
    2.238731219   26.081223393    5.419197279   25.198073387
    2.245909850   26.243316232    5.429961797   25.312001613
    2.253088481   26.409046645    5.440826129   25.427571188
    2.260267112   26.578560991    5.451791739   25.544819357
    2.267445743   26.752014630    5.462860385   25.663784787
    2.274624374   26.929572472    5.474033406   25.784507198
    2.281803005   27.111409856    5.485312132   25.907027617
    2.288981636   27.297713452    5.496698021   26.031388522
    2.296160267   27.488682228    5.508192600   26.157634104
    2.303338898   27.684528559    5.519797445   26.285810191
    2.310517529   27.885479389    5.531514166   26.415964095
    2.317696160   28.091777511    5.543344411   26.548144814
    2.324874791   28.303683083    5.555289860   26.682403142
    2.332053422   28.521475291    5.567352235   26.818791819
    2.339232053   28.745454195    5.579533306   26.957365623
    2.346410684   28.975942784    5.591834881   27.098181423
    2.353589316   29.213289293    5.604258808   27.241298287
    2.360767947   29.457869817    5.616806983   27.386777612
    2.367946578   29.710091271    5.629481346   27.534683250
    2.375125209   29.970394719    5.642283889   27.685081649
    2.382303840   30.239259185    5.655216657   27.838042028
    2.389482471   30.517205933    5.668281743   27.993636475
    2.396661102   30.804803354    5.681481273   28.151940075
    2.403839733   31.102672531    5.694817355   28.313031043
    2.411018364   31.411493548    5.708291990   28.476990745
    2.418196995   31.732013299    5.721907358   28.643904242
    2.425375626   32.065055152    5.735666462   28.813861737
    2.432554257   32.411527350    5.749572105   28.986957207
    2.439732888   32.772433987    5.763626520   29.163287814
    2.446911519   33.148890163    5.777832093   29.342955365
    2.454090150   33.542137736    5.792191399   29.526066542
    2.461268781   33.953563375    5.806707158   29.712734021
    2.468447412   34.384721267    5.821382192   29.903076586
    2.475626043   34.837360015    5.836219397   30.097218234
    2.482804674   35.313453994    5.851221739   30.295289046
    2.489983306   35.815241708    5.866392282   30.497426539
    2.497161937   36.345272081    5.881734211   30.703776010
    2.504340568   36.906460101    5.897250749   30.914489943
    2.511519199   37.502156285    5.912945218   31.129729524
    2.518697830   38.136232050    5.928821056   31.349665792
    2.525876461   38.813184882    5.944881813   31.574479754
    2.533055092   39.538270667    5.961131154   31.804363205
    2.540233723   40.317670976    5.977572852   32.039519876
