# energy grid [eV]     ieps_x  ieps_y  ieps_z
#
    0.200000000    9.346255654    2.049415225    9.927289129
    0.207178631    9.344206644    2.049225829    9.925241285
    0.214357262    9.342086535    2.049029830    9.923122272
    0.221535893    9.339895446    2.048827235    9.920932196
    0.228714524    9.337633498    2.048618055    9.918671168
    0.235893155    9.335300818    2.048402295    9.916339302
    0.243071786    9.332897536    2.048179966    9.913936715
    0.250250417    9.330423785    2.047951076    9.911463528
    0.257429048    9.327879702    2.047715633    9.908919866
    0.264607679    9.325265430    2.047473648    9.906305857
    0.271786311    9.322581112    2.047225130    9.903621631
    0.278964942    9.319826898    2.046970088    9.900867323
    0.286143573    9.317002939    2.046708533    9.898043071
    0.293322204    9.314109392    2.046440476    9.895149017
    0.300500835    9.311146416    2.046165926    9.892185305
    0.307679466    9.308114175    2.045884894    9.889152083
    0.314858097    9.305012836    2.045597392    9.886049503
    0.322036728    9.301842568    2.045303431    9.882877718
    0.329215359    9.298603545    2.045003023    9.879636887
    0.336393990    9.295295946    2.044696179    9.876327170
    0.343572621    9.291919951    2.044382911    9.872948732
    0.350751252    9.288475744    2.044063231    9.869501741
    0.357929883    9.284963513    2.043737153    9.865986366
    0.365108514    9.281383450    2.043404689    9.862402783
    0.372287145    9.277735749    2.043065851    9.858751166
    0.379465776    9.274020608    2.042720654    9.855031697
    0.386644407    9.270238228    2.042369110    9.851244559
    0.393823038    9.266388814    2.042011233    9.847389938
    0.401001669    9.262472574    2.041647037    9.843468022
    0.408180301    9.258489718    2.041276537    9.839479005
    0.415358932    9.254440462    2.040899746    9.835423081
    0.422537563    9.250325022    2.040516680    9.831300448
    0.429716194    9.246143619    2.040127352    9.827111307
    0.436894825    9.241896477    2.039731779    9.822855864
    0.444073456    9.237583823    2.039329975    9.818534323
    0.451252087    9.233205887    2.038921956    9.814146896
    0.458430718    9.228762901    2.038507738    9.809693794
    0.465609349    9.224255101    2.038087336    9.805175234
    0.472787980    9.219682726    2.037660767    9.800591433
    0.479966611    9.215046018    2.037228047    9.795942612
    0.487145242    9.210345222    2.036789192    9.791228995
    0.494323873    9.205580585    2.036344220    9.786450808
    0.501502504    9.200752356    2.035893147    9.781608281
    0.508681135    9.195860791    2.035435991    9.776701645
    0.515859766    9.190906143    2.034972769    9.771731134
    0.523038397    9.185888672    2.034503498    9.766696986
    0.530217028    9.180808639    2.034028197    9.761599439
    0.537395659    9.175666308    2.033546883    9.756438736
    0.544574290    9.170461945    2.033059574    9.751215122
    0.551752922    9.165195819    2.032566290    9.745928843
    0.558931553    9.159868203    2.032067048    9.740580149
    0.566110184    9.154479369    2.031561868    9.735169292
    0.573288815    9.149029595    2.031050768    9.729696525
    0.580467446    9.143519160    2.030533767    9.724162107
    0.587646077    9.137948345    2.030010885    9.718566294
    0.594824708    9.132317434    2.029482142    9.712909350
    0.602003339    9.126626712    2.028947557    9.707191537
    0.609181970    9.120876469    2.028407150    9.701413122
    0.616360601    9.115066995    2.027860941    9.695574371
    0.623539232    9.109198582    2.027308951    9.689675556
    0.630717863    9.103271526    2.026751199    9.683716948
    0.637896494    9.097286124    2.026187707    9.677698822
    0.645075125    9.091242675    2.025618496    9.671621455
    0.652253756    9.085141481    2.025043585    9.665485124
    0.659432387    9.078982844    2.024462997    9.659290112
    0.666611018    9.072767070    2.023876753    9.653036699
    0.673789649    9.066494466    2.023284874    9.646725171
    0.680968280    9.060165342    2.022687382    9.640355814
    0.688146912    9.053780008    2.022084298    9.633928917
    0.695325543    9.047338777    2.021475645    9.627444769
    0.702504174    9.040841964    2.020861445    9.620903663
    0.709682805    9.034289886    2.020241719    9.614305893
    0.716861436    9.027682860    2.019616491    9.607651754
    0.724040067    9.021021207    2.018985783    9.600941543
    0.731218698    9.014305247    2.018349618    9.594175559
    0.738397329    9.007535305    2.017708018    9.587354104
    0.745575960    9.000711703    2.017061007    9.580477480
    0.752754591    8.993834770    2.016408607    9.573545989
    0.759933222    8.986904832    2.015750842    9.566559939
    0.767111853    8.979922219    2.015087736    9.559519636
    0.774290484    8.972887261    2.014419312    9.552425389
    0.781469115    8.965800289    2.013745594    9.545277507
    0.788647746    8.958661638    2.013066605    9.538076303
    0.795826377    8.951471642    2.012382369    9.530822089
    0.803005008    8.944230637    2.011692911    9.523515179
    0.810183639    8.936938960    2.010998256    9.516155889
    0.817362270    8.929596948    2.010298426    9.508744536
    0.824540902    8.922204942    2.009593447    9.501281439
    0.831719533    8.914763282    2.008883343    9.493766916
    0.838898164    8.907272310    2.008168140    9.486201289
    0.846076795    8.899732368    2.007447861    9.478584879
    0.853255426    8.892143801    2.006722532    9.470918010
    0.860434057    8.884506952    2.005992177    9.463201005
    0.867612688    8.876822167    2.005256823    9.455434190
    0.874791319    8.869089793    2.004516494    9.447617891
    0.881969950    8.861310177    2.003771216    9.439752435
    0.889148581    8.853483667    2.003021014    9.431838152
    0.896327212    8.845610613    2.002265913    9.423875369
    0.903505843    8.837691364    2.001505940    9.415864418
    0.910684474    8.829726270    2.000741121    9.407805630
    0.917863105    8.821715683    1.999971480    9.399699336
    0.925041736    8.813659954    1.999197044    9.391545869
    0.932220367    8.805559435    1.998417840    9.383345564
    0.939398998    8.797414481    1.997633893    9.375098754
    0.946577629    8.789225444    1.996845229    9.366805775
    0.953756260    8.780992678    1.996051875    9.358466962
    0.960934891    8.772716538    1.995253858    9.350082653
    0.968113523    8.764397378    1.994451203    9.341653184
    0.975292154    8.756035555    1.993643938    9.333178893
    0.982470785    8.747631424    1.992832089    9.324660119
    0.989649416    8.739185340    1.992015682    9.316097200
    0.996828047    8.730697661    1.991194745    9.307490477
    1.004006678    8.722168743    1.990369304    9.298840290
    1.011185309    8.713598943    1.989539387    9.290146978
    1.018363940    8.704988617    1.988705020    9.281410883
    1.025542571    8.696338124    1.987866230    9.272632346
    1.032721202    8.687647821    1.987023045    9.263811709
    1.039899833    8.678918066    1.986175492    9.254949314
    1.047078464    8.670149215    1.985323598    9.246045503
    1.054257095    8.661341627    1.984467390    9.237100620
    1.061435726    8.652495659    1.983606895    9.228115007
    1.068614357    8.643611670    1.982742142    9.219089008
    1.075792988    8.634690017    1.981873157    9.210022966
    1.082971619    8.625731057    1.980999969    9.200917224
    1.090150250    8.616735148    1.980122604    9.191772127
    1.097328881    8.607702647    1.979241090    9.182588018
    1.104507513    8.598633912    1.978355456    9.173365242
    1.111686144    8.589529300    1.977465727    9.164104142
    1.118864775    8.580389168    1.976571934    9.154805063
    1.126043406    8.571213872    1.975674102    9.145468349
    1.133222037    8.562003768    1.974772260    9.136094345
    1.140400668    8.552759213    1.973866436    9.126683393
    1.147579299    8.543480562    1.972956658    9.117235839
    1.154757930    8.534168171    1.972042953    9.107752026
    1.161936561    8.524822394    1.971125350    9.098232299
    1.169115192    8.515443587    1.970203876    9.088677001
    1.176293823    8.506032103    1.969278559    9.079086476
    1.183472454    8.496588296    1.968349428    9.069461066
    1.190651085    8.487112519    1.967416511    9.059801117
    1.197829716    8.477605126    1.966479835    9.050106969
    1.205008347    8.468066467    1.965539428    9.040378967
    1.212186978    8.458496896    1.964595319    9.030617452
    1.219365609    8.448896762    1.963647536    9.020822767
    1.226544240    8.439266416    1.962696107    9.010995254
    1.233722871    8.429606209    1.961741060    9.001135253
    1.240901503    8.419916489    1.960782422    8.991243106
    1.248080134    8.410197604    1.959820223    8.981319155
    1.255258765    8.400449903    1.958854490    8.971363738
    1.262437396    8.390673732    1.957885252    8.961377196
    1.269616027    8.380869438    1.956912536    8.951359868
    1.276794658    8.371037367    1.955936371    8.941312093
    1.283973289    8.361177862    1.954956785    8.931234210
    1.291151920    8.351291269    1.953973806    8.921126555
    1.298330551    8.341377930    1.952987462    8.910989467
    1.305509182    8.331438187    1.951997781    8.900823283
    1.312687813    8.321472382    1.951004791    8.890628337
    1.319866444    8.311480855    1.950008521    8.880404966
    1.327045075    8.301463946    1.949008998    8.870153505
    1.334223706    8.291421994    1.948006251    8.859874287
    1.341402337    8.281355336    1.947000308    8.849567646
    1.348580968    8.271264309    1.945991196    8.839233916
    1.355759599    8.261149249    1.944978944    8.828873427
    1.362938230    8.251010490    1.943963579    8.818486512
    1.370116861    8.240848367    1.942945131    8.808073501
    1.377295492    8.230663211    1.941923625    8.797634724
    1.384474124    8.220455355    1.940899092    8.787170510
    1.391652755    8.210225130    1.939871558    8.776681187
    1.398831386    8.199972864    1.938841051    8.766167082
    1.406010017    8.189698885    1.937807599    8.755628523
    1.413188648    8.179403523    1.936771231    8.745065834
    1.420367279    8.169087101    1.935731973    8.734479341
    1.427545910    8.158749946    1.934689854    8.723869368
    1.434724541    8.148392380    1.933644901    8.713236238
    1.441903172    8.138014728    1.932597142    8.702580272
    1.449081803    8.127617309    1.931546604    8.691901792
    1.456260434    8.117200444    1.930493316    8.681201118
    1.463439065    8.106764453    1.929437305    8.670478569
    1.470617696    8.096309653    1.928378597    8.659734464
    1.477796327    8.085836359    1.927317222    8.648969119
    1.484974958    8.075344889    1.926253206    8.638182852
    1.492153589    8.064835554    1.925186576    8.627375977
    1.499332220    8.054308669    1.924117361    8.616548807
    1.506510851    8.043764544    1.923045586    8.605701658
    1.513689482    8.033203489    1.921971280    8.594834839
    1.520868114    8.022625813    1.920894470    8.583948663
    1.528046745    8.012031823    1.919815183    8.573043439
    1.535225376    8.001421826    1.918733445    8.562119475
    1.542404007    7.990796125    1.917649285    8.551177080
    1.549582638    7.980155025    1.916562728    8.540216560
    1.556761269    7.969498826    1.915473803    8.529238219
    1.563939900    7.958827830    1.914382535    8.518242362
    1.571118531    7.948142335    1.913288952    8.507229293
    1.578297162    7.937442639    1.912193080    8.496199312
    1.585475793    7.926729039    1.911094946    8.485152720
    1.592654424    7.916001828    1.909994576    8.474089816
    1.599833055    7.905261301    1.908891998    8.463010900
    1.607011686    7.894507749    1.907787238    8.451916266
    1.614190317    7.883741463    1.906680321    8.440806212
    1.621368948    7.872962731    1.905571275    8.429681031
    1.628547579    7.862171842    1.904460126    8.418541017
    1.635726210    7.851369081    1.903346900    8.407386461
    1.642904841    7.840554733    1.902231624    8.396217655
    1.650083472    7.829729080    1.901114322    8.385034886
    1.657262104    7.818892405    1.899995022    8.373838443
    1.664440735    7.808044987    1.898873749    8.362628614
    1.671619366    7.797187105    1.897750529    8.351405682
    1.678797997    7.786319036    1.896625388    8.340169933
    1.685976628    7.775441056    1.895498352    8.328921648
    1.693155259    7.764553437    1.894369446    8.317661110
    1.700333890    7.753656454    1.893238696    8.306388597
    1.707512521    7.742750376    1.892106127    8.295104389
    1.714691152    7.731835473    1.890971765    8.283808764
    1.721869783    7.720912012    1.889835636    8.272501996
    1.729048414    7.709980261    1.888697763    8.261184361
    1.736227045    7.699040483    1.887558173    8.249856131
    1.743405676    7.688092941    1.886416891    8.238517578
    1.750584307    7.677137898    1.885273942    8.227168973
    1.757762938    7.666175613    1.884129350    8.215810584
    1.764941569    7.655206345    1.882983140    8.204442680
    1.772120200    7.644230350    1.881835338    8.193065525
    1.779298831    7.633247883    1.880685968    8.181679385
    1.786477462    7.622259199    1.879535054    8.170284524
    1.793656093    7.611264549    1.878382621    8.158881202
    1.800834725    7.600264183    1.877228693    8.147469680
    1.808013356    7.589258351    1.876073295    8.136050218
    1.815191987    7.578247300    1.874916451    8.124623072
    1.822370618    7.567231276    1.873758185    8.113188499
    1.829549249    7.556210522    1.872598521    8.101746754
    1.836727880    7.545185281    1.871437483    8.090298089
    1.843906511    7.534155794    1.870275095    8.078842756
    1.851085142    7.523122301    1.869111381    8.067381005
    1.858263773    7.512085039    1.867946364    8.055913086
    1.865442404    7.501044244    1.866780068    8.044439245
    1.872621035    7.490000150    1.865612516    8.032959729
    1.879799666    7.478952991    1.864443733    8.021474781
    1.886978297    7.467902998    1.863273740    8.009984644
    1.894156928    7.456850400    1.862102562    7.998489561
    1.901335559    7.445795426    1.860930222    7.986989770
    1.908514190    7.434738302    1.859756742    7.975485510
    1.915692821    7.423679253    1.858582145    7.963977018
    1.922871452    7.412618502    1.857406455    7.952464529
    1.930050083    7.401556271    1.856229693    7.940948278
    1.937228715    7.390492781    1.855051883    7.929428497
    1.944407346    7.379428248    1.853873048    7.917905416
    1.951585977    7.368362891    1.852693209    7.906379266
    1.958764608    7.357296925    1.851512388    7.894850274
    1.965943239    7.346230563    1.850330609    7.883318666
    1.973121870    7.335164017    1.849147893    7.871784668
    1.980300501    7.324097499    1.847964262    7.860248503
    1.987479132    7.313031216    1.846779739    7.848710393
    1.994657763    7.301965377    1.845594344    7.837170559
    2.001836394    7.290900187    1.844408100    7.825629219
    2.009015025    7.279835849    1.843221029    7.814086590
    2.016193656    7.268772568    1.842033151    7.802542890
    2.023372287    7.257710543    1.840844488    7.790998332
    2.030550918    7.246649975    1.839655062    7.779453129
    2.037729549    7.235591060    1.838464894    7.767907493
    2.044908180    7.224533996    1.837274005    7.756361634
    2.052086811    7.213478977    1.836082415    7.744815760
    2.059265442    7.202426197    1.834890146    7.733270078
    2.066444073    7.191375846    1.833697219    7.721724793
    2.073622705    7.180328115    1.832503653    7.710180111
    2.080801336    7.169283192    1.831309471    7.698636232
    2.087979967    7.158241265    1.830114691    7.687093359
    2.095158598    7.147202518    1.828919335    7.675551691
    2.102337229    7.136167136    1.827723423    7.664011425
    2.109515860    7.125135301    1.826526975    7.652472758
    2.116694491    7.114107193    1.825330011    7.640935886
    2.123873122    7.103082993    1.824132551    7.629401002
    2.131051753    7.092062877    1.822934615    7.617868298
    2.138230384    7.081047022    1.821736222    7.606337965
    2.145409015    7.070035602    1.820537392    7.594810191
    2.152587646    7.059028791    1.819338145    7.583285165
    2.159766277    7.048026760    1.818138500    7.571763073
    2.166944908    7.037029680    1.816938476    7.560244099
    2.174123539    7.026037719    1.815738092    7.548728428
    2.181302170    7.015051045    1.814537368    7.537216239
    2.188480801    7.004069822    1.813336323    7.525707715
    2.195659432    6.993094215    1.812134975    7.514203034
    2.202838063    6.982124387    1.810933343    7.502702373
    2.210016694    6.971160500    1.809731445    7.491205908
    2.217195326    6.960202712    1.808529301    7.479713815
    2.224373957    6.949251182    1.807326929    7.468226265
    2.231552588    6.938306067    1.806124347    7.456743431
    2.238731219    6.927367523    1.804921573    7.445265484
    2.245909850    6.916435702    1.803718626    7.433792591
    2.253088481    6.905510759    1.802515523    7.422324920
    2.260267112    6.894592843    1.801312282    7.410862638
    2.267445743    6.883682105    1.800108921    7.399405908
    2.274624374    6.872778692    1.798905458    7.387954894
    2.281803005    6.861882751    1.797701910    7.376509758
    2.288981636    6.850994428    1.796498294    7.365070660
    2.296160267    6.840113866    1.795294629    7.353637758
    2.303338898    6.829241209    1.794090931    7.342211211
    2.310517529    6.818376597    1.792887218    7.330791175
    2.317696160    6.807520170    1.791683506    7.319377803
    2.324874791    6.796672066    1.790479812    7.307971251
    2.332053422    6.785832422    1.789276154    7.296571669
    2.339232053    6.775001375    1.788072547    7.285179207
    2.346410684    6.764179057    1.786869009    7.273794017
    2.353589316    6.753365602    1.785665556    7.262416244
    2.360767947    6.742561142    1.784462204    7.251046036
    2.367946578    6.731765807    1.783258969    7.239683538
    2.375125209    6.720979725    1.782055869    7.228328894
    2.382303840    6.710203023    1.780852918    7.216982246
    2.389482471    6.699435829    1.779650133    7.205643734
    2.396661102    6.688678267    1.778447529    7.194313500
    2.403839733    6.677930460    1.777245123    7.182991681
    2.411018364    6.667192531    1.776042930    7.171678414
    2.418196995    6.656464600    1.774840965    7.160373836
    2.425375626    6.645746787    1.773639244    7.149078080
    2.432554257    6.635039211    1.772437782    7.137791280
    2.439732888    6.624341988    1.771236595    7.126513567
    2.446911519    6.613655234    1.770035697    7.115245073
    2.454090150    6.602979064    1.768835103    7.103985926
    2.461268781    6.592313590    1.767634829    7.092736255
    2.468447412    6.581658925    1.766434889    7.081496185
    2.475626043    6.571015180    1.765235298    7.070265843
    2.482804674    6.560382463    1.764036070    7.059045352
    2.489983306    6.549760883    1.762837220    7.047834836
    2.497161937    6.539150548    1.761638762    7.036634416
    2.504340568    6.528551562    1.760440711    7.025444213
    2.511519199    6.517964030    1.759243080    7.014264344
    2.518697830    6.507388056    1.758045884    7.003094929
    2.525876461    6.496823741    1.756849136    6.991936084
    2.533055092    6.486271187    1.755652851    6.980787925
    2.540233723    6.475730493    1.754457042    6.969650564
