# energy grid [eV]     epsr_x  epsr_y  epsr_z
#
    0.200000000   14.710072316   13.988755637   13.192246360
    0.207178631   14.713701819   13.992201384   13.195273763
    0.214357262   14.717461810   13.995771136   13.198409936
    0.221535893   14.721352555   13.999465158   13.201655092
    0.228714524   14.725374330   14.003283726   13.205009454
    0.235893155   14.729527420   14.007227126   13.208473252
    0.243071786   14.733812120   14.011295653   13.212046725
    0.250250417   14.738228737   14.015489616   13.215730120
    0.257429048   14.742777586   14.019809330   13.219523691
    0.264607679   14.747458993   14.024255123   13.223427703
    0.271786311   14.752273296   14.028827333   13.227442427
    0.278964942   14.757220843   14.033526310   13.231568144
    0.286143573   14.762301990   14.038352414   13.235805144
    0.293322204   14.767517108   14.043306016   13.240153725
    0.300500835   14.772866576   14.048387498   13.244614194
    0.307679466   14.778350786   14.053597255   13.249186869
    0.314858097   14.783970139   14.058935692   13.253872075
    0.322036728   14.789725050   14.064403227   13.258670147
    0.329215359   14.795615944   14.070000289   13.263581430
    0.336393990   14.801643258   14.075727320   13.268606278
    0.343572621   14.807807442   14.081584773   13.273745056
    0.350751252   14.814108956   14.087573116   13.278998137
    0.357929883   14.820548274   14.093692829   13.284365906
    0.365108514   14.827125882   14.099944403   13.289848759
    0.372287145   14.833842279   14.106328344   13.295447099
    0.379465776   14.840697976   14.112845172   13.301161343
    0.386644407   14.847693498   14.119495421   13.306991918
    0.393823038   14.854829383   14.126279638   13.312939262
    0.401001669   14.862106183   14.133198384   13.319003825
    0.408180301   14.869524463   14.140252237   13.325186068
    0.415358932   14.877084804   14.147441788   13.331486464
    0.422537563   14.884787799   14.154767644   13.337905497
    0.429716194   14.892634057   14.162230428   13.344443666
    0.436894825   14.900624203   14.169830779   13.351101481
    0.444073456   14.908758876   14.177569352   13.357879466
    0.451252087   14.917038730   14.185446821   13.364778156
    0.458430718   14.925464439   14.193463874   13.371798103
    0.465609349   14.934036688   14.201621220   13.378939871
    0.472787980   14.942756183   14.209919585   13.386204039
    0.479966611   14.951623645   14.218359713   13.393591200
    0.487145242   14.960639816   14.226942370   13.401101964
    0.494323873   14.969805451   14.235668339   13.408736957
    0.501502504   14.979121329   14.244538426   13.416496818
    0.508681135   14.988588246   14.253553457   13.424382206
    0.515859766   14.998207017   14.262714280   13.432393797
    0.523038397   15.007978478   14.272021765   13.440532282
    0.530217028   15.017903488   14.281476808   13.448798375
    0.537395659   15.027982925   14.291080326   13.457192805
    0.544574290   15.038217691   14.300833264   13.465716324
    0.551752922   15.048608712   14.310736591   13.474369702
    0.558931553   15.059156936   14.320791303   13.483153734
    0.566110184   15.069863337   14.330998426   13.492069232
    0.573288815   15.080728915   14.341359013   13.501117037
    0.580467446   15.091754697   14.351874150   13.510298011
    0.587646077   15.102941737   14.362544951   13.519613041
    0.594824708   15.114291120   14.373372567   13.529063042
    0.602003339   15.125803958   14.384358181   13.538648956
    0.609181970   15.137481398   14.395503013   13.548371754
    0.616360601   15.149324617   14.406808321   13.558232439
    0.623539232   15.161334830   14.418275402   13.568232042
    0.630717863   15.173513286   14.429905596   13.578371633
    0.637896494   15.185861271   14.441700286   13.588652315
    0.645075125   15.198380114   14.453660900   13.599075227
    0.652253756   15.211071183   14.465788918   13.609641552
    0.659432387   15.223935892   14.478085868   13.620352511
    0.666611018   15.236975701   14.490553335   13.631209374
    0.673789649   15.250192122   14.503192960   13.642213455
    0.680968280   15.263586715   14.516006446   13.653366121
    0.688146912   15.277161101   14.528995562   13.664668794
    0.695325543   15.290916957   14.542162145   13.676122952
    0.702504174   15.304856023   14.555508106   13.687730139
    0.709682805   15.318980111   14.569035437   13.699491963
    0.716861436   15.333291101   14.582746214   13.711410106
    0.724040067   15.347790953   14.596642604   13.723486328
    0.731218698   15.362481712   14.610726872   13.735722474
    0.738397329   15.377365512   14.625001389   13.748120482
    0.745575960   15.392444586   14.639468642   13.760682389
    0.752754591   15.407721273   14.654131240   13.773410342
    0.759933222   15.423198028   14.668991928   13.786306607
    0.767111853   15.438877434   14.684053599   13.799373584
    0.774290484   15.454762209   14.699319304   13.812613815
    0.781469115   15.470855225   14.714792273   13.826030005
    0.788647746   15.487159523   14.730475926   13.839625033
    0.795826377   15.503678326   14.746373899   13.853401978
    0.803005008   15.520415064   14.762490062   13.867364137
    0.810183639   15.537373395   14.778828548   13.881515057
    0.817362270   15.554557232   14.795393779   13.895858558
    0.824540902   15.571970776   14.812190504   13.910398775
    0.831719533   15.589618550   14.829223837   13.925140197
    0.838898164   15.607505441   14.846499304   13.940087718
    0.846076795   15.625636754   14.864022895   13.955246693
    0.853255426   15.644018268   14.881801130   13.970623006
    0.860434057   15.662656305   14.899841134   13.986223157
    0.867612688   15.681557819   14.918150724   14.002054355
    0.874791319   15.700730493   14.936738520   14.018124641
    0.881969950   15.720182861   14.955614068   14.034443034
    0.889148581   15.739924461   14.974788002   14.051019704
    0.896327212   15.759966014   14.994272228   14.067866196
    0.903505843   15.780319649   15.014080162   14.084995703
    0.910684474   15.800999192   15.034227016   14.102423402
    0.917863105   15.822020510   15.054730163   14.120166892
    0.925041736   15.843401967   15.075609589   14.138246745
    0.932220367   15.865164995   15.096888479   14.156687214
    0.939398998   15.887334839   15.118593959   14.175517159
    0.946577629   15.909941529   15.140758076   14.194771272
    0.953756260   15.933021165   15.163419074   14.214491698
    0.960934891   15.956617641   15.186623109   14.234730229
    0.968113523   15.980784977   15.210426552   14.255551303
    0.975292154   16.005590524   15.234899146   14.277036137
    0.982470785   16.031119395   15.260128363   14.299288515
    0.989649416   16.057480682   15.286225485   14.322442914
    0.996828047   16.084816134   15.313334083   14.346675938
    1.004006678   16.113312141   15.341641690   14.372222081
    1.011185309   16.143215348   15.371394968   14.399394049
    1.018363940   16.174849390   15.402915860   14.428603366
    1.025542571   16.208617925   15.436604140   14.460358106
    1.032721202   16.244930232   15.472863777   14.495139868
    1.039899833   16.283790525   15.511699203   14.532765099
    1.047078464   16.323035879   15.550986056   14.569685243
    1.054257095   16.352055572   15.580311157   14.589408339
    1.061435726   16.342376660   15.571743904   14.548176883
    1.068614357   16.292439803   15.523774949   14.443298031
    1.075792988   16.278044020   15.510900569   14.390677315
    1.082971619   16.307386233   15.541901503   14.407052820
    1.090150250   16.337486440   15.577419131   14.444845440
    1.097328881   16.327122179   15.583073817   14.480797458
    1.104507513   16.286982419   15.566775076   14.512073994
    1.111686144   16.286215984   15.582283058   14.546783939
    1.118864775   16.320638070   15.626910554   14.585085025
    1.126043406   16.364627889   15.681492809   14.624672574
    1.133222037   16.408991524   15.739358171   14.665033321
    1.140400668   16.451819995   15.798000088   14.705633152
    1.147579299   16.492463077   15.849351209   14.742386317
    1.154757930   16.528532130   15.862096937   14.758754527
    1.161936561   16.555526033   15.781180613   14.725601462
    1.169115192   16.579235741   15.668500969   14.675696349
    1.176293823   16.610924042   15.648431962   14.674882296
    1.183472454   16.647970468   15.689117720   14.706310485
    1.190651085   16.686472367   15.744568713   14.745656311
    1.197829716   16.725289444   15.800182834   14.785216025
    1.205008347   16.764327662   15.853251205   14.823589813
    1.212186978   16.803754097   15.903986326   14.860935903
    1.219365609   16.843795490   15.953140678   14.897714703
    1.226544240   16.884700597   16.001465638   14.934408608
    1.233722871   16.926743838   16.049625801   14.971482857
    1.240901503   16.970236689   16.098219671   15.009394636
    1.248080134   17.015525459   16.147820029   15.048570945
    1.255258765   17.062914921   16.199008711   15.089207297
    1.262437396   17.112281260   16.252375908   15.130341035
    1.269616027   17.161567447   16.308387849   15.166349497
    1.276794658   17.203600082   16.367053236   15.179592700
    1.283973289   17.234354194   16.428973708   15.159282466
    1.291151920   17.275775150   16.498061532   15.153848224
    1.298330551   17.337801167   16.576306721   15.184925034
    1.305509182   17.409458929   16.659977975   15.231205298
    1.312687813   17.473716695   16.730724752   15.279170522
    1.319866444   17.485401224   16.723475084   15.318449931
    1.327045075   17.385207738   16.550804289   15.338612133
    1.334223706   17.279825078   16.370431445   15.358694902
    1.341402337   17.290900594   16.363360068   15.400070167
    1.348580968   17.356381933   16.443932925   15.450310528
    1.355759599   17.399010685   16.514132194   15.487972377
    1.362938230   17.370136267   16.494463226   15.486394118
    1.370116861   17.334221902   16.412941068   15.466377667
    1.377295492   17.368116392   16.416079178   15.487746352
    1.384474124   17.443442072   16.494722350   15.543061471
    1.391652755   17.529405100   16.596112272   15.610194725
    1.398831386   17.615669870   16.700598907   15.679602710
    1.406010017   17.694102473   16.797374107   15.738970963
    1.413188648   17.740680798   16.857018766   15.749419237
    1.420367279   17.724821591   16.821741748   15.657856256
    1.427545910   17.707977703   16.721606609   15.551309032
    1.434724541   17.756643493   16.703714453   15.543795267
    1.441903172   17.842871843   16.777353530   15.596994229
    1.449081803   17.941911775   16.884036591   15.665531520
    1.456260434   18.045531468   16.997540680   15.735046824
    1.463439065   18.142892506   17.101518189   15.803173539
    1.470617696   18.192701339   17.150401503   15.870407860
    1.477796327   18.106714926   17.048795269   15.937546016
    1.484974958   17.940469437   16.856673871   16.006053736
    1.492153589   17.909771319   16.808653131   16.076636648
    1.499332220   17.981679824   16.879746634   16.140818133
    1.506510851   18.036188948   16.978979330   16.164853694
    1.513689482   17.979642188   17.068096936   16.093450972
    1.520868114   17.888457332   17.150483897   15.996905670
    1.528046745   17.904217043   17.237729417   15.996640885
    1.535225376   17.978980194   17.300129904   16.054090263
    1.542404007   18.049080383   17.284670784   16.119632163
    1.549582638   18.109332967   17.236185999   16.183776627
    1.556761269   18.182638016   17.263927454   16.254115472
    1.563939900   18.263598786   17.341268578   16.326475114
    1.571118531   18.341795845   17.414500809   16.388830384
    1.578297162   18.412722898   17.452541628   16.425378456
    1.585475793   18.482152393   17.479360957   16.441716850
    1.592654424   18.555820644   17.530247511   16.466099173
    1.599833055   18.631558430   17.605817852   16.522100774
    1.607011686   18.706272448   17.690718418   16.592542425
    1.614190317   18.773468493   17.770514414   16.642518973
    1.621368948   18.821104999   17.834334820   16.634971973
    1.628547579   18.856392220   17.895670689   16.614512675
    1.635726210   18.909010059   17.975148733   16.652968183
    1.642904841   18.981691743   18.067501080   16.729217077
    1.650083472   19.063034162   18.166918880   16.817138414
    1.657262104   19.148103227   18.272611783   16.908894735
    1.664440735   19.235306055   18.384128043   17.001998339
    1.671619366   19.320296048   18.494435206   17.088857033
    1.678797997   19.387369241   18.576028100   17.146031148
    1.685976628   19.412630878   18.581128356   17.152494939
    1.693155259   19.390188342   18.454744642   17.100443353
    1.700333890   19.340519229   18.219397457   16.998542068
    1.707512521   19.350619928   18.128102910   16.978682839
    1.714691152   19.422500856   18.199897479   17.049449465
    1.721869783   19.513859528   18.324772752   17.150087031
    1.729048414   19.607732317   18.457899057   17.256222051
    1.736227045   19.700643269   18.590065396   17.363250820
    1.743405676   19.792672190   18.721187498   17.471666621
    1.750584307   19.884334338   18.850464364   17.581575282
    1.757762938   19.974899908   18.965883614   17.686627816
    1.764941569   20.059841206   19.023244530   17.761229550
    1.772120200   20.134340683   18.978504626   17.774573524
    1.779298831   20.209515031   18.929568048   17.769415096
    1.786477462   20.296310575   18.966198545   17.811275798
    1.793656093   20.391286784   19.071192605   17.915085927
    1.800834725   20.479405654   19.187184540   18.034241975
    1.808013356   20.559722066   19.294552296   18.149304870
    1.815191987   20.657454631   19.424770166   18.287993817
    1.822370618   20.763840515   19.562358910   18.399686890
    1.829549249   20.831418537   19.629258759   18.302889212
    1.836727880   20.806138598   19.526945183   17.876241841
    1.843906511   20.731381468   19.314614936   17.546239247
    1.851085142   20.727853173   19.220810530   17.546793263
    1.858263773   20.820366834   19.307608488   17.703439144
    1.865442404   20.944762191   19.453168877   17.875422475
    1.872621035   21.048436762   19.552538840   17.957029969
    1.879799666   21.093064303   19.525856383   17.846010280
    1.886978297   21.127981219   19.469146216   17.701057797
    1.894156928   21.219044183   19.519563898   17.724016600
    1.901335559   21.346191043   19.642093537   17.845477355
    1.908514190   21.484891347   19.783720660   17.988487907
    1.915692821   21.625471731   19.923800794   18.128310794
    1.922871452   21.757420829   20.052195355   18.259726116
    1.930050083   21.850755553   20.149502788   18.378753176
    1.937228715   21.874387804   20.204363195   18.475151651
    1.944407346   21.881588757   20.265929765   18.547629924
    1.951585977   21.953211045   20.363908476   18.629890196
    1.958764608   22.085844624   20.482267841   18.733916865
    1.965943239   22.242149712   20.606018398   18.846705043
    1.973121870   22.407223795   20.730625708   18.962128581
    1.980300501   22.579064869   20.855786560   19.079572802
    1.987479132   22.758311640   20.982013387   19.200104396
    1.994657763   22.943148932   21.109229124   19.325178829
    2.001836394   23.133322729   21.237696762   19.456104632
    2.009015025   23.339841341   21.370420694   19.592454648
    2.016193656   23.536668288   21.502455767   19.723551679
    2.023372287   23.585707566   21.605163811   19.802638317
    2.030550918   23.222802163   21.622903564   19.729319052
    2.037729549   22.654706589   21.594163400   19.558131621
    2.044908180   22.497491826   21.650976153   19.535861853
    2.052086811   22.651892439   21.778570560   19.647349957
    2.059265442   22.885870872   21.922808176   19.798732177
    2.066444073   23.117031857   22.060547547   19.954669710
    2.073622705   23.341728828   22.199837631   20.112227570
    2.080801336   23.570260160   22.351960830   20.273897223
    2.087979967   23.792172018   22.510556175   20.431100198
    2.095158598   23.979670620   22.668306455   20.555885028
    2.102337229   24.104742627   22.828250435   20.609038532
    2.109515860   24.215480537   23.000272601   20.633403213
    2.116694491   24.384072866   23.179014307   20.726136261
    2.123873122   24.539086452   23.329338036   20.819302186
    2.131051753   24.559182779   23.378120230   20.801228873
    2.138230384   24.488258736   23.343680492   20.732355880
    2.145409015   24.486196427   23.391351436   20.731317623
    2.152587646   24.630803110   23.551954015   20.842539576
    2.159766277   24.857961619   23.744903860   21.017370717
    2.166944908   25.067545026   23.874686585   21.189252915
    2.174123539   25.220217741   23.920967171   21.337089144
    2.181302170   25.353938050   24.020363528   21.488236787
    2.188480801   25.467635937   24.180982418   21.614437998
    2.195659432   25.611393649   24.346201444   21.662813605
    2.202838063   25.796362102   24.518330318   21.710336002
    2.210016694   26.006191670   24.682629178   21.844699217
    2.217195326   26.246560897   24.810910519   22.016063971
    2.224373957   26.486359638   24.945027461   22.204643694
    2.231552588   26.637142600   25.070821426   22.404891443
    2.238731219   26.694719192   25.132319777   22.593572359
    2.245909850   26.798502933   25.218418081   22.754080783
    2.253088481   26.929393777   25.346797791   22.778030765
    2.260267112   27.045632122   25.501357680   22.604747822
    2.267445743   27.227258628   25.725421269   22.539996366
    2.274624374   27.479220239   26.011756950   22.674064310
    2.281803005   27.774517868   26.310573994   22.894827063
    2.288981636   28.064052057   26.553531444   23.113782948
    2.296160267   28.265072029   26.678702895   23.224763322
    2.303338898   28.387665412   26.749982389   23.236868515
    2.310517529   28.490496462   26.845257301   23.339758729
    2.317696160   28.634184255   27.024211366   23.553496366
    2.324874791   28.864011041   27.302200234   23.811187822
    2.332053422   29.033052851   27.581464615   24.060749115
    2.339232053   29.124951839   27.807149206   24.289051902
    2.346410684   29.342320357   28.014726302   24.507527750
    2.353589316   29.624020226   28.158899876   24.684500370
    2.360767947   29.824713174   28.249746382   24.840988123
    2.367946578   29.872704625   28.266423244   24.981088734
    2.375125209   30.023670871   28.403687126   25.168188396
    2.382303840   30.368628958   28.717323005   25.396166796
    2.389482471   30.756879965   29.088016073   25.475935506
    2.396661102   31.080836032   29.477588460   25.304328695
    2.403839733   31.361509186   29.882602171   25.218675018
    2.411018364   31.652387379   30.263732374   25.403874409
    2.418196995   31.899844687   30.533917842   25.658467177
    2.425375626   32.184374239   30.772777133   25.882212096
    2.432554257   32.603092003   31.125007243   26.136662458
    2.439732888   33.085286695   31.551334185   26.426819685
    2.446911519   33.555215974   31.955767161   26.730016885
    2.454090150   33.941941358   32.187578324   26.961255283
    2.461268781   34.328450397   32.388547522   27.184258245
    2.468447412   34.818542683   32.772608242   27.543185997
    2.475626043   35.366651267   33.266724983   27.949677057
    2.482804674   35.859325375   33.676476079   28.221985185
    2.489983306   36.222969759   33.943959240   28.345591247
    2.497161937   36.619466363   34.327949152   28.598819068
    2.504340568   37.116193678   34.736185462   28.903398766
    2.511519199   37.504580704   34.798596385   28.966747941
    2.518697830   37.597610462   34.294991446   28.564961191
    2.525876461   37.493565424   33.879629254   28.212647728
    2.533055092   37.613970610   34.122097918   28.379991835
    2.540233723   38.135045568   34.808362155   28.763221240
