# energy grid [eV]     epsr_x  epsr_y  epsr_z
#
    0.200000000    2.236173578   15.599570180   15.572110666
    0.207178631    2.236299733   15.603044632   15.575542361
    0.214357262    2.236430368   15.606643476   15.579096883
    0.221535893    2.236565485   15.610366910   15.582774425
    0.228714524    2.236705088   15.614215138   15.586575185
    0.235893155    2.236849181   15.618188371   15.590499368
    0.243071786    2.236997767   15.622286828   15.594547185
    0.250250417    2.237150849   15.626510734   15.598718855
    0.257429048    2.237308432   15.630860323   15.603014605
    0.264607679    2.237470520   15.635335833   15.607434666
    0.271786311    2.237637116   15.639937513   15.611979278
    0.278964942    2.237808224   15.644665617   15.616648689
    0.286143573    2.237983850   15.649520405   15.621443151
    0.293322204    2.238163997   15.654502149   15.626362925
    0.300500835    2.238348669   15.659611123   15.631408279
    0.307679466    2.238537872   15.664847611   15.636579489
    0.314858097    2.238731611   15.670211906   15.641876837
    0.322036728    2.238929889   15.675704305   15.647300612
    0.329215359    2.239132712   15.681325114   15.652851111
    0.336393990    2.239340085   15.687074649   15.658528639
    0.343572621    2.239552014   15.692953230   15.664333506
    0.350751252    2.239768503   15.698961187   15.670266032
    0.357929883    2.239989558   15.705098856   15.676326544
    0.365108514    2.240215185   15.711366583   15.682515376
    0.372287145    2.240445389   15.717764720   15.688832868
    0.379465776    2.240680176   15.724293627   15.695279371
    0.386644407    2.240919552   15.730953673   15.701855242
    0.393823038    2.241163523   15.737745235   15.708560844
    0.401001669    2.241412096   15.744668697   15.715396551
    0.408180301    2.241665275   15.751724451   15.722362743
    0.415358932    2.241923069   15.758912899   15.729459808
    0.422537563    2.242185483   15.766234450   15.736688142
    0.429716194    2.242452524   15.773689521   15.744048149
    0.436894825    2.242724199   15.781278538   15.751540243
    0.444073456    2.243000515   15.789001936   15.759164843
    0.451252087    2.243281479   15.796860157   15.766922378
    0.458430718    2.243567097   15.804853652   15.774813284
    0.465609349    2.243857377   15.812982883   15.782838009
    0.472787980    2.244152328   15.821248317   15.790997004
    0.479966611    2.244451955   15.829650432   15.799290732
    0.487145242    2.244756267   15.838189715   15.807719665
    0.494323873    2.245065271   15.846866661   15.816284281
    0.501502504    2.245378976   15.855681775   15.824985070
    0.508681135    2.245697390   15.864635571   15.833822526
    0.515859766    2.246020520   15.873728571   15.842797158
    0.523038397    2.246348375   15.882961307   15.851909479
    0.530217028    2.246680963   15.892334322   15.861160013
    0.537395659    2.247018294   15.901848166   15.870549293
    0.544574290    2.247360375   15.911503400   15.880077861
    0.551752922    2.247707216   15.921300595   15.889746269
    0.558931553    2.248058825   15.931240329   15.899555078
    0.566110184    2.248415211   15.941323194   15.909504857
    0.573288815    2.248776384   15.951549789   15.919596187
    0.580467446    2.249142354   15.961920724   15.929829657
    0.587646077    2.249513129   15.972436619   15.940205866
    0.594824708    2.249888720   15.983098105   15.950725424
    0.602003339    2.250269135   15.993905822   15.961388950
    0.609181970    2.250654386   16.004860421   15.972197072
    0.616360601    2.251044481   16.015962564   15.983150430
    0.623539232    2.251439432   16.027212924   15.994249674
    0.630717863    2.251839248   16.038612184   16.005495463
    0.637896494    2.252243941   16.050161038   16.016888468
    0.645075125    2.252653520   16.061860192   16.028429370
    0.652253756    2.253067997   16.073710362   16.040118860
    0.659432387    2.253487382   16.085712276   16.051957642
    0.666611018    2.253911686   16.097866672   16.063946428
    0.673789649    2.254340921   16.110174303   16.076085944
    0.680968280    2.254775098   16.122635930   16.088376925
    0.688146912    2.255214229   16.135252328   16.100820118
    0.695325543    2.255658325   16.148024283   16.113416282
    0.702504174    2.256107398   16.160952593   16.126166187
    0.709682805    2.256561459   16.174038070   16.139070615
    0.716861436    2.257020522   16.187281537   16.152130360
    0.724040067    2.257484598   16.200683829   16.165346227
    0.731218698    2.257953700   16.214245794   16.178719035
    0.738397329    2.258427840   16.227968295   16.192249614
    0.745575960    2.258907031   16.241852204   16.205938806
    0.752754591    2.259391285   16.255898411   16.219787467
    0.759933222    2.259880617   16.270107815   16.233796465
    0.767111853    2.260375039   16.284481332   16.247966680
    0.774290484    2.260874564   16.299019888   16.262299008
    0.781469115    2.261379207   16.313724428   16.276794354
    0.788647746    2.261888979   16.328595905   16.291453640
    0.795826377    2.262403897   16.343635292   16.306277800
    0.803005008    2.262923973   16.358843572   16.321267782
    0.810183639    2.263449222   16.374221745   16.336424548
    0.817362270    2.263979657   16.389770826   16.351749073
    0.824540902    2.264515295   16.405491843   16.367242349
    0.831719533    2.265056148   16.421385841   16.382905380
    0.838898164    2.265602233   16.437453880   16.398739185
    0.846076795    2.266153564   16.453697036   16.414744800
    0.853255426    2.266710156   16.470116399   16.430923272
    0.860434057    2.267272025   16.486713078   16.447275668
    0.867612688    2.267839186   16.503488196   16.463803066
    0.874791319    2.268411656   16.520442893   16.480506564
    0.881969950    2.268989449   16.537578327   16.497387272
    0.889148581    2.269572582   16.554895672   16.514446320
    0.896327212    2.270161072   16.572396119   16.531684850
    0.903505843    2.270754934   16.590080877   16.549104024
    0.910684474    2.271354186   16.607951172   16.566705020
    0.917863105    2.271958844   16.626008249   16.584489032
    0.925041736    2.272568925   16.644253372   16.602457272
    0.932220367    2.273184447   16.662687821   16.620610971
    0.939398998    2.273805427   16.681312896   16.638951375
    0.946577629    2.274431882   16.700129918   16.657479749
    0.953756260    2.275063831   16.719140224   16.676197379
    0.960934891    2.275701290   16.738345174   16.695105566
    0.968113523    2.276344279   16.757746145   16.714205631
    0.975292154    2.276992816   16.777344536   16.733498916
    0.982470785    2.277646920   16.797141767   16.752986779
    0.989649416    2.278306608   16.817139278   16.772670602
    0.996828047    2.278971901   16.837338530   16.792551782
    1.004006678    2.279642817   16.857741006   16.812631741
    1.011185309    2.280319376   16.878348211   16.832911919
    1.018363940    2.281001598   16.899161673   16.853393778
    1.025542571    2.281689501   16.920182941   16.874078801
    1.032721202    2.282383107   16.941413588   16.894968493
    1.039899833    2.283082435   16.962855210   16.916064380
    1.047078464    2.283787507   16.984509427   16.937368010
    1.054257095    2.284498342   17.006377882   16.958880957
    1.061435726    2.285214962   17.028462246   16.980604814
    1.068614357    2.285937387   17.050764210   17.002541200
    1.075792988    2.286665640   17.073285494   17.024691756
    1.082971619    2.287399742   17.096027842   17.047058149
    1.090150250    2.288139714   17.118993024   17.069642068
    1.097328881    2.288885578   17.142182838   17.092445231
    1.104507513    2.289637358   17.165599109   17.115469377
    1.111686144    2.290395075   17.189243688   17.138716273
    1.118864775    2.291158752   17.213118455   17.162187712
    1.126043406    2.291928413   17.237225318   17.185885515
    1.133222037    2.292704080   17.261566214   17.209811527
    1.140400668    2.293485777   17.286143111   17.233967623
    1.147579299    2.294273527   17.310958005   17.258355705
    1.154757930    2.295067356   17.336012923   17.282977705
    1.161936561    2.295867286   17.361309924   17.307835582
    1.169115192    2.296673343   17.386851097   17.332931325
    1.176293823    2.297485551   17.412638565   17.358266955
    1.183472454    2.298303936   17.438674483   17.383844520
    1.190651085    2.299128522   17.464961039   17.409666102
    1.197829716    2.299959335   17.491500454   17.435733815
    1.205008347    2.300796402   17.518294985   17.462049802
    1.212186978    2.301639747   17.545346926   17.488616241
    1.219365609    2.302489398   17.572658602   17.515435343
    1.226544240    2.303345381   17.600232379   17.542509354
    1.233722871    2.304207723   17.628070657   17.569840553
    1.240901503    2.305076451   17.656175877   17.597431254
    1.248080134    2.305951594   17.684550515   17.625283809
    1.255258765    2.306833177   17.713197090   17.653400603
    1.262437396    2.307721231   17.742118159   17.681784062
    1.269616027    2.308615782   17.771316319   17.710436648
    1.276794658    2.309516861   17.800794211   17.739360861
    1.283973289    2.310424495   17.830554516   17.768559241
    1.291151920    2.311338714   17.860599961   17.798034369
    1.298330551    2.312259548   17.890933315   17.827788864
    1.305509182    2.313187026   17.921557393   17.857825391
    1.312687813    2.314121179   17.952475055   17.888146653
    1.319866444    2.315062038   17.983689208   17.918755398
    1.327045075    2.316009632   18.015202807   17.949654418
    1.334223706    2.316963995   18.047018856   17.980846551
    1.341402337    2.317925156   18.079140409   18.012334679
    1.348580968    2.318893148   18.111570569   18.044121731
    1.355759599    2.319868002   18.144312491   18.076210685
    1.362938230    2.320849753   18.177369385   18.108604565
    1.370116861    2.321838432   18.210744513   18.141306447
    1.377295492    2.322834073   18.244441192   18.174319457
    1.384474124    2.323836709   18.278462796   18.207646771
    1.391652755    2.324846374   18.312812754   18.241291619
    1.398831386    2.325863103   18.347494558   18.275257285
    1.406010017    2.326886930   18.382511754   18.309547106
    1.413188648    2.327917891   18.417867955   18.344164477
    1.420367279    2.328956020   18.453566831   18.379112848
    1.427545910    2.330001354   18.489612120   18.414395730
    1.434724541    2.331053928   18.526007623   18.450016690
    1.441903172    2.332113780   18.562757207   18.485979358
    1.449081803    2.333180947   18.599864809   18.522287427
    1.456260434    2.334255465   18.637334434   18.558944651
    1.463439065    2.335337372   18.675170159   18.595954849
    1.470617696    2.336426708   18.713376132   18.633321909
    1.477796327    2.337523509   18.751956577   18.671049782
    1.484974958    2.338627816   18.790915789   18.709142491
    1.492153589    2.339739668   18.830258131   18.747604122
    1.499332220    2.340859104   18.869988021   18.786438826
    1.506510851    2.341986166   18.910109991   18.825650841
    1.513689482    2.343120893   18.950628765   18.865244519
    1.520868114    2.344263327   18.991549065   18.905224259
    1.528046745    2.345413509   19.032875641   18.945594515
    1.535225376    2.346571483   19.074613359   18.986359829
    1.542404007    2.347737290   19.116767186   19.027524833
    1.549582638    2.348910973   19.159342190   19.069094236
    1.556761269    2.350092576   19.202343533   19.111072826
    1.563939900    2.351282143   19.245776475   19.153465506
    1.571118531    2.352479719   19.289646377   19.196277294
    1.578297162    2.353685347   19.333958704   19.239513262
    1.585475793    2.354899075   19.378719024   19.283178566
    1.592654424    2.356120948   19.423933014   19.327278468
    1.599833055    2.357351012   19.469606462   19.371818333
    1.607011686    2.358589315   19.515745270   19.416803628
    1.614190317    2.359835903   19.562355454   19.462239927
    1.621368948    2.361090826   19.609443152   19.508132907
    1.628547579    2.362354132   19.657014622   19.554488357
    1.635726210    2.363625870   19.705076251   19.601312178
    1.642904841    2.364906090   19.753634550   19.648610384
    1.650083472    2.366194842   19.802696166   19.696389111
    1.657262104    2.367492177   19.852267880   19.744654610
    1.664440735    2.368798147   19.902356613   19.793413262
    1.671619366    2.370112804   19.952969429   19.842671570
    1.678797997    2.371436200   20.004113537   19.892436168
    1.685976628    2.372768389   20.055796299   19.942713819
    1.693155259    2.374109424   20.108025229   19.993511400
    1.700333890    2.375459360   20.160808002   20.044835897
    1.707512521    2.376818252   20.214152457   20.096694537
    1.714691152    2.378186157   20.268066606   20.149094802
    1.721869783    2.379563131   20.322558629   20.202044172
    1.729048414    2.380949232   20.377636881   20.255550239
    1.736227045    2.382344517   20.433309899   20.309620793
    1.743405676    2.383749044   20.489586392   20.364263796
    1.750584307    2.385162872   20.546475224   20.419487376
    1.757762938    2.386586062   20.603985426   20.475299824
    1.764941569    2.388018675   20.662126449   20.531709673
    1.772120200    2.389460771   20.720908015   20.588725662
    1.779298831    2.390912413   20.780339810   20.646356641
    1.786477462    2.392373664   20.840431737   20.704611654
    1.793656093    2.393844587   20.901193977   20.763499959
    1.800834725    2.395325247   20.962636970   20.823031027
    1.808013356    2.396815709   21.024771399   20.883214541
    1.815191987    2.398316039   21.087608205   20.944060405
    1.822370618    2.399826304   21.151158584   21.005578744
    1.829549249    2.401346572   21.215434003   21.067779919
    1.836727880    2.402876910   21.280446202   21.130674525
    1.843906511    2.404417390   21.346207208   21.194273407
    1.851085142    2.405968080   21.412729341   21.258587661
    1.858263773    2.407529052   21.480025222   21.323628644
    1.865442404    2.409100377   21.548107790   21.389407982
    1.872621035    2.410682130   21.616990303   21.455937579
    1.879799666    2.412274383   21.686686357   21.523229625
    1.886978297    2.413877212   21.757209889   21.591296607
    1.894156928    2.415490692   21.828575197   21.660151314
    1.901335559    2.417114901   21.900796945   21.729806851
    1.908514190    2.418749915   21.973890180   21.800276647
    1.915692821    2.420395814   22.047870344   21.871574468
    1.922871452    2.422052677   22.122753287   21.943714425
    1.930050083    2.423720585   22.198555280   22.016710987
    1.937228715    2.425399621   22.275293035   22.090578993
    1.944407346    2.427089867   22.352983713   22.165333666
    1.951585977    2.428791407   22.431644949   22.240990623
    1.958764608    2.430504327   22.511294860   22.317565890
    1.965943239    2.432228712   22.591952071   22.395075917
    1.973121870    2.433964651   22.673635726   22.473537591
    1.980300501    2.435712233   22.756365511   22.552968253
    1.987479132    2.437471546   22.840161663   22.633385708
    1.994657763    2.439242683   22.925045002   22.714808246
    2.001836394    2.441025736   23.011037000   22.797254684
    2.009015025    2.442820798   23.098159760   22.880744356
    2.016193656    2.444627965   23.186435993   22.965297101
    2.023372287    2.446447332   23.275889089   23.050933269
    2.030550918    2.448278997   23.366543156   23.137673768
    2.037729549    2.450123060   23.458423040   23.225540372
    2.044908180    2.451979622   23.551554342   23.314555537
    2.052086811    2.453848785   23.645963407   23.404742075
    2.059265442    2.455730651   23.741677355   23.496123477
    2.066444073    2.457625326   23.838724389   23.588723996
    2.073622705    2.459532917   23.937133781   23.682568638
    2.080801336    2.461453530   24.036935421   23.777683176
    2.087979967    2.463387277   24.138160127   23.874094172
    2.095158598    2.465334267   24.240839802   23.971829017
    2.102337229    2.467294614   24.345007429   24.070915954
    2.109515860    2.469268431   24.450697074   24.171384108
    2.116694491    2.471255834   24.557943933   24.273263527
    2.123873122    2.473256942   24.666784627   24.376585299
    2.131051753    2.475271879   24.777257112   24.481381543
    2.138230384    2.477300764   24.889400422   24.587685353
    2.145409015    2.479343721   25.003254973   24.695530913
    2.152587646    2.481400873   25.118862659   24.804953530
    2.159766277    2.483472347   25.236266909   24.915989703
    2.166944908    2.485558276   25.355512903   25.028677432
    2.174123539    2.487658791   25.476647502   25.143056036
    2.181302170    2.489774027   25.599719181   25.259165966
    2.188480801    2.491904118   25.724778237   25.377049095
    2.195659432    2.494049202   25.851876840   25.496748768
    2.202838063    2.496209419   25.981069245   25.618309960
    2.210016694    2.498384912   26.112412357   25.741779734
    2.217195326    2.500575827   26.245965177   25.867206768
    2.224373957    2.502782312   26.381788599   25.994641219
    2.231552588    2.505004515   26.519946108   26.124135216
    2.238731219    2.507242591   26.660504331   26.255742971
    2.245909850    2.509496695   26.803532596   26.389520818
    2.253088481    2.511766984   26.949102859   26.525527258
    2.260267112    2.514053616   27.097290238   26.663823113
    2.267445743    2.516356746   27.248173198   26.804472022
    2.274624374    2.518676533   27.401833730   26.947540255
    2.281803005    2.521013171   27.558357741   27.093096495
    2.288981636    2.523366844   27.717834997   27.241212331
    2.296160267    2.525737713   27.880359235   27.391962445
    2.303338898    2.528125940   28.046028640   27.545424736
    2.310517529    2.530531703   28.214946138   27.701680594
    2.317696160    2.532955216   28.387219700   27.860815274
    2.324874791    2.535396676   28.562962588   28.022917720
    2.332053422    2.537856265   28.742293706   28.188080805
    2.339232053    2.540334174   28.925338001   28.356401775
    2.346410684    2.542830601   29.112226866   28.527982489
    2.353589316    2.545345751   29.303098573   28.702929685
    2.360767947    2.547879834   29.498098719   28.881355252
    2.367946578    2.550433062   29.697380700   29.063376512
    2.375125209    2.553005653   29.901106436   29.249116758
    2.382303840    2.555597830   30.109447236   29.438705926
    2.389482471    2.558209821   30.322583747   29.632280256
    2.396661102    2.560841857   30.540706589   29.829982700
    2.403839733    2.563494176   30.764017937   30.031964232
    2.411018364    2.566167019   30.992733389   30.238384994
    2.418196995    2.568860632   31.227081214   30.449413532
    2.425375626    2.571575266   31.467302687   30.665226963
    2.432554257    2.574311182   31.713654989   30.886012757
    2.439732888    2.577068654   31.966411938   31.111969468
    2.446911519    2.579847954   32.225865146   31.343307370
    2.454090150    2.582649360   32.492325894   31.580249402
    2.461268781    2.585473155   32.766126841   31.823032163
    2.468447412    2.588319633   33.047623891   32.071906959
    2.475626043    2.591189096   33.337198341   32.327141078
    2.482804674    2.594081853   33.635259325   32.589019478
    2.489983306    2.596998220   33.942246435   32.857846112
    2.497161937    2.599938511   34.258632585   33.133944961
    2.504340568    2.602903041   34.584927346   33.417662121
    2.511519199    2.605892184   34.921680838   33.709368366
    2.518697830    2.608906346   35.269487430   34.009460846
    2.525876461    2.611945884   35.628990319   34.318365152
    2.533055092    2.615011161   36.000891755   34.636541202
    2.540233723    2.618102566   36.385956233   34.964484704
