# energy grid [eV]     ieps_x  ieps_y  ieps_z
#
    0.200000000    1.055515677    9.765907354    9.747321863
    0.207178631    1.055503720    9.763778281    9.745220663
    0.214357262    1.055491347    9.761575294    9.743046497
    0.221535893    1.055478558    9.759298511    9.740799480
    0.228714524    1.055465354    9.756948057    9.738479731
    0.235893155    1.055451736    9.754524057    9.736087374
    0.243071786    1.055437704    9.752026644    9.733622535
    0.250250417    1.055423259    9.749455950    9.731085345
    0.257429048    1.055408401    9.746812116    9.728475940
    0.264607679    1.055393132    9.744095283    9.725794455
    0.271786311    1.055377451    9.741305598    9.723041034
    0.278964942    1.055361360    9.738443209    9.720215822
    0.286143573    1.055344859    9.735508272    9.717318967
    0.293322204    1.055327950    9.732500942    9.714350622
    0.300500835    1.055310632    9.729421381    9.711310944
    0.307679466    1.055292907    9.726269754    9.708200092
    0.314858097    1.055274775    9.723046228    9.705018228
    0.322036728    1.055256237    9.719750975    9.701765521
    0.329215359    1.055237295    9.716384172    9.698442140
    0.336393990    1.055217948    9.712945996    9.695048259
    0.343572621    1.055198199    9.709436630    9.691584055
    0.350751252    1.055178047    9.705856262    9.688049709
    0.357929883    1.055157493    9.702205079    9.684445404
    0.365108514    1.055136539    9.698483274    9.680771329
    0.372287145    1.055115186    9.694691046    9.677027673
    0.379465776    1.055093434    9.690828592    9.673214631
    0.386644407    1.055071284    9.686896117    9.669332400
    0.393823038    1.055048737    9.682893827    9.665381181
    0.401001669    1.055025795    9.678821932    9.661361177
    0.408180301    1.055002459    9.674680645    9.657272596
    0.415358932    1.054978728    9.670470183    9.653115647
    0.422537563    1.054954605    9.666190765    9.648890545
    0.429716194    1.054930091    9.661842614    9.644597505
    0.436894825    1.054905186    9.657425957    9.640236748
    0.444073456    1.054879892    9.652941022    9.635808496
    0.451252087    1.054854210    9.648388042    9.631312974
    0.458430718    1.054828141    9.643767252    9.626750412
    0.465609349    1.054801686    9.639078892    9.622121041
    0.472787980    1.054774846    9.634323202    9.617425096
    0.479966611    1.054747623    9.629500426    9.612662815
    0.487145242    1.054720017    9.624610813    9.607834438
    0.494323873    1.054692030    9.619654614    9.602940208
    0.501502504    1.054663663    9.614632080    9.597980373
    0.508681135    1.054634917    9.609543468    9.592955179
    0.515859766    1.054605794    9.604389038    9.587864881
    0.523038397    1.054576295    9.599169051    9.582709731
    0.530217028    1.054546421    9.593883772    9.577489988
    0.537395659    1.054516173    9.588533468    9.572205910
    0.544574290    1.054485553    9.583118409    9.566857762
    0.551752922    1.054454562    9.577638867    9.561445807
    0.558931553    1.054423201    9.572095118    9.555970314
    0.566110184    1.054391472    9.566487440    9.550431552
    0.573288815    1.054359377    9.560816113    9.544829795
    0.580467446    1.054326915    9.555081420    9.539165318
    0.587646077    1.054294089    9.549283646    9.533438398
    0.594824708    1.054260901    9.543423079    9.527649316
    0.602003339    1.054227351    9.537500010    9.521798354
    0.609181970    1.054193441    9.531514731    9.515885796
    0.616360601    1.054159173    9.525467537    9.509911930
    0.623539232    1.054124547    9.519358726    9.503877046
    0.630717863    1.054089566    9.513188596    9.497781434
    0.637896494    1.054054231    9.506957450    9.491625388
    0.645075125    1.054018544    9.500665591    9.485409205
    0.652253756    1.053982505    9.494313326    9.479133183
    0.659432387    1.053946116    9.487900963    9.472797621
    0.666611018    1.053909380    9.481428813    9.466402822
    0.673789649    1.053872297    9.474897187    9.459949090
    0.680968280    1.053834869    9.468306399    9.453436732
    0.688146912    1.053797097    9.461656767    9.446866055
    0.695325543    1.053758983    9.454948609    9.440237369
    0.702504174    1.053720530    9.448182244    9.433550987
    0.709682805    1.053681737    9.441357995    9.426807222
    0.716861436    1.053642607    9.434476185    9.420006390
    0.724040067    1.053603142    9.427537141    9.413148809
    0.731218698    1.053563343    9.420541189    9.406234797
    0.738397329    1.053523211    9.413488659    9.399264675
    0.745575960    1.053482749    9.406379881    9.392238765
    0.752754591    1.053441958    9.399215188    9.385157393
    0.759933222    1.053400840    9.391994914    9.378020883
    0.767111853    1.053359396    9.384719394    9.370829562
    0.774290484    1.053317628    9.377388965    9.363583760
    0.781469115    1.053275537    9.370003966    9.356283807
    0.788647746    1.053233126    9.362564737    9.348930034
    0.795826377    1.053190396    9.355071620    9.341522775
    0.803005008    1.053147349    9.347524956    9.334062363
    0.810183639    1.053103986    9.339925091    9.326549135
    0.817362270    1.053060310    9.332272369    9.318983429
    0.824540902    1.053016321    9.324567138    9.311365581
    0.831719533    1.052972022    9.316809745    9.303695933
    0.838898164    1.052927415    9.309000539    9.295974824
    0.846076795    1.052882501    9.301139870    9.288202597
    0.853255426    1.052837282    9.293228090    9.280379595
    0.860434057    1.052791760    9.285265552    9.272506162
    0.867612688    1.052745936    9.277252608    9.264582643
    0.874791319    1.052699812    9.269189614    9.256609385
    0.881969950    1.052653391    9.261076925    9.248586734
    0.889148581    1.052606673    9.252914896    9.240515040
    0.896327212    1.052559661    9.244703886    9.232394651
    0.903505843    1.052512357    9.236444252    9.224225918
    0.910684474    1.052464762    9.228136354    9.216009190
    0.917863105    1.052416879    9.219780551    9.207744820
    0.925041736    1.052368708    9.211377204    9.199433161
    0.932220367    1.052320252    9.202926673    9.191074565
    0.939398998    1.052271513    9.194429322    9.182669386
    0.946577629    1.052222492    9.185885512    9.174217980
    0.953756260    1.052173192    9.177295607    9.165720700
    0.960934891    1.052123614    9.168659970    9.157177904
    0.968113523    1.052073760    9.159978965    9.148589948
    0.975292154    1.052023632    9.151252959    9.139957188
    0.982470785    1.051973231    9.142482315    9.131279982
    0.989649416    1.051922561    9.133667399    9.122558688
    0.996828047    1.051871622    9.124808579    9.113793664
    1.004006678    1.051820416    9.115906219    9.104985270
    1.011185309    1.051768946    9.106960688    9.096133864
    1.018363940    1.051717213    9.097972352    9.087239806
    1.025542571    1.051665220    9.088941579    9.078303456
    1.032721202    1.051612967    9.079868736    9.069325174
    1.039899833    1.051560457    9.070754192    9.060305320
    1.047078464    1.051507692    9.061598314    9.051244256
    1.054257095    1.051454674    9.052401472    9.042142342
    1.061435726    1.051401404    9.043164032    9.032999939
    1.068614357    1.051347885    9.033886364    9.023817408
    1.075792988    1.051294119    9.024568836    9.014595110
    1.082971619    1.051240106    9.015211817    9.005333407
    1.090150250    1.051185851    9.005815676    8.996032660
    1.097328881    1.051131353    8.996380780    8.986693231
    1.104507513    1.051076616    8.986907499    8.977315480
    1.111686144    1.051021640    8.977396200    8.967899770
    1.118864775    1.050966429    8.967847252    8.958446461
    1.126043406    1.050910983    8.958261023    8.948955914
    1.133222037    1.050855306    8.948637882    8.939428491
    1.140400668    1.050799398    8.938978194    8.929864553
    1.147579299    1.050743262    8.929282329    8.920264459
    1.154757930    1.050686900    8.919550653    8.910628571
    1.161936561    1.050630313    8.909783534    8.900957249
    1.169115192    1.050573504    8.899981337    8.891250852
    1.176293823    1.050516474    8.890144429    8.881509741
    1.183472454    1.050459226    8.880273176    8.871734274
    1.190651085    1.050401761    8.870367943    8.861924811
    1.197829716    1.050344081    8.860429096    8.852081710
    1.205008347    1.050286188    8.850456998    8.842205330
    1.212186978    1.050228085    8.840452015    8.832296027
    1.219365609    1.050169772    8.830414509    8.822354161
    1.226544240    1.050111253    8.820344844    8.812380087
    1.233722871    1.050052529    8.810243382    8.802374161
    1.240901503    1.049993601    8.800110485    8.792336740
    1.248080134    1.049934472    8.789946514    8.782268179
    1.255258765    1.049875144    8.779751830    8.772168833
    1.262437396    1.049815619    8.769526794    8.762039056
    1.269616027    1.049755898    8.759271764    8.751879201
    1.276794658    1.049695984    8.748987099    8.741689621
    1.283973289    1.049635878    8.738673157    8.731470668
    1.291151920    1.049575583    8.728330295    8.721222695
    1.298330551    1.049515100    8.717958870    8.710946051
    1.305509182    1.049454431    8.707559237    8.700641087
    1.312687813    1.049393578    8.697131751    8.690308152
    1.319866444    1.049332544    8.686676766    8.679947594
    1.327045075    1.049271329    8.676194636    8.669559763
    1.334223706    1.049209936    8.665685712    8.659145004
    1.341402337    1.049148367    8.655150345    8.648703663
    1.348580968    1.049086624    8.644588887    8.638236086
    1.355759599    1.049024708    8.634001687    8.627742618
    1.362938230    1.048962622    8.623389093    8.617223602
    1.370116861    1.048900367    8.612751453    8.606679380
    1.377295492    1.048837946    8.602089114    8.596110294
    1.384474124    1.048775360    8.591402420    8.585516685
    1.391652755    1.048712610    8.580691718    8.574898892
    1.398831386    1.048649700    8.569957349    8.564257255
    1.406010017    1.048586631    8.559199658    8.553592111
    1.413188648    1.048523404    8.548418984    8.542903797
    1.420367279    1.048460022    8.537615669    8.532192649
    1.427545910    1.048396487    8.526790051    8.521459001
    1.434724541    1.048332799    8.515942468    8.510703186
    1.441903172    1.048268963    8.505073258    8.499925539
    1.449081803    1.048204978    8.494182756    8.489126389
    1.456260434    1.048140847    8.483271296    8.478306067
    1.463439065    1.048076572    8.472339212    8.467464902
    1.470617696    1.048012154    8.461386837    8.456603222
    1.477796327    1.047947596    8.450414500    8.445721355
    1.484974958    1.047882899    8.439422532    8.434819625
    1.492153589    1.047818066    8.428411260    8.423898358
    1.499332220    1.047753097    8.417381013    8.412957876
    1.506510851    1.047687996    8.406332116    8.401998501
    1.513689482    1.047622763    8.395264893    8.391020555
    1.520868114    1.047557400    8.384179668    8.380024357
    1.528046745    1.047491910    8.373076763    8.369010225
    1.535225376    1.047426293    8.361956498    8.357978476
    1.542404007    1.047360553    8.350819192    8.346929426
    1.549582638    1.047294690    8.339665164    8.335863389
    1.556761269    1.047228707    8.328494729    8.324780679
    1.563939900    1.047162605    8.317308204    8.313681607
    1.571118531    1.047096386    8.306105901    8.302566484
    1.578297162    1.047030052    8.294888134    8.291435619
    1.585475793    1.046963604    8.283655213    8.280289319
    1.592654424    1.046897045    8.272407447    8.269127892
    1.599833055    1.046830375    8.261145145    8.257951642
    1.607011686    1.046763598    8.249868613    8.246760872
    1.614190317    1.046696714    8.238578157    8.235555886
    1.621368948    1.046629726    8.227274080    8.224336983
    1.628547579    1.046562634    8.215956684    8.213104465
    1.635726210    1.046495441    8.204626271    8.201858627
    1.642904841    1.046428149    8.193283139    8.190599767
    1.650083472    1.046360759    8.181927586    8.179328181
    1.657262104    1.046293273    8.170559909    8.168044161
    1.664440735    1.046225693    8.159180402    8.156748001
    1.671619366    1.046158020    8.147789358    8.145439990
    1.678797997    1.046090255    8.136387070    8.134120418
    1.685976628    1.046022402    8.124973827    8.122789574
    1.693155259    1.045954461    8.113549919    8.111447742
    1.700333890    1.045886434    8.102115631    8.100095209
    1.707512521    1.045818323    8.090671251    8.088732257
    1.714691152    1.045750129    8.079217061    8.077359169
    1.721869783    1.045681854    8.067753344    8.065976224
    1.729048414    1.045613499    8.056280381    8.054583702
    1.736227045    1.045545067    8.044798451    8.043181880
    1.743405676    1.045476559    8.033307832    8.031771033
    1.750584307    1.045407976    8.021808801    8.020351436
    1.757762938    1.045339321    8.010301630    8.008923361
    1.764941569    1.045270594    7.998786595    7.997487079
    1.772120200    1.045201798    7.987263965    7.986042861
    1.779298831    1.045132933    7.975734010    7.974590974
    1.786477462    1.045064002    7.964196999    7.963131684
    1.793656093    1.044995007    7.952653198    7.951665257
    1.800834725    1.044925947    7.941102872    7.940191956
    1.808013356    1.044856827    7.929546285    7.928712042
    1.815191987    1.044787645    7.917983697    7.917225777
    1.822370618    1.044718406    7.906415369    7.905733417
    1.829549249    1.044649109    7.894841559    7.894235221
    1.836727880    1.044579756    7.883262524    7.882731444
    1.843906511    1.044510350    7.871678519    7.871222340
    1.851085142    1.044440890    7.860089798    7.859708160
    1.858263773    1.044371380    7.848496612    7.848189157
    1.865442404    1.044301821    7.836899212    7.836665578
    1.872621035    1.044232213    7.825297846    7.825137671
    1.879799666    1.044162559    7.813692762    7.813605683
    1.886978297    1.044092859    7.802084204    7.802069857
    1.894156928    1.044023116    7.790472416    7.790530436
    1.901335559    1.043953331    7.778857640    7.778987662
    1.908514190    1.043883506    7.767240116    7.767441774
    1.915692821    1.043813641    7.755620084    7.755893009
    1.922871452    1.043743738    7.743997780    7.744341604
    1.930050083    1.043673799    7.732373440    7.732787794
    1.937228715    1.043603825    7.720747298    7.721231812
    1.944407346    1.043533817    7.709119585    7.709673889
    1.951585977    1.043463778    7.697490533    7.698114256
    1.958764608    1.043393707    7.685860369    7.686553140
    1.965943239    1.043323608    7.674229322    7.674990768
    1.973121870    1.043253480    7.662597616    7.663427365
    1.980300501    1.043183326    7.650965477    7.651863155
    1.987479132    1.043113146    7.639333126    7.640298359
    1.994657763    1.043042943    7.627700783    7.628733198
    2.001836394    1.042972718    7.616068668    7.617167891
    2.009015025    1.042902471    7.604436998    7.605602654
    2.016193656    1.042832204    7.592805990    7.594037703
    2.023372287    1.042761919    7.581175856    7.582473252
    2.030550918    1.042691617    7.569546810    7.570909513
    2.037729549    1.042621299    7.557919062    7.559346697
    2.044908180    1.042550967    7.546292822    7.547785013
    2.052086811    1.042480621    7.534668297    7.536224668
    2.059265442    1.042410263    7.523045694    7.524665869
    2.066444073    1.042339895    7.511425216    7.513108819
    2.073622705    1.042269517    7.499807066    7.501553722
    2.080801336    1.042199132    7.488191446    7.490000778
    2.087979967    1.042128739    7.476578556    7.478450187
    2.095158598    1.042058341    7.464968592    7.466902148
    2.102337229    1.041987938    7.453361752    7.455356856
    2.109515860    1.041917532    7.441758229    7.443814506
    2.116694491    1.041847124    7.430158218    7.432275292
    2.123873122    1.041776716    7.418561910    7.420739406
    2.131051753    1.041706308    7.406969495    7.409207037
    2.138230384    1.041635901    7.395381161    7.397678374
    2.145409015    1.041565498    7.383797095    7.386153605
    2.152587646    1.041495098    7.372217481    7.374632915
    2.159766277    1.041424704    7.360642505    7.363116487
    2.166944908    1.041354316    7.349072348    7.351604504
    2.174123539    1.041283936    7.337507190    7.340097148
    2.181302170    1.041213564    7.325947210    7.328594597
    2.188480801    1.041143203    7.314392586    7.317097030
    2.195659432    1.041072852    7.302843493    7.305604621
    2.202838063    1.041002513    7.291300106    7.294117548
    2.210016694    1.040932188    7.279762598    7.282635981
    2.217195326    1.040861876    7.268231140    7.271160094
    2.224373957    1.040791581    7.256705901    7.259690057
    2.231552588    1.040721301    7.245187050    7.248226038
    2.238731219    1.040651040    7.233674753    7.236768204
    2.245909850    1.040580797    7.222169175    7.225316722
    2.253088481    1.040510573    7.210670480    7.213871755
    2.260267112    1.040440371    7.199178831    7.202433466
    2.267445743    1.040370190    7.187694386    7.191002016
    2.274624374    1.040300033    7.176217307    7.179577566
    2.281803005    1.040229899    7.164747750    7.168160273
    2.288981636    1.040159790    7.153285871    7.156750295
    2.296160267    1.040089707    7.141831826    7.145347787
    2.303338898    1.040019651    7.130385767    7.133952902
    2.310517529    1.039949623    7.118947845    7.122565793
    2.317696160    1.039879624    7.107518212    7.111186612
    2.324874791    1.039809655    7.096097015    7.099815508
    2.332053422    1.039739717    7.084684403    7.088452628
    2.339232053    1.039669810    7.073280521    7.077098121
    2.346410684    1.039599937    7.061885514    7.065752130
    2.353589316    1.039530098    7.050499524    7.054414801
    2.360767947    1.039460293    7.039122693    7.043086274
    2.367946578    1.039390524    7.027755161    7.031766693
    2.375125209    1.039320791    7.016397067    7.020456196
    2.382303840    1.039251097    7.005048549    7.009154921
    2.389482471    1.039181440    6.993709742    6.997863006
    2.396661102    1.039111823    6.982380780    6.986580585
    2.403839733    1.039042247    6.971061797    6.975307794
    2.411018364    1.038972711    6.959752926    6.964044765
    2.418196995    1.038903218    6.948454295    6.952791629
    2.425375626    1.038833767    6.937166034    6.941548516
    2.432554257    1.038764361    6.925888270    6.930315556
    2.439732888    1.038694999    6.914621131    6.919092874
    2.446911519    1.038625682    6.903364741    6.907880599
    2.454090150    1.038556412    6.892119223    6.896678853
    2.461268781    1.038487190    6.880884699    6.885487761
    2.468447412    1.038418015    6.869661292    6.874307444
    2.475626043    1.038348889    6.858449119    6.863138024
    2.482804674    1.038279813    6.847248300    6.851979619
    2.489983306    1.038210787    6.836058952    6.840832348
    2.497161937    1.038141813    6.824881189    6.829696328
    2.504340568    1.038072891    6.813715127    6.818571674
    2.511519199    1.038004021    6.802560879    6.807458501
    2.518697830    1.037935205    6.791418556    6.796356920
    2.525876461    1.037866444    6.780288268    6.785267045
    2.533055092    1.037797738    6.769170126    6.774188986
    2.540233723    1.037729088    6.758064237    6.763122851
