# energy grid [eV]     epsr_x  epsr_y  epsr_z
#
    0.200000000   13.753662322    2.676428791   13.795241343
    0.207178631   13.756619532    2.676645436   13.798152595
    0.214357262   13.759682579    2.676869790   13.801168000
    0.221535893   13.762851627    2.677101860   13.804287717
    0.228714524   13.766126845    2.677341654   13.807511906
    0.235893155   13.769508409    2.677589180   13.810840738
    0.243071786   13.772996501    2.677844445   13.814274387
    0.250250417   13.776591309    2.678107457   13.817813032
    0.257429048   13.780293025    2.678378227   13.821456858
    0.264607679   13.784101849    2.678656762   13.825206058
    0.271786311   13.788017987    2.678943071   13.829060828
    0.278964942   13.792041649    2.679237164   13.833021370
    0.286143573   13.796173054    2.679539051   13.837087894
    0.293322204   13.800412424    2.679848741   13.841260614
    0.300500835   13.804759990    2.680166245   13.845539750
    0.307679466   13.809215987    2.680491572   13.849925527
    0.314858097   13.813780657    2.680824734   13.854418179
    0.322036728   13.818454249    2.681165742   13.859017942
    0.329215359   13.823237016    2.681514607   13.863725062
    0.336393990   13.828129220    2.681871340   13.868539787
    0.343572621   13.833131127    2.682235953   13.873462374
    0.350751252   13.838243011    2.682608458   13.878493085
    0.357929883   13.843465152    2.682988868   13.883632188
    0.365108514   13.848797835    2.683377195   13.888879958
    0.372287145   13.854241355    2.683773451   13.894236675
    0.379465776   13.859796010    2.684177651   13.899702626
    0.386644407   13.865462107    2.684589807   13.905278104
    0.393823038   13.871239957    2.685009933   13.910963409
    0.401001669   13.877129880    2.685438043   13.916758846
    0.408180301   13.883132202    2.685874151   13.922664727
    0.415358932   13.889247255    2.686318272   13.928681373
    0.422537563   13.895475380    2.686770421   13.934809106
    0.429716194   13.901816923    2.687230612   13.941048261
    0.436894825   13.908272237    2.687698862   13.947399174
    0.444073456   13.914841683    2.688175186   13.953862191
    0.451252087   13.921525627    2.688659599   13.960437663
    0.458430718   13.928324446    2.689152118   13.967125951
    0.465609349   13.935238519    2.689652760   13.973927417
    0.472787980   13.942268237    2.690161541   13.980842436
    0.479966611   13.949413995    2.690678478   13.987871386
    0.487145242   13.956676198    2.691203590   13.995014652
    0.494323873   13.964055255    2.691736893   14.002272630
    0.501502504   13.971551586    2.692278406   14.009645718
    0.508681135   13.979165616    2.692828147   14.017134325
    0.515859766   13.986897779    2.693386135   14.024738864
    0.523038397   13.994748516    2.693952388   14.032459758
    0.530217028   14.002718277    2.694526926   14.040297437
    0.537395659   14.010807518    2.695109769   14.048252337
    0.544574290   14.019016704    2.695700936   14.056324903
    0.551752922   14.027346307    2.696300448   14.064515585
    0.558931553   14.035796809    2.696908324   14.072824845
    0.566110184   14.044368697    2.697524587   14.081253148
    0.573288815   14.053062470    2.698149256   14.089800971
    0.580467446   14.061878632    2.698782354   14.098468795
    0.587646077   14.070817698    2.699423902   14.107257112
    0.594824708   14.079880189    2.700073923   14.116166420
    0.602003339   14.089066636    2.700732439   14.125197226
    0.609181970   14.098377578    2.701399472   14.134350045
    0.616360601   14.107813564    2.702075046   14.143625400
    0.623539232   14.117375150    2.702759184   14.153023824
    0.630717863   14.127062902    2.703451910   14.162545855
    0.637896494   14.136877395    2.704153249   14.172192043
    0.645075125   14.146819213    2.704863224   14.181962944
    0.652253756   14.156888948    2.705581860   14.191859125
    0.659432387   14.167087203    2.706309183   14.201881159
    0.666611018   14.177414590    2.707045218   14.212029631
    0.673789649   14.187871730    2.707789991   14.222305133
    0.680968280   14.198459253    2.708543528   14.232708267
    0.688146912   14.209177801    2.709305857   14.243239642
    0.695325543   14.220028024    2.710077003   14.253899879
    0.702504174   14.231010582    2.710856994   14.264689608
    0.709682805   14.242126145    2.711645858   14.275609467
    0.716861436   14.253375394    2.712443622   14.286660104
    0.724040067   14.264759020    2.713250317   14.297842178
    0.731218698   14.276277725    2.714065969   14.309156356
    0.738397329   14.287932219    2.714890608   14.320603317
    0.745575960   14.299723227    2.715724264   14.332183748
    0.752754591   14.311651480    2.716566967   14.343898348
    0.759933222   14.323717724    2.717418748   14.355747824
    0.767111853   14.335922714    2.718279636   14.367732896
    0.774290484   14.348267216    2.719149663   14.379854293
    0.781469115   14.360752008    2.720028861   14.392112754
    0.788647746   14.373377880    2.720917261   14.404509032
    0.795826377   14.386145634    2.721814896   14.417043886
    0.803005008   14.399056081    2.722721799   14.429718090
    0.810183639   14.412110047    2.723638003   14.442532429
    0.817362270   14.425308368    2.724563541   14.455487697
    0.824540902   14.438651895    2.725498447   14.468584701
    0.831719533   14.452141489    2.726442756   14.481824260
    0.838898164   14.465778023    2.727396503   14.495207203
    0.846076795   14.479562386    2.728359723   14.508734374
    0.853255426   14.493495477    2.729332452   14.522406627
    0.860434057   14.507578209    2.730314725   14.536224827
    0.867612688   14.521811509    2.731306580   14.550189855
    0.874791319   14.536196317    2.732308054   14.564302602
    0.881969950   14.550733586    2.733319183   14.578563971
    0.889148581   14.565424283    2.734340007   14.592974881
    0.896327212   14.580269391    2.735370563   14.607536261
    0.903505843   14.595269904    2.736410891   14.622249056
    0.910684474   14.610426834    2.737461029   14.637114223
    0.917863105   14.625741204    2.738521018   14.652132731
    0.925041736   14.641214054    2.739590898   14.667305567
    0.932220367   14.656846440    2.740670710   14.682633728
    0.939398998   14.672639432    2.741760495   14.698118228
    0.946577629   14.688594114    2.742860294   14.713760094
    0.953756260   14.704711589    2.743970151   14.729560368
    0.960934891   14.720992973    2.745090109   14.745520106
    0.968113523   14.737439401    2.746220209   14.761640382
    0.975292154   14.754052021    2.747360496   14.777922281
    0.982470785   14.770832002    2.748511016   14.794366906
    0.989649416   14.787780526    2.749671811   14.810975377
    0.996828047   14.804898795    2.750842928   14.827748827
    1.004006678   14.822188028    2.752024413   14.844688407
    1.011185309   14.839649459    2.753216313   14.861795284
    1.018363940   14.857284344    2.754418673   14.879070642
    1.025542571   14.875093954    2.755631543   14.896515681
    1.032721202   14.893079582    2.756854969   14.914131620
    1.039899833   14.911242537    2.758089001   14.931919693
    1.047078464   14.929584149    2.759333689   14.949881154
    1.054257095   14.948105765    2.760589081   14.968017274
    1.061435726   14.966808755    2.761855228   14.986329342
    1.068614357   14.985694507    2.763132182   15.004818666
    1.075792988   15.004764430    2.764419995   15.023486573
    1.082971619   15.024019955    2.765718717   15.042334409
    1.090150250   15.043462532    2.767028402   15.061363538
    1.097328881   15.063093633    2.768349105   15.080575347
    1.104507513   15.082914754    2.769680878   15.099971240
    1.111686144   15.102927410    2.771023776   15.119552643
    1.118864775   15.123133140    2.772377855   15.139321003
    1.126043406   15.143533508    2.773743172   15.159277786
    1.133222037   15.164130097    2.775119781   15.179424481
    1.140400668   15.184924517    2.776507742   15.199762599
    1.147579299   15.205918401    2.777907112   15.220293673
    1.154757930   15.227113407    2.779317949   15.241019258
    1.161936561   15.248511218    2.780740313   15.261940932
    1.169115192   15.270113541    2.782174264   15.283060295
    1.176293823   15.291922111    2.783619863   15.304378974
    1.183472454   15.313938688    2.785077172   15.325898616
    1.190651085   15.336165059    2.786546251   15.347620896
    1.197829716   15.358603038    2.788027166   15.369547510
    1.205008347   15.381254466    2.789519978   15.391680184
    1.212186978   15.404121215    2.791024752   15.414020665
    1.219365609   15.427205183    2.792541555   15.436570730
    1.226544240   15.450508298    2.794070450   15.459332181
    1.233722871   15.474032518    2.795611506   15.482306846
    1.240901503   15.497779831    2.797164790   15.505496581
    1.248080134   15.521752256    2.798730370   15.528903273
    1.255258765   15.545951844    2.800308314   15.552528834
    1.262437396   15.570380677    2.801898694   15.576375206
    1.269616027   15.595040870    2.803501579   15.600444361
    1.276794658   15.619934572    2.805117041   15.624738301
    1.283973289   15.645063965    2.806745153   15.649259060
    1.291151920   15.670431266    2.808385988   15.674008700
    1.298330551   15.696038726    2.810039619   15.698989318
    1.305509182   15.721888634    2.811706122   15.724203041
    1.312687813   15.747983313    2.813385573   15.749652032
    1.319866444   15.774325126    2.815078048   15.775338483
    1.327045075   15.800916470    2.816783626   15.801264625
    1.334223706   15.827759786    2.818502384   15.827432721
    1.341402337   15.854857550    2.820234402   15.853845071
    1.348580968   15.882212280    2.821979761   15.880504010
    1.355759599   15.909826536    2.823738542   15.907411910
    1.362938230   15.937702917    2.825510828   15.934571182
    1.370116861   15.965844068    2.827296701   15.961984274
    1.377295492   15.994252675    2.829096247   15.989653673
    1.384474124   16.022931470    2.830909550   16.017581907
    1.391652755   16.051883230    2.832736698   16.045771544
    1.398831386   16.081110778    2.834577777   16.074225194
    1.406010017   16.110616985    2.836432877   16.102945507
    1.413188648   16.140404769    2.838302086   16.131935179
    1.420367279   16.170477098    2.840185495   16.161196949
    1.427545910   16.200836991    2.842083197   16.190733600
    1.434724541   16.231487517    2.843995283   16.220547962
    1.441903172   16.262431797    2.845921849   16.250642910
    1.449081803   16.293673009    2.847862989   16.281021369
    1.456260434   16.325214382    2.849818799   16.311686311
    1.463439065   16.357059203    2.851789378   16.342640758
    1.470617696   16.389210814    2.853774823   16.373887783
    1.477796327   16.421672618    2.855775235   16.405430510
    1.484974958   16.454448077    2.857790715   16.437272117
    1.492153589   16.487540714    2.859821365   16.469415836
    1.499332220   16.520954112    2.861867289   16.501864953
    1.506510851   16.554691920    2.863928591   16.534622810
    1.513689482   16.588757844    2.866005379   16.567692801
    1.520868114   16.623155637    2.868097759   16.601078364
    1.528046745   16.657889103    2.870205838   16.634782979
    1.535225376   16.692962207    2.872329729   16.668810267
    1.542404007   16.728379044    2.874469545   16.703163956
    1.549582638   16.764143649    2.876625398   16.737847732
    1.556761269   16.800260122    2.878797402   16.772865335
    1.563939900   16.836732661    2.880985673   16.808220594
    1.571118531   16.873565556    2.883190327   16.843917414
    1.578297162   16.910763179    2.885411485   16.879959774
    1.585475793   16.948329982    2.887649267   16.916351722
    1.592654424   16.986270504    2.889903793   16.953097382
    1.599833055   17.024589368    2.892175189   16.990200950
    1.607011686   17.063291285    2.894463578   17.027666702
    1.614190317   17.102381055    2.896769088   17.065498989
    1.621368948   17.141863570    2.899091847   17.103702243
    1.628547579   17.181743816    2.901431984   17.142280977
    1.635726210   17.222026885    2.903789632   17.181239795
    1.642904841   17.262717969    2.906164923   17.220583382
    1.650083472   17.303822350    2.908557993   17.260316511
    1.657262104   17.345345419    2.910968980   17.300444044
    1.664440735   17.387292672    2.913398020   17.340970937
    1.671619366   17.429669720    2.915845255   17.381902242
    1.678797997   17.472482282    2.918310828   17.423243106
    1.685976628   17.515736199    2.920794881   17.464998777
    1.693155259   17.559437424    2.923297563   17.507174604
    1.700333890   17.603592039    2.925819019   17.549776042
    1.707512521   17.648206245    2.928359402   17.592808653
    1.714691152   17.693286375    2.930918861   17.636278107
    1.721869783   17.738838895    2.933497553   17.680190189
    1.729048414   17.784870403    2.936095633   17.724550798
    1.736227045   17.831387639    2.938713258   17.769365953
    1.743405676   17.878397486    2.941350590   17.814641793
    1.750584307   17.925906973    2.944007791   17.860384579
    1.757762938   17.973923279    2.946685025   17.906600692
    1.764941569   18.022453742    2.949382460   17.953296658
    1.772120200   18.071505860    2.952100265   18.000479166
    1.779298831   18.121087295    2.954838614   18.048155018
    1.786477462   18.171205877    2.957597679   18.096331145
    1.793656093   18.221869608    2.960377637   18.145014628
    1.800834725   18.273086671    2.963178666   18.194212707
    1.808013356   18.324865436    2.966000949   18.243932773
    1.815191987   18.377214459    2.968844669   18.294182380
    1.822370618   18.430142495    2.971710013   18.344969244
    1.829549249   18.483658497    2.974597170   18.396301247
    1.836727880   18.537771626    2.977506332   18.448186446
    1.843906511   18.592491245    2.980437694   18.500633066
    1.851085142   18.647826906    2.983391453   18.553649491
    1.858263773   18.703788357    2.986367810   18.607244270
    1.865442404   18.760385734    2.989366967   18.661426262
    1.872621035   18.817629507    2.992389131   18.716204596
    1.879799666   18.875530181    2.995434511   18.771588442
    1.886978297   18.934098495    2.998503319   18.827587169
    1.894156928   18.993345498    3.001595770   18.884210395
    1.901335559   19.053282529    3.004712084   18.941467972
    1.908514190   19.113921213    3.007852480   18.999369993
    1.915692821   19.175273468    3.011017186   19.057926783
    1.922871452   19.237351514    3.014206428   19.117148919
    1.930050083   19.300167884    3.017420438   19.177047227
    1.937228715   19.363735430    3.020659452   19.237632799
    1.944407346   19.428067339    3.023923709   19.298916993
    1.951585977   19.493177143    3.027213450   19.360911448
    1.958764608   19.559078730    3.030528922   19.423628090
    1.965943239   19.625786356    3.033870374   19.487079143
    1.973121870   19.693314661    3.037238061   19.551277137
    1.980300501   19.761678678    3.040632239   19.616234920
    1.987479132   19.830893851    3.044053170   19.681965668
    1.994657763   19.900976049    3.047501120   19.748482895
    2.001836394   19.971941579    3.050976359   19.815800463
    2.009015025   20.043807203    3.054479159   19.883932589
    2.016193656   20.116590150    3.058009799   19.952893836
    2.023372287   20.190308135    3.061568560   20.022699115
    2.030550918   20.264979409    3.065155731   20.093363870
    2.037729549   20.340622768    3.068771605   20.164904092
    2.044908180   20.417257515    3.072416479   20.237335994
    2.052086811   20.494903519    3.076090653   20.310676190
    2.059265442   20.573581224    3.079794432   20.384941798
    2.066444073   20.653311648    3.083528127   20.460150438
    2.073622705   20.734116507    3.087292055   20.536320231
    2.080801336   20.816018392    3.091086537   20.613469818
    2.087979967   20.899040433    3.094911899   20.691618375
    2.095158598   20.983206366    3.098768475   20.770785628
    2.102337229   21.068540718    3.102656600   20.850991883
    2.109515860   21.155068826    3.106576619   20.932258045
    2.116694491   21.242816854    3.110528880   21.014605643
    2.123873122   21.331811815    3.114513739   21.098056850
    2.131051753   21.422081608    3.118531556   21.182634512
    2.138230384   21.513655060    3.122582699   21.268362177
    2.145409015   21.606561982    3.126667541   21.355264138
    2.152587646   21.700833186    3.130786462   21.443365440
    2.159766277   21.796500535    3.134939849   21.532691910
    2.166944908   21.893596995    3.139128096   21.623270200
    2.174123539   21.992156691    3.143351602   21.715127823
    2.181302170   22.092214950    3.147610774   21.808293185
    2.188480801   22.193808346    3.151906029   21.902795606
    2.195659432   22.296974719    3.156237787   21.998665332
    2.202838063   22.401753348    3.160606479   22.095933672
    2.210016694   22.508185248    3.165012541   22.194633237
    2.217195326   22.616312811    3.169456421   22.294797620
    2.224373957   22.726179853    3.173938572   22.396461420
    2.231552588   22.837831928    3.178459456   22.499660497
    2.238731219   22.951316396    3.183019543   22.604432021
    2.245909850   23.066682465    3.187619314   22.710814507
    2.253088481   23.183981243    3.192259257   22.818847875
    2.260267112   23.303265975    3.196939869   22.928573512
    2.267445743   23.424592404    3.201661660   23.040034345
    2.274624374   23.548018338    3.206425145   23.153274913
    2.281803005   23.673603738    3.211230851   23.268341425
    2.288981636   23.801411104    3.216079310   23.385281841
    2.296160267   23.931506070    3.220971076   23.504146027
    2.303338898   24.063957330    3.225906717   23.624985853
    2.310517529   24.198836147    3.230886799   23.747855445
    2.317696160   24.336216910    3.235911886   23.872811013
    2.324874791   24.476177389    3.240982542   23.999910684
    2.332053422   24.618799168    3.246099365   24.129215428
    2.339232053   24.764167782    3.251263029   24.260789157
    2.346410684   24.912372634    3.256474186   24.394697942
    2.353589316   25.063507409    3.261733494   24.531010548
    2.360767947   25.217670235    3.267041581   24.669798822
    2.367946578   25.374964404    3.272399081   24.811138148
    2.375125209   25.535498652    3.277806681   24.955107543
    2.382303840   25.699386988    3.283265134   25.101789447
    2.389482471   25.866749569    3.288775154   25.251270061
    2.396661102   26.037712989    3.294337456   25.403639687
    2.403839733   26.212410235    3.299952777   25.558992775
    2.411018364   26.390981642    3.305621871   25.717428432
    2.418196995   26.573575488    3.311345498   25.879050765
    2.425375626   26.760348593    3.317124476   26.043969180
    2.432554257   26.951466872    3.322959681   26.212298668
    2.439732888   27.147105906    3.328851944   26.384160211
    2.446911519   27.347451780    3.334802103   26.559681202
    2.454090150   27.552701928    3.340811035   26.738995839
    2.461268781   27.763066064    3.346879643   26.922245671
    2.468447412   27.978767179    3.353008850   27.109580132
    2.475626043   28.200042602    3.359199605   27.301157069
    2.482804674   28.427145179    3.365452878   27.497143348
    2.489983306   28.660344976    3.371769670   27.697715926
    2.497161937   28.899930852    3.378151006   27.903062699
    2.504340568   29.146211776    3.384597940   28.113382649
    2.511519199   29.399518996    3.391111553   28.328887169
    2.518697830   29.660207526    3.397692958   28.549801020
    2.525876461   29.928658885    3.404343298   28.776363550
    2.533055092   30.205283930    3.411063752   29.008830040
    2.540233723   30.490525749    3.417855533   29.247473093
