# energy grid [eV]     ieps_x  ieps_y  ieps_z
#
    0.200000000    8.631041379    1.317993540    8.572958816
    0.207178631    8.629232197    1.317928279    8.571187839
    0.214357262    8.627360184    1.317860747    8.569355338
    0.221535893    8.625425440    1.317790944    8.567461407
    0.228714524    8.623428067    1.317718875    8.565506144
    0.235893155    8.621368170    1.317644542    8.563489652
    0.243071786    8.619245859    1.317567949    8.561412033
    0.250250417    8.617061244    1.317489099    8.559273396
    0.257429048    8.614814443    1.317407995    8.557073850
    0.264607679    8.612505572    1.317324641    8.554813508
    0.271786311    8.610134753    1.317239041    8.552492488
    0.278964942    8.607702110    1.317151197    8.550110908
    0.286143573    8.605207772    1.317061115    8.547668890
    0.293322204    8.602651869    1.316968797    8.545166561
    0.300500835    8.600034535    1.316874249    8.542604047
    0.307679466    8.597355907    1.316777473    8.539981481
    0.314858097    8.594616124    1.316678474    8.537298996
    0.322036728    8.591815329    1.316577257    8.534556730
    0.329215359    8.588953669    1.316473825    8.531754821
    0.336393990    8.586031293    1.316368184    8.528893413
    0.343572621    8.583048351    1.316260337    8.525972652
    0.350751252    8.580004999    1.316150289    8.522992685
    0.357929883    8.576901395    1.316038045    8.519953664
    0.365108514    8.573737698    1.315923610    8.516855743
    0.372287145    8.570514073    1.315806989    8.513699078
    0.379465776    8.567230686    1.315688186    8.510483829
    0.386644407    8.563887705    1.315567207    8.507210157
    0.393823038    8.560485304    1.315444056    8.503878229
    0.401001669    8.557023655    1.315318740    8.500488211
    0.408180301    8.553502938    1.315191263    8.497040273
    0.415358932    8.549923331    1.315061631    8.493534589
    0.422537563    8.546285018    1.314929849    8.489971333
    0.429716194    8.542588184    1.314795922    8.486350684
    0.436894825    8.538833018    1.314659857    8.482672823
    0.444073456    8.535019710    1.314521659    8.478937931
    0.451252087    8.531148454    1.314381335    8.475146196
    0.458430718    8.527219446    1.314238889    8.471297805
    0.465609349    8.523232884    1.314094328    8.467392948
    0.472787980    8.519188970    1.313947658    8.463431819
    0.479966611    8.515087907    1.313798884    8.459414614
    0.487145242    8.510929901    1.313648015    8.455341529
    0.494323873    8.506715161    1.313495054    8.451212766
    0.501502504    8.502443897    1.313340010    8.447028526
    0.508681135    8.498116324    1.313182888    8.442789015
    0.515859766    8.493732657    1.313023695    8.438494441
    0.523038397    8.489293113    1.312862437    8.434145011
    0.530217028    8.484797914    1.312699122    8.429740939
    0.537395659    8.480247282    1.312533755    8.425282438
    0.544574290    8.475641441    1.312366345    8.420769724
    0.551752922    8.470980620    1.312196897    8.416203016
    0.558931553    8.466265048    1.312025418    8.411582533
    0.566110184    8.461494956    1.311851916    8.406908499
    0.573288815    8.456670577    1.311676398    8.402181138
    0.580467446    8.451792148    1.311498871    8.397400677
    0.587646077    8.446859907    1.311319342    8.392567344
    0.594824708    8.441874094    1.311137819    8.387681370
    0.602003339    8.436834949    1.310954309    8.382742988
    0.609181970    8.431742719    1.310768819    8.377752433
    0.616360601    8.426597648    1.310581357    8.372709941
    0.623539232    8.421399985    1.310391930    8.367615751
    0.630717863    8.416149978    1.310200547    8.362470102
    0.637896494    8.410847881    1.310007214    8.357273237
    0.645075125    8.405493947    1.309811940    8.352025401
    0.652253756    8.400088430    1.309614732    8.346726838
    0.659432387    8.394631588    1.309415599    8.341377797
    0.666611018    8.389123681    1.309214549    8.335978526
    0.673789649    8.383564968    1.309011588    8.330529277
    0.680968280    8.377955712    1.308806726    8.325030301
    0.688146912    8.372296178    1.308599971    8.319481854
    0.695325543    8.366586630    1.308391331    8.313884191
    0.702504174    8.360827336    1.308180813    8.308237570
    0.709682805    8.355018565    1.307968428    8.302542249
    0.716861436    8.349160588    1.307754181    8.296798489
    0.724040067    8.343253676    1.307538084    8.291006552
    0.731218698    8.337298102    1.307320142    8.285166702
    0.738397329    8.331294142    1.307100366    8.279279202
    0.745575960    8.325242072    1.306878764    8.273344321
    0.752754591    8.319142169    1.306655345    8.267362324
    0.759933222    8.312994713    1.306430116    8.261333482
    0.767111853    8.306799983    1.306203087    8.255258064
    0.774290484    8.300558263    1.305974268    8.249136343
    0.781469115    8.294269833    1.305743665    8.242968591
    0.788647746    8.287934980    1.305511289    8.236755082
    0.795826377    8.281553987    1.305277149    8.230496091
    0.803005008    8.275127142    1.305041253    8.224191896
    0.810183639    8.268654733    1.304803610    8.217842773
    0.817362270    8.262137047    1.304564229    8.211449002
    0.824540902    8.255574376    1.304323121    8.205010861
    0.831719533    8.248967010    1.304080293    8.198528633
    0.838898164    8.242315241    1.303835755    8.192002599
    0.846076795    8.235619362    1.303589516    8.185433042
    0.853255426    8.228879667    1.303341585    8.178820246
    0.860434057    8.222096451    1.303091973    8.172164496
    0.867612688    8.215270010    1.302840687    8.165466077
    0.874791319    8.208400640    1.302587738    8.158725276
    0.881969950    8.201488639    1.302333135    8.151942381
    0.889148581    8.194534305    1.302076888    8.145117680
    0.896327212    8.187537938    1.301819006    8.138251462
    0.903505843    8.180499837    1.301559498    8.131344017
    0.910684474    8.173420304    1.301298374    8.124395636
    0.917863105    8.166299638    1.301035644    8.117406609
    0.925041736    8.159138142    1.300771317    8.110377230
    0.932220367    8.151936120    1.300505404    8.103307791
    0.939398998    8.144693873    1.300237913    8.096198584
    0.946577629    8.137411706    1.299968855    8.089049905
    0.953756260    8.130089923    1.299698239    8.081862047
    0.960934891    8.122728830    1.299426075    8.074635306
    0.968113523    8.115328730    1.299152372    8.067369977
    0.975292154    8.107889932    1.298877142    8.060066357
    0.982470785    8.100412739    1.298600393    8.052724741
    0.989649416    8.092897460    1.298322136    8.045345428
    0.996828047    8.085344401    1.298042381    8.037928714
    1.004006678    8.077753870    1.297761136    8.030474897
    1.011185309    8.070126175    1.297478413    8.022984276
    1.018363940    8.062461623    1.297194222    8.015457149
    1.025542571    8.054760523    1.296908572    8.007893814
    1.032721202    8.047023183    1.296621473    8.000294572
    1.039899833    8.039249913    1.296332936    7.992659721
    1.047078464    8.031441021    1.296042970    7.984989560
    1.054257095    8.023596817    1.295751586    7.977284391
    1.061435726    8.015717609    1.295458793    7.969544512
    1.068614357    8.007803708    1.295164603    7.961770225
    1.075792988    7.999855422    1.294869025    7.953961828
    1.082971619    7.991873062    1.294572069    7.946119624
    1.090150250    7.983856936    1.294273745    7.938243911
    1.097328881    7.975807355    1.293974064    7.930334992
    1.104507513    7.967724628    1.293673035    7.922393166
    1.111686144    7.959609065    1.293370670    7.914418733
    1.118864775    7.951460975    1.293066978    7.906411996
    1.126043406    7.943280668    1.292761969    7.898373253
    1.133222037    7.935068453    1.292455654    7.890302807
    1.140400668    7.926824638    1.292148042    7.882200956
    1.147579299    7.918549534    1.291839145    7.874068002
    1.154757930    7.910243449    1.291528973    7.865904245
    1.161936561    7.901906692    1.291217535    7.857709984
    1.169115192    7.893539571    1.290904842    7.849485520
    1.176293823    7.885142394    1.290590905    7.841231152
    1.183472454    7.876715470    1.290275733    7.832947180
    1.190651085    7.868259105    1.289959337    7.824633903
    1.197829716    7.859773607    1.289641727    7.816291620
    1.205008347    7.851259283    1.289322914    7.807920630
    1.212186978    7.842716440    1.289002907    7.799521231
    1.219365609    7.834145383    1.288681718    7.791093721
    1.226544240    7.825546419    1.288359356    7.782638398
    1.233722871    7.816919853    1.288035832    7.774155559
    1.240901503    7.808265990    1.287711156    7.765645502
    1.248080134    7.799585135    1.287385338    7.757108522
    1.255258765    7.790877590    1.287058389    7.748544916
    1.262437396    7.782143661    1.286730318    7.739954980
    1.269616027    7.773383649    1.286401137    7.731339010
    1.276794658    7.764597857    1.286070856    7.722697298
    1.283973289    7.755786588    1.285739484    7.714030141
    1.291151920    7.746950141    1.285407032    7.705337832
    1.298330551    7.738088819    1.285073511    7.696620664
    1.305509182    7.729202920    1.284738930    7.687878930
    1.312687813    7.720292745    1.284403300    7.679112921
    1.319866444    7.711358592    1.284066632    7.670322930
    1.327045075    7.702400759    1.283728935    7.661509247
    1.334223706    7.693419544    1.283390219    7.652672162
    1.341402337    7.684415242    1.283050495    7.643811966
    1.348580968    7.675388151    1.282709773    7.634928947
    1.355759599    7.666338566    1.282368064    7.626023393
    1.362938230    7.657266780    1.282025377    7.617095592
    1.370116861    7.648173087    1.281681723    7.608145831
    1.377295492    7.639057781    1.281337111    7.599174396
    1.384474124    7.629921153    1.280991553    7.590181573
    1.391652755    7.620763494    1.280645057    7.581167646
    1.398831386    7.611585096    1.280297635    7.572132899
    1.406010017    7.602386247    1.279949296    7.563077615
    1.413188648    7.593167236    1.279600051    7.554002077
    1.420367279    7.583928352    1.279249909    7.544906565
    1.427545910    7.574669880    1.278898880    7.535791362
    1.434724541    7.565392107    1.278546976    7.526656746
    1.441903172    7.556095318    1.278194204    7.517502997
    1.449081803    7.546779797    1.277840577    7.508330392
    1.456260434    7.537445827    1.277486103    7.499139210
    1.463439065    7.528093691    1.277130793    7.489929725
    1.470617696    7.518723669    1.276774657    7.480702215
    1.477796327    7.509336042    1.276417704    7.471456952
    1.484974958    7.499931089    1.276059944    7.462194211
    1.492153589    7.490509088    1.275701388    7.452914265
    1.499332220    7.481070317    1.275342045    7.443617384
    1.506510851    7.471615051    1.274981924    7.434303840
    1.513689482    7.462143566    1.274621037    7.424973903
    1.520868114    7.452656136    1.274259393    7.415627840
    1.528046745    7.443153033    1.273897000    7.406265921
    1.535225376    7.433634530    1.273533870    7.396888411
    1.542404007    7.424100897    1.273170012    7.387495576
    1.549582638    7.414552404    1.272805436    7.378087680
    1.556761269    7.404989320    1.272440150    7.368664989
    1.563939900    7.395411911    1.272074166    7.359227763
    1.571118531    7.385820445    1.271707492    7.349776264
    1.578297162    7.376215186    1.271340139    7.340310753
    1.585475793    7.366596399    1.270972115    7.330831489
    1.592654424    7.356964345    1.270603430    7.321338730
    1.599833055    7.347319288    1.270234094    7.311832733
    1.607011686    7.337661486    1.269864117    7.302313755
    1.614190317    7.327991201    1.269493507    7.292782050
    1.621368948    7.318308689    1.269122274    7.283237871
    1.628547579    7.308614207    1.268750428    7.273681472
    1.635726210    7.298908012    1.268377978    7.264113104
    1.642904841    7.289190358    1.268004933    7.254533017
    1.650083472    7.279461497    1.267631303    7.244941460
    1.657262104    7.269721683    1.267257096    7.235338682
    1.664440735    7.259971165    1.266882323    7.225724928
    1.671619366    7.250210193    1.266506992    7.216100445
    1.678797997    7.240439016    1.266131112    7.206465477
    1.685976628    7.230657881    1.265754694    7.196820267
    1.693155259    7.220867032    1.265377744    7.187165057
    1.700333890    7.211066715    1.265000274    7.177500088
    1.707512521    7.201257173    1.264622292    7.167825600
    1.714691152    7.191438648    1.264243807    7.158141831
    1.721869783    7.181611379    1.263864827    7.148449017
    1.729048414    7.171775608    1.263485363    7.138747396
    1.736227045    7.161931571    1.263105422    7.129037201
    1.743405676    7.152079506    1.262725014    7.119318666
    1.750584307    7.142219647    1.262344147    7.109592024
    1.757762938    7.132352229    1.261962831    7.099857504
    1.764941569    7.122477485    1.261581074    7.090115337
    1.772120200    7.112595645    1.261198884    7.080365752
    1.779298831    7.102706941    1.260816272    7.070608975
    1.786477462    7.092811601    1.260433244    7.060845232
    1.793656093    7.082909852    1.260049811    7.051074747
    1.800834725    7.073001921    1.259665979    7.041297745
    1.808013356    7.063088032    1.259281759    7.031514447
    1.815191987    7.053168410    1.258897159    7.021725074
    1.822370618    7.043243275    1.258512186    7.011929845
    1.829549249    7.033312848    1.258126850    7.002128979
    1.836727880    7.023377350    1.257741159    6.992322692
    1.843906511    7.013436998    1.257355121    6.982511201
    1.851085142    7.003492009    1.256968744    6.972694718
    1.858263773    6.993542599    1.256582038    6.962873458
    1.865442404    6.983588980    1.256195009    6.953047632
    1.872621035    6.973631367    1.255807667    6.943217450
    1.879799666    6.963669969    1.255420019    6.933383122
    1.886978297    6.953704998    1.255032075    6.923544855
    1.894156928    6.943736662    1.254643840    6.913702855
    1.901335559    6.933765167    1.254255325    6.903857329
    1.908514190    6.923790721    1.253866536    6.894008479
    1.915692821    6.913813526    1.253477483    6.884156508
    1.922871452    6.903833787    1.253088172    6.874301618
    1.930050083    6.893851705    1.252698611    6.864444008
    1.937228715    6.883867480    1.252308809    6.854583877
    1.944407346    6.873881312    1.251918774    6.844721422
    1.951585977    6.863893397    1.251528512    6.834856839
    1.958764608    6.853903933    1.251138033    6.824990322
    1.965943239    6.843913115    1.250747343    6.815122066
    1.973121870    6.833921135    1.250356450    6.805252262
    1.980300501    6.823928186    1.249965362    6.795381100
    1.987479132    6.813934459    1.249574086    6.785508771
    1.994657763    6.803940143    1.249182630    6.775635461
    2.001836394    6.793945427    1.248791001    6.765761358
    2.009015025    6.783950496    1.248399208    6.755886648
    2.016193656    6.773955537    1.248007256    6.746011513
    2.023372287    6.763960733    1.247615155    6.736136138
    2.030550918    6.753966268    1.247222910    6.726260703
    2.037729549    6.743972321    1.246830529    6.716385388
    2.044908180    6.733979074    1.246438020    6.706510373
    2.052086811    6.723986705    1.246045389    6.696635835
    2.059265442    6.713995391    1.245652645    6.686761949
    2.066444073    6.704005308    1.245259793    6.676888892
    2.073622705    6.694016630    1.244866841    6.667016836
    2.080801336    6.684029531    1.244473796    6.657145954
    2.087979967    6.674044182    1.244080665    6.647276417
    2.095158598    6.664060754    1.243687455    6.637408395
    2.102337229    6.654079416    1.243294173    6.627542055
    2.109515860    6.644100336    1.242900826    6.617677565
    2.116694491    6.634123681    1.242507420    6.607815090
    2.123873122    6.624149615    1.242113962    6.597954796
    2.131051753    6.614178302    1.241720460    6.588096845
    2.138230384    6.604209905    1.241326919    6.578241400
    2.145409015    6.594244585    1.240933346    6.568388620
    2.152587646    6.584282502    1.240539749    6.558538665
    2.159766277    6.574323815    1.240146133    6.548691693
    2.166944908    6.564368679    1.239752505    6.538847861
    2.174123539    6.554417253    1.239358871    6.529007325
    2.181302170    6.544469689    1.238965239    6.519170238
    2.188480801    6.534526142    1.238571614    6.509336754
    2.195659432    6.524586763    1.238178002    6.499507024
    2.202838063    6.514651703    1.237784411    6.489681199
    2.210016694    6.504721111    1.237390846    6.479859427
    2.217195326    6.494795136    1.236997313    6.470041857
    2.224373957    6.484873924    1.236603819    6.460228635
    2.231552588    6.474957621    1.236210369    6.450419907
    2.238731219    6.465046371    1.235816971    6.440615817
    2.245909850    6.455140317    1.235423630    6.430816507
    2.253088481    6.445239601    1.235030351    6.421022120
    2.260267112    6.435344364    1.234637141    6.411232795
    2.267445743    6.425454743    1.234244007    6.401448673
    2.274624374    6.415570878    1.233850952    6.391669890
    2.281803005    6.405692905    1.233457985    6.381896583
    2.288981636    6.395820960    1.233065110    6.372128889
    2.296160267    6.385955176    1.232672333    6.362366941
    2.303338898    6.376095687    1.232279659    6.352610872
    2.310517529    6.366242623    1.231887096    6.342860815
    2.317696160    6.356396117    1.231494647    6.333116899
    2.324874791    6.346556296    1.231102319    6.323379255
    2.332053422    6.336723290    1.230710117    6.313648011
    2.339232053    6.326897224    1.230318047    6.303923293
    2.346410684    6.317078225    1.229926114    6.294205227
    2.353589316    6.307266416    1.229534324    6.284493939
    2.360767947    6.297461921    1.229142682    6.274789552
    2.367946578    6.287664862    1.228751193    6.265092187
    2.375125209    6.277875360    1.228359863    6.255401967
    2.382303840    6.268093534    1.227968697    6.245719011
    2.389482471    6.258319502    1.227577700    6.236043438
    2.396661102    6.248553383    1.227186877    6.226375366
    2.403839733    6.238795291    1.226796233    6.216714911
    2.411018364    6.229045342    1.226405774    6.207062189
    2.418196995    6.219303650    1.226015505    6.197417313
    2.425375626    6.209570327    1.225625430    6.187780398
    2.432554257    6.199845484    1.225235554    6.178151554
    2.439732888    6.190129233    1.224845883    6.168530893
    2.446911519    6.180421681    1.224456422    6.158918525
    2.454090150    6.170722937    1.224067174    6.149314558
    2.461268781    6.161033108    1.223678146    6.139719099
    2.468447412    6.151352300    1.223289341    6.130132256
    2.475626043    6.141680617    1.222900764    6.120554133
    2.482804674    6.132018162    1.222512421    6.110984834
    2.489983306    6.122365038    1.222124316    6.101424462
    2.497161937    6.112721347    1.221736453    6.091873121
    2.504340568    6.103087188    1.221348837    6.082330909
    2.511519199    6.093462661    1.220961472    6.072797928
    2.518697830    6.083847864    1.220574364    6.063274277
    2.525876461    6.074242893    1.220187516    6.053760051
    2.533055092    6.064647844    1.219800932    6.044255350
    2.540233723    6.055062813    1.219414618    6.034760267
