# energy grid [eV]     ieps_x  ieps_y  ieps_z
#
    0.200000000    1.564094308    8.167019670    8.151863309
    0.207178631    1.563948962    8.165268829    8.150129618
    0.214357262    1.563798636    8.163457255    8.148335769
    0.221535893    1.563643344    8.161585051    8.146481862
    0.228714524    1.563483101    8.159652325    8.144568001
    0.235893155    1.563317922    8.157659184    8.142594292
    0.243071786    1.563147824    8.155605743    8.140560844
    0.250250417    1.562972821    8.153492117    8.138467771
    0.257429048    1.562792930    8.151318427    8.136315189
    0.264607679    1.562608168    8.149084794    8.134103216
    0.271786311    1.562418552    8.146791345    8.131831976
    0.278964942    1.562224098    8.144438209    8.129501593
    0.286143573    1.562024826    8.142025517    8.127112197
    0.293322204    1.561820752    8.139553406    8.124663918
    0.300500835    1.561611894    8.137022014    8.122156892
    0.307679466    1.561398272    8.134431483    8.119591256
    0.314858097    1.561179904    8.131781957    8.116967151
    0.322036728    1.560956809    8.129073584    8.114284721
    0.329215359    1.560729007    8.126306514    8.111544112
    0.336393990    1.560496517    8.123480902    8.108745473
    0.343572621    1.560259358    8.120596904    8.105888958
    0.350751252    1.560017552    8.117654680    8.102974722
    0.357929883    1.559771118    8.114654392    8.100002922
    0.365108514    1.559520077    8.111596206    8.096973721
    0.372287145    1.559264450    8.108480290    8.093887281
    0.379465776    1.559004257    8.105306816    8.090743770
    0.386644407    1.558739521    8.102075957    8.087543357
    0.393823038    1.558470261    8.098787890    8.084286215
    0.401001669    1.558196500    8.095442794    8.080972517
    0.408180301    1.557918259    8.092040853    8.077602443
    0.415358932    1.557635561    8.088582251    8.074176171
    0.422537563    1.557348426    8.085067175    8.070693886
    0.429716194    1.557056879    8.081495817    8.067155772
    0.436894825    1.556760940    8.077868368    8.063562018
    0.444073456    1.556460633    8.074185025    8.059912815
    0.451252087    1.556155979    8.070445985    8.056208355
    0.458430718    1.555847002    8.066651449    8.052448834
    0.465609349    1.555533725    8.062801621    8.048634452
    0.472787980    1.555216170    8.058896705    8.044765407
    0.479966611    1.554894361    8.054936911    8.040841903
    0.487145242    1.554568321    8.050922448    8.036864146
    0.494323873    1.554238072    8.046853529    8.032832344
    0.501502504    1.553903640    8.042730370    8.028746706
    0.508681135    1.553565046    8.038553187    8.024607446
    0.515859766    1.553222315    8.034322202    8.020414777
    0.523038397    1.552875470    8.030037635    8.016168917
    0.530217028    1.552524534    8.025699711    8.011870085
    0.537395659    1.552169533    8.021308657    8.007518502
    0.544574290    1.551810488    8.016864702    8.003114393
    0.551752922    1.551447425    8.012368075    7.998657981
    0.558931553    1.551080368    8.007819011    7.994149496
    0.566110184    1.550709339    8.003217743    7.989589167
    0.573288815    1.550334364    7.998564510    7.984977225
    0.580467446    1.549955466    7.993859549    7.980313906
    0.587646077    1.549572670    7.989103103    7.975599443
    0.594824708    1.549185999    7.984295414    7.970834076
    0.602003339    1.548795478    7.979436726    7.966018044
    0.609181970    1.548401131    7.974527287    7.961151589
    0.616360601    1.548002983    7.969567346    7.956234953
    0.623539232    1.547601056    7.964557152    7.951268382
    0.630717863    1.547195377    7.959496958    7.946252123
    0.637896494    1.546785968    7.954387017    7.941186425
    0.645075125    1.546372855    7.949227587    7.936071539
    0.652253756    1.545956062    7.944018923    7.930907715
    0.659432387    1.545535613    7.938761284    7.925695210
    0.666611018    1.545111532    7.933454933    7.920434276
    0.673789649    1.544683843    7.928100130    7.915125173
    0.680968280    1.544252572    7.922697140    7.909768158
    0.688146912    1.543817741    7.917246227    7.904363492
    0.695325543    1.543379377    7.911747659    7.898911436
    0.702504174    1.542937502    7.906201704    7.893412254
    0.709682805    1.542492142    7.900608632    7.887866210
    0.716861436    1.542043320    7.894968714    7.882273570
    0.724040067    1.541591061    7.889282222    7.876634602
    0.731218698    1.541135389    7.883549430    7.870949574
    0.738397329    1.540676328    7.877770614    7.865218757
    0.745575960    1.540213903    7.871946049    7.859442421
    0.752754591    1.539748138    7.866076014    7.853620840
    0.759933222    1.539279056    7.860160787    7.847754287
    0.767111853    1.538806683    7.854200648    7.841843037
    0.774290484    1.538331043    7.848195878    7.835887367
    0.781469115    1.537852158    7.842146760    7.829887554
    0.788647746    1.537370055    7.836053577    7.823843877
    0.795826377    1.536884756    7.829916614    7.817756614
    0.803005008    1.536396286    7.823736156    7.811626047
    0.810183639    1.535904668    7.817512489    7.805452457
    0.817362270    1.535409928    7.811245902    7.799236127
    0.824540902    1.534912088    7.804936681    7.792977340
    0.831719533    1.534411173    7.798585117    7.786676381
    0.838898164    1.533907206    7.792191499    7.780333535
    0.846076795    1.533400212    7.785756119    7.773949088
    0.853255426    1.532890214    7.779279268    7.767523327
    0.860434057    1.532377237    7.772761239    7.761056541
    0.867612688    1.531861303    7.766202325    7.754549018
    0.874791319    1.531342437    7.759602821    7.748001046
    0.881969950    1.530820662    7.752963020    7.741412917
    0.889148581    1.530296002    7.746283218    7.734784921
    0.896327212    1.529768481    7.739563711    7.728117350
    0.903505843    1.529238122    7.732804796    7.721410495
    0.910684474    1.528704948    7.726006769    7.714664649
    0.917863105    1.528168984    7.719169930    7.707880106
    0.925041736    1.527630253    7.712294575    7.701057159
    0.932220367    1.527088777    7.705381003    7.694196102
    0.939398998    1.526544581    7.698429514    7.687297231
    0.946577629    1.525997688    7.691440407    7.680360841
    0.953756260    1.525448120    7.684413982    7.673387226
    0.960934891    1.524895902    7.677350540    7.666376684
    0.968113523    1.524341057    7.670250381    7.659329511
    0.975292154    1.523783606    7.663113806    7.652246003
    0.982470785    1.523223575    7.655941117    7.645126458
    0.989649416    1.522660985    7.648732615    7.637971173
    0.996828047    1.522095860    7.641488601    7.630780446
    1.004006678    1.521528223    7.634209379    7.623554574
    1.011185309    1.520958096    7.626895249    7.616293857
    1.018363940    1.520385502    7.619546515    7.608998591
    1.025542571    1.519810465    7.612163479    7.601669077
    1.032721202    1.519233006    7.604746444    7.594305611
    1.039899833    1.518653150    7.597295712    7.586908494
    1.047078464    1.518070917    7.589811585    7.579478024
    1.054257095    1.517486331    7.582294368    7.572014500
    1.061435726    1.516899415    7.574744361    7.564518220
    1.068614357    1.516310191    7.567161869    7.556989484
    1.075792988    1.515718680    7.559547194    7.549428591
    1.082971619    1.515124907    7.551900639    7.541835840
    1.090150250    1.514528892    7.544222505    7.534211529
    1.097328881    1.513930659    7.536513097    7.526555957
    1.104507513    1.513330229    7.528772714    7.518869423
    1.111686144    1.512727625    7.521001661    7.511152226
    1.118864775    1.512122868    7.513200238    7.503404664
    1.126043406    1.511515981    7.505368748    7.495627034
    1.133222037    1.510906986    7.497507492    7.487819636
    1.140400668    1.510295905    7.489616771    7.479982766
    1.147579299    1.509682758    7.481696887    7.472116723
    1.154757930    1.509067570    7.473748139    7.464221803
    1.161936561    1.508450360    7.465770828    7.456298304
    1.169115192    1.507831151    7.457765254    7.448346522
    1.176293823    1.507209964    7.449731717    7.440366754
    1.183472454    1.506586821    7.441670516    7.432359296
    1.190651085    1.505961743    7.433581949    7.424324443
    1.197829716    1.505334752    7.425466316    7.416262490
    1.205008347    1.504705870    7.417323914    7.408173733
    1.212186978    1.504075116    7.409155040    7.400058465
    1.219365609    1.503442514    7.400959992    7.391916981
    1.226544240    1.502808083    7.392739066    7.383749575
    1.233722871    1.502171845    7.384492557    7.375556538
    1.240901503    1.501533822    7.376220763    7.367338164
    1.248080134    1.500894033    7.367923976    7.359094744
    1.255258765    1.500252501    7.359602492    7.350826571
    1.262437396    1.499609245    7.351256604    7.342533934
    1.269616027    1.498964286    7.342886605    7.334217124
    1.276794658    1.498317646    7.334492788    7.325876430
    1.283973289    1.497669345    7.326075444    7.317512142
    1.291151920    1.497019404    7.317634865    7.309124548
    1.298330551    1.496367842    7.309171340    7.300713936
    1.305509182    1.495714681    7.300685160    7.292280592
    1.312687813    1.495059941    7.292176613    7.283824804
    1.319866444    1.494403642    7.283645988    7.275346856
    1.327045075    1.493745804    7.275093571    7.266847034
    1.334223706    1.493086448    7.266519651    7.258325621
    1.341402337    1.492425593    7.257924512    7.249782902
    1.348580968    1.491763260    7.249308440    7.241219158
    1.355759599    1.491099469    7.240671719    7.232634673
    1.362938230    1.490434239    7.232014632    7.224029726
    1.370116861    1.489767590    7.223337462    7.215404599
    1.377295492    1.489099543    7.214640491    7.206759570
    1.384474124    1.488430116    7.205924000    7.198094918
    1.391652755    1.487759329    7.197188268    7.189410921
    1.398831386    1.487087202    7.188433575    7.180707856
    1.406010017    1.486413754    7.179660198    7.171985998
    1.413188648    1.485739005    7.170868415    7.163245623
    1.420367279    1.485062973    7.162058503    7.154487006
    1.427545910    1.484385679    7.153230736    7.145710418
    1.434724541    1.483707141    7.144385388    7.136916133
    1.441903172    1.483027377    7.135522734    7.128104422
    1.449081803    1.482346409    7.126643046    7.119275555
    1.456260434    1.481664253    7.117746594    7.110429802
    1.463439065    1.480980929    7.108833649    7.101567431
    1.470617696    1.480296455    7.099904481    7.092688709
    1.477796327    1.479610851    7.090959358    7.083793903
    1.484974958    1.478924135    7.081998546    7.074883279
    1.492153589    1.478236325    7.073022313    7.065957101
    1.499332220    1.477547440    7.064030923    7.057015631
    1.506510851    1.476857499    7.055024639    7.048059133
    1.513689482    1.476166518    7.046003726    7.039087868
    1.520868114    1.475474518    7.036968445    7.030102095
    1.528046745    1.474781515    7.027919056    7.021102074
    1.535225376    1.474087527    7.018855820    7.012088063
    1.542404007    1.473392574    7.009778993    7.003060319
    1.549582638    1.472696672    7.000688835    6.994019097
    1.556761269    1.471999840    6.991585601    6.984964652
    1.563939900    1.471302094    6.982469545    6.975897238
    1.571118531    1.470603453    6.973340922    6.966817107
    1.578297162    1.469903935    6.964199985    6.957724510
    1.585475793    1.469203556    6.955046984    6.948619697
    1.592654424    1.468502334    6.945882171    6.939502918
    1.599833055    1.467800286    6.936705793    6.930374419
    1.607011686    1.467097430    6.927518100    6.921234448
    1.614190317    1.466393783    6.918319338    6.912083251
    1.621368948    1.465689361    6.909109752    6.902921070
    1.628547579    1.464984182    6.899889586    6.893748150
    1.635726210    1.464278263    6.890659083    6.884564731
    1.642904841    1.463571619    6.881418486    6.875371056
    1.650083472    1.462864269    6.872168035    6.866167362
    1.657262104    1.462156229    6.862907968    6.856953889
    1.664440735    1.461447514    6.853638525    6.847730873
    1.671619366    1.460738142    6.844359941    6.838498550
    1.678797997    1.460028129    6.835072453    6.829257155
    1.685976628    1.459317491    6.825776294    6.820006920
    1.693155259    1.458606245    6.816471697    6.810748077
    1.700333890    1.457894406    6.807158895    6.801480859
    1.707512521    1.457181991    6.797838117    6.792205492
    1.714691152    1.456469015    6.788509592    6.782922207
    1.721869783    1.455755494    6.779173550    6.773631230
    1.729048414    1.455041445    6.769830215    6.764332787
    1.736227045    1.454326882    6.760479813    6.755027102
    1.743405676    1.453611821    6.751122568    6.745714398
    1.750584307    1.452896278    6.741758703    6.736394897
    1.757762938    1.452180269    6.732388439    6.727068820
    1.764941569    1.451463808    6.723011996    6.717736386
    1.772120200    1.450746910    6.713629593    6.708397812
    1.779298831    1.450029592    6.704241446    6.699053316
    1.786477462    1.449311867    6.694847773    6.689703113
    1.793656093    1.448593752    6.685448787    6.680347417
    1.800834725    1.447875260    6.676044703    6.670986441
    1.808013356    1.447156407    6.666635731    6.661620397
    1.815191987    1.446437207    6.657222084    6.652249493
    1.822370618    1.445717675    6.647803969    6.642873940
    1.829549249    1.444997826    6.638381597    6.633493945
    1.836727880    1.444277673    6.628955172    6.624109714
    1.843906511    1.443557232    6.619524901    6.614721452
    1.851085142    1.442836516    6.610090987    6.605329363
    1.858263773    1.442115540    6.600653634    6.595933649
    1.865442404    1.441394318    6.591213042    6.586534510
    1.872621035    1.440672864    6.581769412    6.577132147
    1.879799666    1.439951191    6.572322942    6.567726758
    1.886978297    1.439229314    6.562873830    6.558318540
    1.894156928    1.438507247    6.553422272    6.548907689
    1.901335559    1.437785002    6.543968462    6.539494398
    1.908514190    1.437062594    6.534512594    6.530078862
    1.915692821    1.436340036    6.525054860    6.520661271
    1.922871452    1.435617341    6.515595450    6.511241816
    1.930050083    1.434894523    6.506134554    6.501820687
    1.937228715    1.434171595    6.496672360    6.492398070
    1.944407346    1.433448570    6.487209054    6.482974154
    1.951585977    1.432725461    6.477744822    6.473549121
    1.958764608    1.432002282    6.468279848    6.464123157
    1.965943239    1.431279044    6.458814313    6.454696444
    1.973121870    1.430555761    6.449348401    6.445269162
    1.980300501    1.429832445    6.439882289    6.435841493
    1.987479132    1.429109109    6.430416158    6.426413614
    1.994657763    1.428385766    6.420950184    6.416985702
    2.001836394    1.427662427    6.411484544    6.407557934
    2.009015025    1.426939106    6.402019412    6.398130484
    2.016193656    1.426215815    6.392554961    6.388703526
    2.023372287    1.425492565    6.383091363    6.379277230
    2.030550918    1.424769369    6.373628789    6.369851769
    2.037729549    1.424046239    6.364167409    6.360427310
    2.044908180    1.423323186    6.354707389    6.351004024
    2.052086811    1.422600223    6.345248898    6.341582075
    2.059265442    1.421877361    6.335792100    6.332161629
    2.066444073    1.421154613    6.326337160    6.322742852
    2.073622705    1.420431988    6.316884239    6.313325905
    2.080801336    1.419709500    6.307433501    6.303910950
    2.087979967    1.418987159    6.297985104    6.294498147
    2.095158598    1.418264976    6.288539208    6.285087656
    2.102337229    1.417542964    6.279095970    6.275679633
    2.109515860    1.416821132    6.269655546    6.266274236
    2.116694491    1.416099493    6.260218092    6.256871620
    2.123873122    1.415378056    6.250783761    6.247471938
    2.131051753    1.414656834    6.241352705    6.238075343
    2.138230384    1.413935836    6.231925076    6.228681986
    2.145409015    1.413215073    6.222501024    6.219292018
    2.152587646    1.412494557    6.213080696    6.209905587
    2.159766277    1.411774297    6.203664241    6.200522840
    2.166944908    1.411054304    6.194251803    6.191143925
    2.174123539    1.410334589    6.184843529    6.181768985
    2.181302170    1.409615162    6.175439561    6.172398165
    2.188480801    1.408896032    6.166040042    6.163031607
    2.195659432    1.408177211    6.156645113    6.153669453
    2.202838063    1.407458707    6.147254913    6.144311842
    2.210016694    1.406740532    6.137869581    6.134958913
    2.217195326    1.406022695    6.128489254    6.125610804
    2.224373957    1.405305205    6.119114068    6.116267652
    2.231552588    1.404588073    6.109744158    6.106929590
    2.238731219    1.403871308    6.100379657    6.097596754
    2.245909850    1.403154920    6.091020698    6.088269276
    2.253088481    1.402438918    6.081667411    6.078947287
    2.260267112    1.401723312    6.072319927    6.069630918
    2.267445743    1.401008110    6.062978375    6.060320297
    2.274624374    1.400293323    6.053642881    6.051015553
    2.281803005    1.399578958    6.044313572    6.041716811
    2.288981636    1.398865027    6.034990574    6.032424199
    2.296160267    1.398151536    6.025674009    6.023137839
    2.303338898    1.397438496    6.016364001    6.013857856
    2.310517529    1.396725915    6.007060670    6.004584370
    2.317696160    1.396013801    5.997764138    5.995317503
    2.324874791    1.395302164    5.988474524    5.986057374
    2.332053422    1.394591013    5.979191945    5.976804102
    2.339232053    1.393880355    5.969916518    5.967557805
    2.346410684    1.393170199    5.960648359    5.958318597
    2.353589316    1.392460553    5.951387583    5.949086594
    2.360767947    1.391751426    5.942134302    5.939861910
    2.367946578    1.391042827    5.932888629    5.930644658
    2.375125209    1.390334762    5.923650675    5.921434949
    2.382303840    1.389627240    5.914420550    5.912232894
    2.389482471    1.388920270    5.905198363    5.903038602
    2.396661102    1.388213859    5.895984220    5.893852180
    2.403839733    1.387508014    5.886778230    5.884673737
    2.411018364    1.386802744    5.877580497    5.875503379
    2.418196995    1.386098057    5.868391126    5.866341209
    2.425375626    1.385393960    5.859210219    5.857187332
    2.432554257    1.384690460    5.850037879    5.848041851
    2.439732888    1.383987565    5.840874208    5.838904867
    2.446911519    1.383285282    5.831719304    5.829776480
    2.454090150    1.382583619    5.822573267    5.820656790
    2.461268781    1.381882583    5.813436195    5.811545896
    2.468447412    1.381182181    5.804308183    5.802443895
    2.475626043    1.380482420    5.795189329    5.793350883
    2.482804674    1.379783307    5.786079727    5.784266955
    2.489983306    1.379084850    5.776979470    5.775192205
    2.497161937    1.378387055    5.767888650    5.766126727
    2.504340568    1.377689928    5.758807359    5.757070612
    2.511519199    1.376993477    5.749735688    5.748023952
    2.518697830    1.376297709    5.740673725    5.738986836
    2.525876461    1.375602629    5.731621560    5.729959354
    2.533055092    1.374908244    5.722579280    5.720941593
    2.540233723    1.374214562    5.713546970    5.711933641
