# energy grid [eV]     epsr_x  epsr_y  epsr_z
#
    0.200000000   17.831821699   15.991074713   17.689648415
    0.207178631   17.836064742   15.994805269   17.693932768
    0.214357262   17.840459769   15.998669454   17.698370659
    0.221535893   17.845007030   16.002667487   17.702962346
    0.228714524   17.849706783   16.006799594   17.707708096
    0.235893155   17.854559294   16.011066010   17.712608189
    0.243071786   17.859564838   16.015466978   17.717662910
    0.250250417   17.864723700   16.020002747   17.722872556
    0.257429048   17.870036175   16.024673576   17.728237432
    0.264607679   17.875502563   16.029479731   17.733757853
    0.271786311   17.881123178   16.034421487   17.739434145
    0.278964942   17.886898340   16.039499126   17.745266640
    0.286143573   17.892828379   16.044712939   17.751255683
    0.293322204   17.898913634   16.050063223   17.757401627
    0.300500835   17.905154454   16.055550286   17.763704835
    0.307679466   17.911551198   16.061174442   17.770165680
    0.314858097   17.918104231   16.066936015   17.776784544
    0.322036728   17.924813932   16.072835337   17.783561821
    0.329215359   17.931680687   16.078872748   17.790497912
    0.336393990   17.938704891   16.085048596   17.797593231
    0.343572621   17.945886950   16.091363237   17.804848199
    0.350751252   17.953227279   16.097817038   17.812263250
    0.357929883   17.960726304   16.104410373   17.819838826
    0.365108514   17.968384460   16.111143624   17.827575381
    0.372287145   17.976202190   16.118017183   17.835473378
    0.379465776   17.984179950   16.125031450   17.843533291
    0.386644407   17.992318205   16.132186833   17.851755606
    0.393823038   18.000617429   16.139483753   17.860140816
    0.401001669   18.009078108   16.146922634   17.868689429
    0.408180301   18.017700736   16.154503913   17.877401960
    0.415358932   18.026485820   16.162228036   17.886278936
    0.422537563   18.035433875   16.170095456   17.895320897
    0.429716194   18.044545429   16.178106638   17.904528392
    0.436894825   18.053821017   16.186262053   17.913901980
    0.444073456   18.063261189   16.194562186   17.923442234
    0.451252087   18.072866502   16.203007526   17.933149737
    0.458430718   18.082637526   16.211598576   17.943025082
    0.465609349   18.092574841   16.220335847   17.953068876
    0.472787980   18.102679038   16.229219859   17.963281736
    0.479966611   18.112950720   16.238251142   17.973664292
    0.487145242   18.123390501   16.247430239   17.984217183
    0.494323873   18.133999005   16.256757697   17.994941063
    0.501502504   18.144776869   16.266234079   18.005836596
    0.508681135   18.155724741   16.275859955   18.016904460
    0.515859766   18.166843280   16.285635906   18.028145343
    0.523038397   18.178133157   16.295562523   18.039559947
    0.530217028   18.189595056   16.305640407   18.051148986
    0.537395659   18.201229671   16.315870172   18.062913187
    0.544574290   18.213037709   16.326252439   18.074853289
    0.551752922   18.225019891   16.336787843   18.086970043
    0.558931553   18.237176946   16.347477028   18.099264216
    0.566110184   18.249509620   16.358320650   18.111736584
    0.573288815   18.262018668   16.369319375   18.124387941
    0.580467446   18.274704860   16.380473882   18.137219090
    0.587646077   18.287568979   16.391784858   18.150230850
    0.594824708   18.300611818   16.403253006   18.163424053
    0.602003339   18.313834186   16.414879036   18.176799546
    0.609181970   18.327236904   16.426663673   18.190358187
    0.616360601   18.340820807   16.438607653   18.204100851
    0.623539232   18.354586743   16.450711722   18.218028426
    0.630717863   18.368535574   16.462976641   18.232141814
    0.637896494   18.382668176   16.475403181   18.246441934
    0.645075125   18.396985439   16.487992126   18.260929718
    0.652253756   18.411488267   16.500744273   18.275606111
    0.659432387   18.426177578   16.513660431   18.290472077
    0.666611018   18.441054304   16.526741422   18.305528592
    0.673789649   18.456119381   16.539988081   18.320776651
    0.680968280   18.471373733   16.553401255   18.336217260
    0.688146912   18.486818258   16.566981805   18.351851446
    0.695325543   18.502453994   16.580730606   18.367680247
    0.702504174   18.518282141   16.594648547   18.383704721
    0.709682805   18.534303701   16.608736528   18.399925941
    0.716861436   18.550519639   16.622995465   18.416344997
    0.724040067   18.566930984   16.637426288   18.432962994
    0.731218698   18.583538799   16.652029940   18.449781058
    0.738397329   18.600344171   16.666807379   18.466800328
    0.745575960   18.617348202   16.681759578   18.484021963
    0.752754591   18.634552013   16.696887523   18.501447139
    0.759933222   18.651956738   16.712192217   18.519077051
    0.767111853   18.669563533   16.727674677   18.536912909
    0.774290484   18.687373562   16.743335936   18.554955946
    0.781469115   18.705387996   16.759177041   18.573207409
    0.788647746   18.723607988   16.775199057   18.591668566
    0.795826377   18.742034728   16.791403062   18.610340704
    0.803005008   18.760669595   16.807790153   18.629225132
    0.810183639   18.779513912   16.824361441   18.648323177
    0.817362270   18.798568896   16.841118056   18.667636185
    0.824540902   18.817835807   16.858061142   18.687165522
    0.831719533   18.837315953   16.875191861   18.706912574
    0.838898164   18.857010668   16.892511394   18.726878749
    0.846076795   18.876921306   16.910020936   18.747065478
    0.853255426   18.897049242   16.927721702   18.767474208
    0.860434057   18.917395870   16.945614926   18.788106408
    0.867612688   18.937962606   16.963701856   18.808963565
    0.874791319   18.958750885   16.981983763   18.830047197
    0.881969950   18.979762164   17.000461934   18.851358862
    0.889148581   19.000997922   17.019137678   18.872900124
    0.896327212   19.022459656   17.038012320   18.894672559
    0.903505843   19.044148889   17.057087205   18.916677775
    0.910684474   19.066067164   17.076363699   18.938917402
    0.917863105   19.088216047   17.095843186   18.961393097
    0.925041736   19.110597125   17.115527069   18.984106539
    0.932220367   19.133212012   17.135416765   19.007059423
    0.939398998   19.156062341   17.155513707   19.030253470
    0.946577629   19.179149773   17.175819392   19.053690465
    0.953756260   19.202475992   17.196335335   19.077372218
    0.960934891   19.226042704   17.217063035   19.101300526
    0.968113523   19.249851643   17.238004008   19.125477214
    0.975292154   19.273904567   17.259159798   19.149904137
    0.982470785   19.298203259   17.280531976   19.174583171
    0.989649416   19.322749525   17.302122159   19.199516243
    0.996828047   19.347545194   17.323932014   19.224705350
    1.004006678   19.372592121   17.345963189   19.250152470
    1.011185309   19.397892221   17.368217341   19.275859594
    1.018363940   19.423447426   17.390696164   19.301828757
    1.025542571   19.449259668   17.413401382   19.328062028
    1.032721202   19.475330913   17.436334744   19.354561505
    1.039899833   19.501663167   17.459498029   19.381329325
    1.047078464   19.528258467   17.482893040   19.408367652
    1.054257095   19.555118874   17.506521608   19.435678685
    1.061435726   19.582246481   17.530385590   19.463264654
    1.068614357   19.609643412   17.554486871   19.491127825
    1.075792988   19.637311822   17.578827364   19.519270498
    1.082971619   19.665253900   17.603409011   19.547695006
    1.090150250   19.693471865   17.628233783   19.576403720
    1.097328881   19.721967970   17.653303681   19.605399046
    1.104507513   19.750744500   17.678620734   19.634683427
    1.111686144   19.779803768   17.704187005   19.664259342
    1.118864775   19.809148115   17.730004586   19.694129308
    1.126043406   19.838779948   17.756075600   19.724295885
    1.133222037   19.868701713   17.782402203   19.754761673
    1.140400668   19.898915869   17.808986586   19.785529307
    1.147579299   19.929424915   17.835830968   19.816601465
    1.154757930   19.960231377   17.862937608   19.847980863
    1.161936561   19.991337818   17.890308794   19.879670262
    1.169115192   20.022746848   17.917946853   19.911672462
    1.176293823   20.054461148   17.945854145   19.943990305
    1.183472454   20.086483413   17.974033069   19.976626672
    1.190651085   20.118816371   18.002486059   20.009584529
    1.197829716   20.151462795   18.031215585   20.042866881
    1.205008347   20.184425502   18.060224152   20.076476747
    1.212186978   20.217707352   18.089514301   20.110417197
    1.219365609   20.251311251   18.119088630   20.144691355
    1.226544240   20.285240151   18.148949789   20.179302402
    1.233722871   20.319497043   18.179100444   20.214253564
    1.240901503   20.354084968   18.209543299   20.249548124
    1.248080134   20.389007028   18.240281108   20.285189413
    1.255258765   20.424266362   18.271316668   20.321180820
    1.262437396   20.459866152   18.302652823   20.357525786
    1.269616027   20.495809633   18.334292460   20.394227809
    1.276794658   20.532100090   18.366238515   20.431290441
    1.283973289   20.568740862   18.398493966   20.468717296
    1.291151920   20.605735342   18.431061844   20.506512045
    1.298330551   20.643086973   18.463945226   20.544678418
    1.305509182   20.680799254   18.497147239   20.583220209
    1.312687813   20.718875742   18.530671060   20.622141272
    1.319866444   20.757320048   18.564519918   20.661445527
    1.327045075   20.796135841   18.598697095   20.701136958
    1.334223706   20.835326850   18.633205927   20.741219615
    1.341402337   20.874896864   18.668049803   20.781697618
    1.348580968   20.914849731   18.703232168   20.822575153
    1.355759599   20.955189363   18.738756526   20.863856480
    1.362938230   20.995919737   18.774626436   20.905545927
    1.370116861   21.037044891   18.810845519   20.947647900
    1.377295492   21.078568934   18.847417455   20.990166877
    1.384474124   21.120496037   18.884345984   21.033107413
    1.391652755   21.162830445   18.921634913   21.076474142
    1.398831386   21.205576470   18.959288108   21.120271778
    1.406010017   21.248738497   18.997309506   21.164505117
    1.413188648   21.292320981   19.035703105   21.209179036
    1.420367279   21.336328456   19.074472977   21.254298499
    1.427545910   21.380765526   19.113623260   21.299868558
    1.434724541   21.425636879   19.153158164   21.345894350
    1.441903172   21.470947280   19.193081971   21.392381108
    1.449081803   21.516701572   19.233399040   21.439334153
    1.456260434   21.562904687   19.274113803   21.486758903
    1.463439065   21.609561635   19.315230771   21.534660874
    1.470617696   21.656677514   19.356754532   21.583045679
    1.477796327   21.704257507   19.398689759   21.631919033
    1.484974958   21.752306893   19.441041203   21.681286754
    1.492153589   21.800831038   19.483813703   21.731154768
    1.499332220   21.849835404   19.527012183   21.781529108
    1.506510851   21.899325546   19.570641655   21.832415916
    1.513689482   21.949307118   19.614707222   21.883821450
    1.520868114   21.999785873   19.659214079   21.935752083
    1.528046745   22.050767667   19.704167517   21.988214307
    1.535225376   22.102258461   19.749572921   22.041214735
    1.542404007   22.154264321   19.795435777   22.094760105
    1.549582638   22.206791422   19.841761671   22.148857281
    1.556761269   22.259846052   19.888556290   22.203513258
    1.563939900   22.313434611   19.935825418   22.258735164
    1.571118531   22.367563616   19.983574920   22.314530259
    1.578297162   22.422239702   20.031810762   22.370905942
    1.585475793   22.477469629   20.080539172   22.427869774
    1.592654424   22.533260283   20.129766487   22.485429461
    1.599833055   22.589618674   20.179499020   22.543592844
    1.607011686   22.646551941   20.229743220   22.602367918
    1.614190317   22.704067361   20.280505685   22.661762840
    1.621368948   22.762172345   20.331793152   22.721785931
    1.628547579   22.820874444   20.383612491   22.782445678
    1.635726210   22.880181355   20.435970704   22.843750739
    1.642904841   22.940100920   20.488874934   22.905709947
    1.650083472   23.000641133   20.542332464   22.968332315
    1.657262104   23.061810142   20.596350722   23.031627039
    1.664440735   23.123616253   20.650937283   23.095603508
    1.671619366   23.186067936   20.706099877   23.160271303
    1.678797997   23.249173824   20.761846389   23.225640206
    1.685976628   23.312942719   20.818184865   23.291720204
    1.693155259   23.377383569   20.875123512   23.358521483
    1.700333890   23.442505429   20.932670704   23.426054408
    1.707512521   23.508317447   20.990834966   23.494329465
    1.714691152   23.574829074   21.049624953   23.563357158
    1.721869783   23.642050207   21.109049496   23.633148224
    1.729048414   23.709991270   21.169117871   23.703714925
    1.736227045   23.778662389   21.229839442   23.775069330
    1.743405676   23.848073369   21.291223450   23.847222276
    1.750584307   23.918234574   21.353279582   23.920185709
    1.757762938   23.989157319   21.416018117   23.993973134
    1.764941569   24.060852705   21.479449186   24.068597236
    1.772120200   24.133331709   21.543582967   24.144070478
    1.779298831   24.206605554   21.608429950   24.220405827
    1.786477462   24.280685664   21.674000897   24.297616671
    1.793656093   24.355584084   21.740306832   24.375716808
    1.800834725   24.431313508   21.807359008   24.454720402
    1.808013356   24.507886255   21.875168867   24.534641906
    1.815191987   24.585314809   21.943748055   24.615496127
    1.822370618   24.663612068   22.013108026   24.697297899
    1.829549249   24.742791295   22.083261391   24.780062470
    1.836727880   24.822866174   22.154222177   24.863805742
    1.843906511   24.903850697   22.226002724   24.948544374
    1.851085142   24.985759001   22.298615167   25.034295115
    1.858263773   25.068605491   22.372073873   25.121074572
    1.865442404   25.152405348   22.446393640   25.208900716
    1.872621035   25.237174077   22.521588182   25.297792287
    1.879799666   25.322926982   22.597671590   25.387767209
    1.886978297   25.409679734   22.674658657   25.478843734
    1.894156928   25.497448485   22.752564590   25.571040843
    1.901335559   25.586249704   22.831404959   25.664378009
    1.908514190   25.676100266   22.911195761   25.758875272
    1.915692821   25.767017983   22.991953442   25.854554079
    1.922871452   25.859020999   23.073694840   25.951436241
    1.930050083   25.952127340   23.156437143   26.049543140
    1.937228715   26.046355355   23.240197903   26.148896564
    1.944407346   26.141724014   23.324995004   26.249519285
    1.951585977   26.238253378   23.410846665   26.351435846
    1.958764608   26.335963791   23.497772094   26.454670757
    1.965943239   26.434876164   23.585792126   26.559248637
    1.973121870   26.535011517   23.674926880   26.665194960
    1.980300501   26.636391206   23.765196449   26.772536241
    1.987479132   26.739037342   23.856621694   26.881299338
    1.994657763   26.842972919   23.949224162   26.991511897
    2.001836394   26.948221110   24.043025748   27.103202502
    2.009015025   27.054805819   24.138049565   27.216400547
    2.016193656   27.162752307   24.234320527   27.331136403
    2.023372287   27.272085918   24.331862888   27.447441111
    2.030550918   27.382832219   24.430701176   27.565346641
    2.037729549   27.495017641   24.530860913   27.684885970
    2.044908180   27.608669768   24.632368266   27.806093325
    2.052086811   27.723816639   24.735249930   27.929003616
    2.059265442   27.840487103   24.839533950   28.053652609
    2.066444073   27.958711267   24.945249986   28.180077382
    2.073622705   28.078519434   25.052427282   28.308315770
    2.080801336   28.199942653   25.161095940   28.438407517
    2.087979967   28.323013172   25.271287620   28.570393975
    2.095158598   28.447764731   25.383035465   28.704317184
    2.102337229   28.574231782   25.496373308   28.840220305
    2.109515860   28.702448972   25.611335126   28.978147690
    2.116694491   28.832451861   25.727956162   29.118145159
    2.123873122   28.964277888   25.846273071   29.260260550
    2.131051753   29.097966463   25.966323794   29.404543733
    2.138230384   29.233556874   26.088147358   29.551045564
    2.145409015   29.371088955   26.211783899   29.699818495
    2.152587646   29.510604224   26.337274983   29.850916909
    2.159766277   29.652147251   26.464664369   30.004397181
    2.166944908   29.795762839   26.593996681   30.160317617
    2.174123539   29.941495888   26.725317366   30.318738535
    2.181302170   30.089394729   26.858674618   30.479722558
    2.188480801   30.239509122   26.994118570   30.643334573
    2.195659432   30.391888981   27.131700072   30.809641679
    2.202838063   30.546586775   27.271471715   30.978713516
    2.210016694   30.703656448   27.413488046   31.150622140
    2.217195326   30.863153219   27.557805635   31.325442216
    2.224373957   31.025135452   27.704484013   31.503252126
    2.231552588   31.189663625   27.853584869   31.684133232
    2.238731219   31.356799098   28.005171088   31.868169030
    2.245909850   31.526605297   28.159307793   32.055446285
    2.253088481   31.699148375   28.316064035   32.246056139
    2.260267112   31.874497198   28.475512283   32.440093746
    2.267445743   32.052722771   28.637726218   32.637657431
    2.274624374   32.233899473   28.802782530   32.838849821
    2.281803005   32.418104105   28.970761247   33.043777615
    2.288981636   32.605415583   29.141745700   33.252551978
    2.296160267   32.795915990   29.315822791   33.465289030
    2.303338898   32.989690691   29.493083138   33.682110057
    2.310517529   33.186828243   29.673621212   33.903141693
    2.317696160   33.387420577   29.857535542   34.128516250
    2.324874791   33.591563686   30.044928893   34.358372043
    2.332053422   33.799357389   30.235908391   34.592853592
    2.339232053   34.010906686   30.430586828   34.832112252
    2.346410684   34.226320300   30.629082701   35.076307279
    2.353589316   34.445709943   30.831519224   35.325605543
    2.360767947   34.669192996   31.038025257   35.580181248
    2.367946578   34.896892319   31.248736174   35.840217294
    2.375125209   35.128936170   31.463793971   36.105906526
    2.382303840   35.365458472   31.683347766   36.377451687
    2.389482471   35.606598598   31.907553747   36.655065379
    2.396661102   35.852502414   32.136576246   36.938971527
    2.403839733   36.103322631   32.370588291   37.229406220
    2.411018364   36.359219164   32.609772075   37.526618473
    2.418196995   36.620359691   32.854319756   37.830871166
    2.425375626   36.886920154   33.104434328   38.142442048
    2.432554257   37.159084966   33.360329810   38.461624661
    2.439732888   37.437047670   33.622232161   38.788729607
    2.446911519   37.721011585   33.890380619   39.124086266
    2.454090150   38.011190214   34.165028595   39.468043732
    2.461268781   38.307808647   34.446444485   39.820972423
    2.468447412   38.611105630   34.734914160   40.183267006
    2.475626043   38.921332501   35.030741494   40.555347206
    2.482804674   39.238753089   35.334248494   40.937659687
    2.489983306   39.563646395   35.645778167   41.330680775
    2.497161937   39.896308347   35.965696591   41.734918929
    2.504340568   40.237051703   36.294393979   42.150916930
    2.511519199   40.586207793   36.632286441   42.579254758
    2.518697830   40.944128642   36.979821474   43.020557167
    2.525876461   41.311188565   37.337484183   43.475500321
    2.533055092   41.687784974   37.705792110   43.944806616
    2.540233723   42.074341828   38.085298289   44.429250924
