# energy grid [eV]     epsr_x  epsr_y  epsr_z
#
    0.200000000   12.032834393   14.453530620   14.329131500
    0.207178631   12.035334826   14.456752116   14.332173246
    0.214357262   12.037924700   14.460088939   14.335323811
    0.221535893   12.040604149   14.463541269   14.338583360
    0.228714524   12.043373311   14.467109295   14.341952064
    0.235893155   12.046232329   14.470793212   14.345430098
    0.243071786   12.049181351   14.474593222   14.349017643
    0.250250417   12.052220529   14.478509531   14.352714889
    0.257429048   12.055350021   14.482542356   14.356522027
    0.264607679   12.058569989   14.486691916   14.360439259
    0.271786311   12.061880601   14.490958440   14.364466789
    0.278964942   12.065282029   14.495342162   14.368604829
    0.286143573   12.068774449   14.499843323   14.372853596
    0.293322204   12.072358044   14.504462170   14.377213315
    0.300500835   12.076032999   14.509198960   14.381684215
    0.307679466   12.079799508   14.514053952   14.386266531
    0.314858097   12.083657767   14.519027416   14.390960507
    0.322036728   12.087607978   14.524119627   14.395766389
    0.329215359   12.091650347   14.529330867   14.400684434
    0.336393990   12.095785088   14.534661424   14.405714901
    0.343572621   12.100012416   14.540111596   14.410858058
    0.350751252   12.104332555   14.545681685   14.416114178
    0.357929883   12.108745731   14.551372002   14.421483540
    0.365108514   12.113252179   14.557182864   14.426966432
    0.372287145   12.117852135   14.563114596   14.432563146
    0.379465776   12.122545843   14.569167530   14.438273982
    0.386644407   12.127333551   14.575342006   14.444099244
    0.393823038   12.132215514   14.581638369   14.450039245
    0.401001669   12.137191990   14.588056975   14.456094306
    0.408180301   12.142263246   14.594598184   14.462264750
    0.415358932   12.147429550   14.601262366   14.468550911
    0.422537563   12.152691179   14.608049897   14.474953129
    0.429716194   12.158048413   14.614961161   14.481471748
    0.436894825   12.163501541   14.621996552   14.488107123
    0.444073456   12.169050854   14.629156467   14.494859613
    0.451252087   12.174696650   14.636441316   14.501729585
    0.458430718   12.180439234   14.643851512   14.508717413
    0.465609349   12.186278915   14.651387481   14.515823479
    0.472787980   12.192216008   14.659049652   14.523048170
    0.479966611   12.198250836   14.666838466   14.530391882
    0.487145242   12.204383724   14.674754370   14.537855018
    0.494323873   12.210615007   14.682797820   14.545437987
    0.501502504   12.216945024   14.690969279   14.553141209
    0.508681135   12.223374119   14.699269222   14.560965106
    0.515859766   12.229902644   14.707698128   14.568910113
    0.523038397   12.236530957   14.716256487   14.576976669
    0.530217028   12.243259421   14.724944797   14.585165222
    0.537395659   12.250088406   14.733763564   14.593476227
    0.544574290   12.257018289   14.742713305   14.601910148
    0.551752922   12.264049451   14.751794543   14.610467456
    0.558931553   12.271182283   14.761007812   14.619148630
    0.566110184   12.278417180   14.770353654   14.627954157
    0.573288815   12.285754543   14.779832620   14.636884533
    0.580467446   12.293194782   14.789445271   14.645940261
    0.587646077   12.300738312   14.799192177   14.655121852
    0.594824708   12.308385555   14.809073917   14.664429827
    0.602003339   12.316136940   14.819091079   14.673864715
    0.609181970   12.323992903   14.829244262   14.683427051
    0.616360601   12.331953886   14.839534074   14.693117383
    0.623539232   12.340020340   14.849961132   14.702936263
    0.630717863   12.348192721   14.860526064   14.712884255
    0.637896494   12.356471493   14.871229508   14.722961931
    0.645075125   12.364857128   14.882072111   14.733169872
    0.652253756   12.373350104   14.893054530   14.743508666
    0.659432387   12.381950908   14.904177435   14.753978914
    0.666611018   12.390660031   14.915441504   14.764581224
    0.673789649   12.399477976   14.926847426   14.775316213
    0.680968280   12.408405250   14.938395900   14.786184508
    0.688146912   12.417442371   14.950087637   14.797186745
    0.695325543   12.426589862   14.961923359   14.808323571
    0.702504174   12.435848255   14.973903799   14.819595642
    0.709682805   12.445218089   14.986029699   14.831003623
    0.716861436   12.454699914   14.998301815   14.842548190
    0.724040067   12.464294284   15.010720913   14.854230029
    0.731218698   12.474001764   15.023287772   14.866049837
    0.738397329   12.483822927   15.036003180   14.878008318
    0.745575960   12.493758354   15.048867940   14.890106191
    0.752754591   12.503808633   15.061882865   14.902344183
    0.759933222   12.513974364   15.075048780   14.914723032
    0.767111853   12.524256154   15.088366524   14.927243486
    0.774290484   12.534654617   15.101836947   14.939906305
    0.781469115   12.545170378   15.115460911   14.952712262
    0.788647746   12.555804072   15.129239294   14.965662136
    0.795826377   12.566556341   15.143172982   14.978756724
    0.803005008   12.577427836   15.157262879   14.991996828
    0.810183639   12.588419220   15.171509899   15.005383266
    0.817362270   12.599531164   15.185914971   15.018916867
    0.824540902   12.610764347   15.200479036   15.032598471
    0.831719533   12.622119461   15.215203050   15.046428931
    0.838898164   12.633597204   15.230087984   15.060409110
    0.846076795   12.645198288   15.245134821   15.074539888
    0.853255426   12.656923433   15.260344559   15.088822152
    0.860434057   12.668773369   15.275718212   15.103256807
    0.867612688   12.680748836   15.291256807   15.117844767
    0.874791319   12.692850586   15.306961387   15.132586961
    0.881969950   12.705079382   15.322833009   15.147484331
    0.889148581   12.717435996   15.338872746   15.162537832
    0.896327212   12.729921211   15.355081687   15.177748435
    0.903505843   12.742535822   15.371460936   15.193117120
    0.910684474   12.755280635   15.388011614   15.208644883
    0.917863105   12.768156464   15.404734857   15.224332725
    0.925041736   12.781164128   15.421631817   15.240181640
    0.932220367   12.794304462   15.438703663   15.256192649
    0.939398998   12.807578343   15.455951585   15.272366888
    0.946577629   12.820986648   15.473376788   15.288705463
    0.953756260   12.834530240   15.490980492   15.305209421
    0.960934891   12.848210004   15.508763936   15.321879844
    0.968113523   12.862026838   15.526728376   15.338717842
    0.975292154   12.875981657   15.544875089   15.355724545
    0.982470785   12.890075387   15.563205367   15.372901102
    0.989649416   12.904308969   15.581720524   15.390248676
    0.996828047   12.918683356   15.600421891   15.407768448
    1.004006678   12.933199515   15.619310820   15.425461616
    1.011185309   12.947858426   15.638388681   15.443329393
    1.018363940   12.962661083   15.657656864   15.461373012
    1.025542571   12.977608494   15.677116782   15.479593721
    1.032721202   12.992701682   15.696769864   15.497992788
    1.039899833   13.007941683   15.716617565   15.516571497
    1.047078464   13.023329550   15.736661358   15.535331152
    1.054257095   13.038866349   15.756902738   15.554273075
    1.061435726   13.054553161   15.777343223   15.573398606
    1.068614357   13.070391083   15.797984353   15.592709108
    1.075792988   13.086381229   15.818827689   15.612205958
    1.082971619   13.102524725   15.839874816   15.631890556
    1.090150250   13.118822716   15.861127342   15.651764321
    1.097328881   13.135276356   15.882586889   15.671828683
    1.104507513   13.151886808   15.904255089   15.692085083
    1.111686144   13.168655264   15.926133622   15.712535000
    1.118864775   13.185582975   15.948224258   15.733179995
    1.126043406   13.202671176   15.970528736   15.754021601
    1.133222037   13.219921096   15.993048788   15.775061344
    1.140400668   13.237333994   16.015786187   15.796300782
    1.147579299   13.254911150   16.038742739   15.817741507
    1.154757930   13.272653864   16.061920282   15.839385133
    1.161936561   13.290563456   16.085320679   15.861233301
    1.169115192   13.308641265   16.108945825   15.883287674
    1.176293823   13.326888649   16.132797640   15.905549941
    1.183472454   13.345306984   16.156878072   15.928021814
    1.190651085   13.363897662   16.181189097   15.950705030
    1.197829716   13.382662094   16.205732719   15.973601352
    1.205008347   13.401601736   16.230510992   15.996712572
    1.212186978   13.420718061   16.255525996   16.020040506
    1.219365609   13.440012542   16.280779829   16.043586990
    1.226544240   13.459486677   16.306274621   16.067353903
    1.233722871   13.479141991   16.332012540   16.091343151
    1.240901503   13.498980031   16.357995787   16.115556659
    1.248080134   13.519002368   16.384226598   16.139996380
    1.255258765   13.539210598   16.410707243   16.164664299
    1.262437396   13.559606337   16.437440027   16.189562430
    1.269616027   13.580191230   16.464427293   16.214692821
    1.276794658   13.600966942   16.491671418   16.240057549
    1.283973289   13.621935166   16.519174818   16.265658723
    1.291151920   13.643097619   16.546939947   16.291498485
    1.298330551   13.664456045   16.574969295   16.317579008
    1.305509182   13.686012214   16.603265396   16.343902500
    1.312687813   13.707767922   16.631830821   16.370471203
    1.319866444   13.729724993   16.660668183   16.397287393
    1.327045075   13.751885280   16.689780135   16.424353381
    1.334223706   13.774250663   16.719169376   16.451671514
    1.341402337   13.796823051   16.748838646   16.479244178
    1.348580968   13.819604383   16.778790730   16.507073793
    1.355759599   13.842596627   16.809028456   16.535162819
    1.362938230   13.865801782   16.839554703   16.563513754
    1.370116861   13.889221880   16.870372392   16.592129135
    1.377295492   13.912858982   16.901484493   16.621011541
    1.384474124   13.936715182   16.932894028   16.650163590
    1.391652755   13.960792608   16.964604063   16.679587941
    1.398831386   13.985093420   16.996617720   16.709287297
    1.406010017   14.009619813   17.028938172   16.739264409
    1.413188648   14.034374019   17.061568644   16.769522069
    1.420367279   14.059358301   17.094512414   16.800063115
    1.427545910   14.084574963   17.127772818   16.830890427
    1.434724541   14.110026343   17.161353245   16.862006935
    1.441903172   14.135714817   17.195257144   16.893415617
    1.449081803   14.161642801   17.229488022   16.925119500
    1.456260434   14.187812747   17.264049443   16.957121662
    1.463439065   14.214227142   17.298945031   16.989425227
    1.470617696   14.240888501   17.334178454   17.022033366
    1.477796327   14.267799376   17.369753450   17.054949287
    1.484974958   14.294962439   17.405673890   17.088176268
    1.492153589   14.322380391   17.441943695   17.121717696
    1.499332220   14.350055925   17.478566795   17.155577025
    1.506510851   14.377991774   17.515547199   17.189757693
    1.513689482   14.406190727   17.552888998   17.224263189
    1.520868114   14.434655626   17.590596359   17.259097082
    1.528046745   14.463389364   17.628673523   17.294263010
    1.535225376   14.492394882   17.667124810   17.329764674
    1.542404007   14.521675167   17.705954610   17.365605838
    1.549582638   14.551233258   17.745167392   17.401790331
    1.556761269   14.581072259   17.784767726   17.438322057
    1.563939900   14.611195334   17.824760266   17.475204986
    1.571118531   14.641605680   17.865149733   17.512443156
    1.578297162   14.672306552   17.905940935   17.550040674
    1.585475793   14.703301265   17.947138772   17.588001722
    1.592654424   14.734593194   17.988748239   17.626330558
    1.599833055   14.766185773   18.030774422   17.665031518
    1.607011686   14.798082497   18.073222506   17.704109015
    1.614190317   14.830286925   18.116097772   17.743567542
    1.621368948   14.862802677   18.159405602   17.783411678
    1.628547579   14.895633441   18.203151482   17.823646081
    1.635726210   14.928782971   18.247341002   17.864275500
    1.642904841   14.962255087   18.291979861   17.905304770
    1.650083472   14.996053681   18.337073868   17.946738816
    1.657262104   15.030182717   18.382628946   17.988582654
    1.664440735   15.064646228   18.428651129   18.030841393
    1.671619366   15.099448320   18.475146557   18.073520219
    1.678797997   15.134593176   18.522121497   18.116624426
    1.685976628   15.170085076   18.569582403   18.160159481
    1.693155259   15.205928372   18.617535838   18.204130931
    1.700333890   15.242127464   18.665988440   18.248544360
    1.707512521   15.278686818   18.714946988   18.293405459
    1.714691152   15.315611062   18.764418428   18.338720086
    1.721869783   15.352904985   18.814409876   18.384494266
    1.729048414   15.390573352   18.864928558   18.430734067
    1.736227045   15.428620998   18.915981847   18.477445670
    1.743405676   15.467052875   18.967577276   18.524635390
    1.750584307   15.505874048   19.019722539   18.572309677
    1.757762938   15.545089679   19.072425487   18.620475105
    1.764941569   15.584705038   19.125694134   18.669138375
    1.772120200   15.624725499   19.179536690   18.718306365
    1.779298831   15.665156544   19.233961565   18.767986114
    1.786477462   15.706003767   19.288977312   18.818184759
    1.793656093   15.747272874   19.344592665   18.868909579
    1.800834725   15.788969690   19.400816560   18.920168021
    1.808013356   15.831100159   19.457658132   18.971967689
    1.815191987   15.873670348   19.515126724   19.024316355
    1.822370618   15.916686451   19.573231886   19.077221956
    1.829549249   15.960154791   19.631983385   19.130692598
    1.836727880   16.004081820   19.691391207   19.184736564
    1.843906511   16.048474136   19.751465562   19.239362324
    1.851085142   16.093338492   19.812216885   19.294578546
    1.858263773   16.138681770   19.873655875   19.350394077
    1.865442404   16.184510997   19.935793548   19.406817963
    1.872621035   16.230833356   19.998641121   19.463859453
    1.879799666   16.277656192   20.062210044   19.521528010
    1.886978297   16.324987012   20.126512055   19.579833310
    1.894156928   16.372833489   20.191559189   19.638785259
    1.901335559   16.421203472   20.257363773   19.698393989
    1.908514190   16.470104985   20.323938440   19.758669871
    1.915692821   16.519546235   20.391296125   19.819623512
    1.922871452   16.569535618   20.459450058   19.881265741
    1.930050083   16.620081719   20.528413745   19.943607579
    1.937228715   16.671193323   20.598201038   20.006660304
    1.944407346   16.722879419   20.668825996   20.070435565
    1.951585977   16.775149216   20.740303005   20.134945622
    1.958764608   16.828012173   20.812648077   20.200203046
    1.965943239   16.881477949   20.885877127   20.266220294
    1.973121870   16.935556382   20.960005451   20.333009998
    1.980300501   16.990257472   21.035048780   20.400585041
    1.987479132   17.045591449   21.111023404   20.468958344
    1.994657763   17.101569197   21.187946931   20.538143731
    2.001836394   17.158201890   21.265837620   20.608156959
    2.009015025   17.215500592   21.344713408   20.679013002
    2.016193656   17.273476673   21.424592700   20.750726258
    2.023372287   17.332141865   21.505494562   20.823311843
    2.030550918   17.391508187   21.587438560   20.896785468
    2.037729549   17.451587983   21.670444856   20.971163343
    2.044908180   17.512393937   21.754534194   21.046462133
    2.052086811   17.573939070   21.839727801   21.122698923
    2.059265442   17.636236750   21.926047160   21.199891131
    2.066444073   17.699300703   22.013514358   21.278056664
    2.073622705   17.763145021   22.102153786   21.357214614
    2.080801336   17.827784182   22.191990123   21.437384450
    2.087979967   17.893233097   22.283048136   21.518585753
    2.095158598   17.959507088   22.375353480   21.600838744
    2.102337229   18.026621872   22.468932018   21.684164196
    2.109515860   18.094593574   22.563810605   21.768583548
    2.116694491   18.163438654   22.660017129   21.854118898
    2.123873122   18.233173754   22.757580394   21.940792966
    2.131051753   18.303816434   22.856530179   22.028629224
    2.138230384   18.375386089   22.956897324   22.117652042
    2.145409015   18.447901557   23.058713504   22.207886344
    2.152587646   18.521381390   23.162011320   22.299358004
    2.159766277   18.595844829   23.266824467   22.392093697
    2.166944908   18.671312127   23.373187980   22.486120771
    2.174123539   18.747805414   23.481139057   22.581467754
    2.181302170   18.825346762   23.590715474   22.678163999
    2.188480801   18.903958102   23.701955581   22.776239649
    2.195659432   18.983662261   23.814899362   22.875725934
    2.202838063   19.064482712   23.929588305   22.976655145
    2.210016694   19.146443707   24.046065512   23.079060685
    2.217195326   19.229571425   24.164375879   23.182977237
    2.224373957   19.313892853   24.284565963   23.288440800
    2.231552588   19.399435081   24.406683997   23.395488757
    2.238731219   19.486225963   24.530779822   23.504159575
    2.245909850   19.574294357   24.656905109   23.614493047
    2.253088481   19.663670162   24.785113561   23.726530506
    2.260267112   19.754384291   24.915461437   23.840314854
    2.267445743   19.846468495   25.048007239   23.955890593
    2.274624374   19.939956910   25.182811574   24.073304188
    2.281803005   20.034885758   25.319937662   24.192604067
    2.288981636   20.131290640   25.459451139   24.313840206
    2.296160267   20.229208305   25.601420406   24.437064561
    2.303338898   20.328677354   25.745916865   24.562331287
    2.310517529   20.429738054   25.893015038   24.689696800
    2.317696160   20.532432250   26.042792695   24.819219891
    2.324874791   20.636803443   26.195331040   24.950961825
    2.332053422   20.742896880   26.350714842   25.084986490
    2.339232053   20.850759653   26.509032744   25.221360696
    2.346410684   20.960440833   26.670377841   25.360154265
    2.353589316   21.071991531   26.834847837   25.501440097
    2.360767947   21.185464829   27.002544493   25.645294153
    2.367946578   21.300916260   27.173574438   25.791795770
    2.375125209   21.418404267   27.348049851   25.941028654
    2.382303840   21.537989620   27.526088492   26.093081059
    2.389482471   21.659735551   27.707814125   26.248044898
    2.396661102   21.783708311   27.893357068   26.406016693
    2.403839733   21.909977155   28.082854190   26.567097463
    2.411018364   22.038614527   28.276449537   26.731393202
    2.418196995   22.169696299   28.474294954   26.899015403
    2.425375626   22.303302619   28.676551195   27.070082822
    2.432554257   22.439517879   28.883388261   27.244721176
    2.439732888   22.578430101   29.094985281   27.423061381
    2.446911519   22.720131654   29.311531675   27.605241250
    2.454090150   22.864719587   29.533227978   27.791406034
    2.461268781   23.012296171   29.760286658   27.981710885
    2.468447412   23.162969728   29.992933059   28.176323842
    2.475626043   23.316854763   30.231407214   28.375420017
    2.482804674   23.474072235   30.475966059   28.579183696
    2.489983306   23.634750082   30.726882358   28.787811820
    2.497161937   23.799024915   30.984447251   29.001514413
    2.504340568   23.967039649   31.248970039   29.220515303
    2.511519199   24.138945338   31.520780991   29.445053565
    2.518697830   24.314902637   31.800233955   29.675384873
    2.525876461   24.495082540   32.087708422   29.911783020
    2.533055092   24.679669233   32.383613426   30.154541736
    2.540233723   24.868859188   32.688388749   30.403976439
