# energy grid [eV]     epsr_x  epsr_y  epsr_z
#
    0.200000000   11.478294765   15.056434598   14.159083708
    0.207178631   11.480680455   15.059868637   14.162177138
    0.214357262   11.483151496   15.063425662   14.165381297
    0.221535893   11.485708018   15.067105873   14.168696359
    0.228714524   11.488350153   15.070909475   14.172122502
    0.235893155   11.491078039   15.074836682   14.175659913
    0.243071786   11.493891821   15.078887715   14.179308783
    0.250250417   11.496791644   15.083062802   14.183069310
    0.257429048   11.499777661   15.087362178   14.186941700
    0.264607679   11.502850029   15.091786085   14.190926162
    0.271786311   11.506008909   15.096334774   14.195022913
    0.278964942   11.509254468   15.101008500   14.199232178
    0.286143573   11.512586876   15.105807529   14.203554186
    0.293322204   11.516006309   15.110732131   14.207989173
    0.300500835   11.519512948   15.115782588   14.212537381
    0.307679466   11.523106978   15.120959184   14.217199061
    0.314858097   11.526788589   15.126262215   14.221974468
    0.322036728   11.530557975   15.131691982   14.226863864
    0.329215359   11.534415338   15.137248795   14.231867518
    0.336393990   11.538360882   15.142932971   14.236985706
    0.343572621   11.542394817   15.148744835   14.242218710
    0.350751252   11.546517357   15.154684719   14.247566819
    0.357929883   11.550728723   15.160752965   14.253030329
    0.365108514   11.555029139   15.166949920   14.258609542
    0.372287145   11.559418835   15.173275941   14.264304769
    0.379465776   11.563898047   15.179731392   14.270116325
    0.386644407   11.568467015   15.186316646   14.276044533
    0.393823038   11.573125984   15.193032083   14.282089726
    0.401001669   11.577875205   15.199878092   14.288252239
    0.408180301   11.582714934   15.206855070   14.294532417
    0.415358932   11.587645432   15.213963422   14.300930613
    0.422537563   11.592666966   15.221203561   14.307447185
    0.429716194   11.597779807   15.228575910   14.314082499
    0.436894825   11.602984234   15.236080899   14.320836930
    0.444073456   11.608280529   15.243718968   14.327710857
    0.451252087   11.613668980   15.251490563   14.334704671
    0.458430718   11.619149881   15.259396141   14.341818766
    0.465609349   11.624723533   15.267436168   14.349053546
    0.472787980   11.630390239   15.275611117   14.356409422
    0.479966611   11.636150311   15.283921471   14.363886814
    0.487145242   11.642004065   15.292367723   14.371486148
    0.494323873   11.647951824   15.300950373   14.379207858
    0.501502504   11.653993916   15.309669932   14.387052387
    0.508681135   11.660130675   15.318526920   14.395020185
    0.515859766   11.666362441   15.327521864   14.403111711
    0.523038397   11.672689559   15.336655303   14.411327432
    0.530217028   11.679112382   15.345927785   14.419667822
    0.537395659   11.685631268   15.355339868   14.428133363
    0.544574290   11.692246582   15.364892119   14.436724549
    0.551752922   11.698958692   15.374585114   14.445441877
    0.558931553   11.705767977   15.384419440   14.454285857
    0.566110184   11.712674819   15.394395694   14.463257006
    0.573288815   11.719679608   15.404514483   14.472355849
    0.580467446   11.726782739   15.414776424   14.481582921
    0.587646077   11.733984614   15.425182144   14.490938765
    0.594824708   11.741285643   15.435732282   14.500423932
    0.602003339   11.748686241   15.446427485   14.510038985
    0.609181970   11.756186831   15.457268412   14.519784494
    0.616360601   11.763787840   15.468255734   14.529661037
    0.623539232   11.771489706   15.479390131   14.539669205
    0.630717863   11.779292871   15.490672294   14.549809595
    0.637896494   11.787197784   15.502102926   14.560082815
    0.645075125   11.795204902   15.513682741   14.570489483
    0.652253756   11.803314690   15.525412464   14.581030226
    0.659432387   11.811527618   15.537292832   14.591705680
    0.666611018   11.819844164   15.549324594   14.602516494
    0.673789649   11.828264815   15.561508509   14.613463323
    0.680968280   11.836790063   15.573845350   14.624546836
    0.688146912   11.845420409   15.586335900   14.635767709
    0.695325543   11.854156362   15.598980956   14.647126631
    0.702504174   11.862998437   15.611781327   14.658624300
    0.709682805   11.871947159   15.624737832   14.670261425
    0.716861436   11.881003059   15.637851307   14.682038726
    0.724040067   11.890166676   15.651122597   14.693956934
    0.731218698   11.899438558   15.664552562   14.706016791
    0.738397329   11.908819261   15.678142074   14.718219050
    0.745575960   11.918309350   15.691892018   14.730564474
    0.752754591   11.927909396   15.705803295   14.743053841
    0.759933222   11.937619980   15.719876816   14.755687937
    0.767111853   11.947441692   15.734113508   14.768467561
    0.774290484   11.957375130   15.748514311   14.781393524
    0.781469115   11.967420900   15.763080180   14.794466650
    0.788647746   11.977579619   15.777812084   14.807687773
    0.795826377   11.987851911   15.792711006   14.821057742
    0.803005008   11.998238409   15.807777944   14.834577415
    0.810183639   12.008739757   15.823013910   14.848247667
    0.817362270   12.019356606   15.838419933   14.862069382
    0.824540902   12.030089619   15.853997057   14.876043458
    0.831719533   12.040939467   15.869746339   14.890170808
    0.838898164   12.051906831   15.885668855   14.904452357
    0.846076795   12.062992401   15.901765694   14.918889043
    0.853255426   12.074196878   15.918037963   14.933481818
    0.860434057   12.085520972   15.934486785   14.948231649
    0.867612688   12.096965406   15.951113300   14.963139516
    0.874791319   12.108530910   15.967918663   14.978206414
    0.881969950   12.120218225   15.984904049   14.993433350
    0.889148581   12.132028105   16.002070648   15.008821350
    0.896327212   12.143961312   16.019419667   15.024371451
    0.903505843   12.156018621   16.036952334   15.040084707
    0.910684474   12.168200816   16.054669893   15.055962188
    0.917863105   12.180508694   16.072573605   15.072004977
    0.925041736   12.192943063   16.090664753   15.088214175
    0.932220367   12.205504742   16.108944635   15.104590898
    0.939398998   12.218194561   16.127414572   15.121136279
    0.946577629   12.231013364   16.146075902   15.137851466
    0.953756260   12.243962006   16.164929984   15.154737625
    0.960934891   12.257041354   16.183978195   15.171795938
    0.968113523   12.270252287   16.203221935   15.189027605
    0.975292154   12.283595697   16.222662623   15.206433843
    0.982470785   12.297072489   16.242301700   15.224015888
    0.989649416   12.310683581   16.262140628   15.241774991
    0.996828047   12.324429903   16.282180890   15.259712425
    1.004006678   12.338312401   16.302423992   15.277829478
    1.011185309   12.352332032   16.322871461   15.296127459
    1.018363940   12.366489765   16.343524847   15.314607695
    1.025542571   12.380786583   16.364385726   15.333271529
    1.032721202   12.395223473   16.385455691   15.352120320
    1.039899833   12.409801445   16.406736364   15.371155452
    1.047078464   12.424521559   16.428229392   15.390378354
    1.054257095   12.439384867   16.449936446   15.409790460
    1.061435726   12.454392414   16.471859219   15.429393210
    1.068614357   12.469545268   16.493999430   15.449188067
    1.075792988   12.484844515   16.516358826   15.469176524
    1.082971619   12.500291260   16.538939178   15.489360093
    1.090150250   12.515886624   16.561742285   15.509740310
    1.097328881   12.531631745   16.584769973   15.530318735
    1.104507513   12.547527776   16.608024096   15.551096948
    1.111686144   12.563575888   16.631506535   15.572076555
    1.118864775   12.579777268   16.655219200   15.593259186
    1.126043406   12.596133121   16.679164031   15.614646494
    1.133222037   12.612644669   16.703342996   15.636240157
    1.140400668   12.629313153   16.727758095   15.658041879
    1.147579299   12.646139832   16.752411356   15.680053389
    1.154757930   12.663125982   16.777304840   15.702276441
    1.161936561   12.680272900   16.802440640   15.724712816
    1.169115192   12.697581900   16.827820880   15.747364324
    1.176293823   12.715054318   16.853447717   15.770232799
    1.183472454   12.732691507   16.879323343   15.793320105
    1.190651085   12.750494843   16.905449981   15.816628134
    1.197829716   12.768465720   16.931829891   15.840158807
    1.205008347   12.786605553   16.958465369   15.863914073
    1.212186978   12.804915781   16.985358744   15.887895912
    1.219365609   12.823397863   17.012512384   15.912106335
    1.226544240   12.842053277   17.039928693   15.936547383
    1.233722871   12.860883529   17.067610113   15.961221128
    1.240901503   12.879890143   17.095559127   15.986129676
    1.248080134   12.899074669   17.123778254   16.011275165
    1.255258765   12.918438679   17.152270055   16.036659764
    1.262437396   12.937983770   17.181037132   16.062285679
    1.269616027   12.957711564   17.210082129   16.088155150
    1.276794658   12.977623705   17.239407731   16.114270451
    1.283973289   12.997721864   17.269016663   16.140633891
    1.291151920   13.018007728   17.298911686   16.167247816
    1.298330551   13.038482995   17.329095582   16.194114602
    1.305509182   13.059149414   17.359571210   16.221236665
    1.312687813   13.080008826   17.390341572   16.248616474
    1.319866444   13.101063047   17.421409645   16.276256549
    1.327045075   13.122313882   17.452778402   16.304159432
    1.334223706   13.143763175   17.484450879   16.332327691
    1.341402337   13.165412813   17.516430176   16.360763941
    1.348580968   13.187264733   17.548719459   16.389470857
    1.355759599   13.209320894   17.581321941   16.418451152
    1.362938230   13.231583272   17.614240885   16.447707575
    1.370116861   13.254053880   17.647479613   16.477242923
    1.377295492   13.276734763   17.681041498   16.507060039
    1.384474124   13.299628001   17.714929976   16.537161816
    1.391652755   13.322735710   17.749148540   16.567551193
    1.398831386   13.346060038   17.783700740   16.598231159
    1.406010017   13.369603168   17.818590189   16.629204754
    1.413188648   13.393367320   17.853820564   16.660475067
    1.420367279   13.417354749   17.889395603   16.692045239
    1.427545910   13.441567749   17.925319108   16.723918467
    1.434724541   13.466008651   17.961594950   16.756098000
    1.441903172   13.490679824   17.998227067   16.788587143
    1.449081803   13.515583677   18.035219465   16.821389257
    1.456260434   13.540722661   18.072576222   16.854507763
    1.463439065   13.566099266   18.110301488   16.887946138
    1.470617696   13.591716026   18.148399488   16.921707922
    1.477796327   13.617575516   18.186874520   16.955796716
    1.484974958   13.643680357   18.225730962   16.990216183
    1.492153589   13.670033214   18.264973269   17.024970053
    1.499332220   13.696636798   18.304605980   17.060062120
    1.506510851   13.723493866   18.344633713   17.095496245
    1.513689482   13.750607224   18.385061173   17.131276360
    1.520868114   13.777979727   18.425893152   17.167406465
    1.528046745   13.805614279   18.467134527   17.203890634
    1.535225376   13.833513835   18.508790263   17.240733007
    1.542404007   13.861681403   18.550865403   17.277937785
    1.549582638   13.890120039   18.593365079   17.315509242
    1.556761269   13.918832866   18.636294592   17.353451803
    1.563939900   13.947823060   18.679659353   17.391769983
    1.571118531   13.977093847   18.723464791   17.430468300
    1.578297162   14.006648510   18.767716444   17.469551358
    1.585475793   14.036490403   18.812419984   17.509023864
    1.592654424   14.066622936   18.857581190   17.548890619
    1.599833055   14.097049578   18.903205949   17.589156507
    1.607011686   14.127773854   18.949300266   17.629826488
    1.614190317   14.158799359   18.995870265   17.670905621
    1.621368948   14.190129783   19.042922191   17.712399149
    1.628547579   14.221768877   19.090462417   17.754312395
    1.635726210   14.253720442   19.138497439   17.796650711
    1.642904841   14.285988351   19.187033884   17.839419563
    1.650083472   14.318576559   19.236078513   17.882624539
    1.657262104   14.351489097   19.285638228   17.926271344
    1.664440735   14.384730075   19.335720066   17.970365796
    1.671619366   14.418303681   19.386331216   18.014913830
    1.678797997   14.452214186   19.437479010   18.059921500
    1.685976628   14.486465946   19.489170936   18.105394983
    1.693155259   14.521063402   19.541414638   18.151340580
    1.700333890   14.556011084   19.594217921   18.197764724
    1.707512521   14.591313611   19.647588756   18.244673977
    1.714691152   14.626975697   19.701535283   18.292075039
    1.721869783   14.663002150   19.756065818   18.339974748
    1.729048414   14.699397877   19.811188848   18.388380079
    1.736227045   14.736167882   19.866913022   18.437298132
    1.743405676   14.773317268   19.923247146   18.486736124
    1.750584307   14.810851239   19.980200307   18.536701513
    1.757762938   14.848775130   20.037781921   18.587202048
    1.764941569   14.887094379   20.096001440   18.638245495
    1.772120200   14.925814529   20.154868486   18.689839715
    1.779298831   14.964941296   20.214392982   18.741992777
    1.786477462   15.004480477   20.274585063   18.794712970
    1.793656093   15.044437969   20.335455078   18.848008775
    1.800834725   15.084819809   20.397013613   18.901888840
    1.808013356   15.125632171   20.459271509   18.956362007
    1.815191987   15.166881369   20.522239866   19.011437325
    1.822370618   15.208573859   20.585930043   19.067124049
    1.829549249   15.250716237   20.650353668   19.123431649
    1.836727880   15.293315247   20.715522646   19.180369811
    1.843906511   15.336377776   20.781449158   19.237948448
    1.851085142   15.379910879   20.848145691   19.296177707
    1.858263773   15.423921811   20.915625071   19.355067978
    1.865442404   15.468417963   20.983900410   19.414629896
    1.872621035   15.513406880   21.052985129   19.474874343
    1.879799666   15.558896280   21.122892987   19.535812456
    1.886978297   15.604894056   21.193638085   19.597455622
    1.894156928   15.651408325   21.265234897   19.659815557
    1.901335559   15.698447454   21.337698277   19.722904342
    1.908514190   15.746019944   21.411043437   19.786734267
    1.915692821   15.794134494   21.485286015   19.851317904
    1.922871452   15.842800026   21.560442047   19.916668160
    1.930050083   15.892025681   21.636527952   19.982798282
    1.937228715   15.941820829   21.713560595   20.049721859
    1.944407346   15.992195101   21.791557361   20.117452835
    1.951585977   16.043158366   21.870536079   20.186005521
    1.958764608   16.094720732   21.950515022   20.255394601
    1.965943239   16.146892571   22.031512973   20.325635153
    1.973121870   16.199684529   22.113549247   20.396742659
    1.980300501   16.253107536   22.196643699   20.468733018
    1.987479132   16.307172810   22.280816749   20.541622566
    1.994657763   16.361891870   22.366089396   20.615428089
    2.001836394   16.417276548   22.452483241   20.690166839
    2.009015025   16.473338998   22.540020513   20.765856551
    2.016193656   16.530091712   22.628724078   20.842515458
    2.023372287   16.587547524   22.718617459   20.920162303
    2.030550918   16.645719628   22.809724861   20.998816366
    2.037729549   16.704621575   22.902071062   21.078497422
    2.044908180   16.764267254   22.995681289   21.159225629
    2.052086811   16.824670966   23.090582244   21.241021943
    2.059265442   16.885847672   23.186802244   21.323908516
    2.066444073   16.947812704   23.284369557   21.407907811
    2.073622705   17.010581663   23.383312994   21.493042404
    2.080801336   17.074170636   23.483662258   21.579335662
    2.087979967   17.138596245   23.585448531   21.666813127
    2.095158598   17.203875633   23.688703841   21.755500297
    2.102337229   17.270026473   23.793461041   21.845422667
    2.109515860   17.337066995   23.899754190   21.936606854
    2.116694491   17.405016003   24.007618556   22.029080514
    2.123873122   17.473892893   24.117090580   22.122872163
    2.131051753   17.543717670   24.228207952   22.218011255
    2.138230384   17.614511000   24.341009625   22.314528583
    2.145409015   17.686294384   24.455535718   22.412455944
    2.152587646   17.759089986   24.571827197   22.511825586
    2.159766277   17.832920551   24.689926712   22.612670997
    2.166944908   17.907809622   24.809880766   22.715027950
    2.174123539   17.983781772   24.931737113   22.818933117
    2.181302170   18.060862438   25.055543865   22.924423807
    2.188480801   18.139077780   25.181350277   23.031538660
    2.195659432   18.218454916   25.309207795   23.140317859
    2.202838063   18.299021988   25.439170105   23.250803087
    2.210016694   18.380808193   25.571293078   23.363037610
    2.217195326   18.463843828   25.705635054   23.477066780
    2.224373957   18.548160339   25.842256652   23.592937626
    2.231552588   18.633790369   25.981220665   23.710698558
    2.238731219   18.720767821   26.122592427   23.830399840
    2.245909850   18.809127919   26.266439963   23.952093822
    2.253088481   18.898907383   26.412834289   24.075835530
    2.260267112   18.990144480   26.561849644   24.201682223
    2.267445743   19.082878949   26.713563350   24.329693115
    2.274624374   19.177152165   26.868055836   24.459929869
    2.281803005   19.273007277   27.025411101   24.592456871
    2.288981636   19.370489289   27.185716948   24.727341350
    2.296160267   19.469645098   27.349065134   24.864653486
    2.303338898   19.570523417   27.515551512   25.004466552
    2.310517529   19.673174804   27.685276086   25.146857069
    2.317696160   19.777653262   27.858343871   25.291905319
    2.324874791   19.884016677   28.034866702   25.439695794
    2.332053422   19.992323893   28.214960830   25.590316522
    2.339232053   20.102635706   28.398746947   25.743859470
    2.346410684   20.215016096   28.586351948   25.900421174
    2.353589316   20.329532579   28.777909483   26.060103040
    2.360767947   20.446257322   28.973561244   26.223011889
    2.367946578   20.565265720   29.173456184   26.389259915
    2.375125209   20.686636274   29.377750431   26.558965218
    2.382303840   20.810451967   29.586608887   26.732252490
    2.389482471   20.936800451   29.800205709   26.909252829
    2.396661102   21.065774175   30.018724741   27.090104422
    2.403839733   21.197470689   30.242360329   27.274953251
    2.411018364   21.331992850   30.471318197   27.463953655
    2.418196995   21.469449393   30.705816277   27.657268864
    2.425375626   21.609957361   30.946085850   27.855071814
    2.432554257   21.753640910   31.192372615   28.057546040
    2.439732888   21.900629913   31.444937402   28.264886526
    2.446911519   22.051063859   31.704057406   28.477301276
    2.454090150   22.205091632   31.970028808   28.695011242
    2.461268781   22.362871348   32.243168832   28.918250943
    2.468447412   22.524571454   32.523814465   29.147270355
    2.475626043   22.690372772   32.812325777   29.382338290
    2.482804674   22.860469232   33.109088543   29.623742424
    2.489983306   23.035069396   33.414517816   29.871789411
    2.497161937   23.214397890   33.729060006   30.126808502
    2.504340568   23.398695551   34.053193705   30.389153959
    2.511519199   23.588222343   34.387434672   30.659207318
    2.518697830   23.783259714   34.732340300   30.937380142
    2.525876461   23.984112753   35.088513970   31.224117206
    2.533055092   24.191112554   35.456609187   31.519899951
    2.540233723   24.404619838   35.837335358   31.825250584
