# energy grid [eV]     epsr_x  epsr_y  epsr_z
#
    0.200000000    8.846190983   13.799340369   14.871686380
    0.207178631    8.847763061   13.802357106   14.874936311
    0.214357262    8.849391278   13.805481866   14.878302532
    0.221535893    8.851075707   13.808714823   14.881785220
    0.228714524    8.852816425   13.812056156   14.885384560
    0.235893155    8.854613512   13.815506051   14.889100742
    0.243071786    8.856467048   13.819064700   14.892933964
    0.250250417    8.858377120   13.822732302   14.896884427
    0.257429048    8.860343813   13.826509060   14.900952343
    0.264607679    8.862367218   13.830395185   14.905137926
    0.271786311    8.864447427   13.834390895   14.909441400
    0.278964942    8.866584535   13.838496413   14.913862992
    0.286143573    8.868778640   13.842711969   14.918402940
    0.293322204    8.871029842   13.847037800   14.923061485
    0.300500835    8.873338246   13.851474147   14.927838875
    0.307679466    8.875703956   13.856021262   14.932735367
    0.314858097    8.878127081   13.860679399   14.937751221
    0.322036728    8.880607734   13.865448822   14.942886707
    0.329215359    8.883146027   13.870329799   14.948142101
    0.336393990    8.885742079   13.875322607   14.953517685
    0.343572621    8.888396009   13.880427528   14.959013747
    0.350751252    8.891107939   13.885644852   14.964630584
    0.357929883    8.893877996   13.890974875   14.970368498
    0.365108514    8.896706307   13.896417901   14.976227800
    0.372287145    8.899593004   13.901974238   14.982208807
    0.379465776    8.902538220   13.907644206   14.988311842
    0.386644407    8.905542093   13.913428126   14.994537236
    0.393823038    8.908604762   13.919326332   15.000885328
    0.401001669    8.911726371   13.925339161   15.007356463
    0.408180301    8.914907065   13.931466958   15.013950993
    0.415358932    8.918146992   13.937710077   15.020669279
    0.422537563    8.921446304   13.944068877   15.027511688
    0.429716194    8.924805156   13.950543725   15.034478593
    0.436894825    8.928223706   13.957134998   15.041570379
    0.444073456    8.931702114   13.963843076   15.048787433
    0.451252087    8.935240544   13.970668350   15.056130153
    0.458430718    8.938839164   13.977611218   15.063598945
    0.465609349    8.942498142   13.984672083   15.071194220
    0.472787980    8.946217652   13.991851360   15.078916398
    0.479966611    8.949997870   13.999149469   15.086765909
    0.487145242    8.953838976   14.006566838   15.094743187
    0.494323873    8.957741152   14.014103903   15.102848678
    0.501502504    8.961704585   14.021761111   15.111082831
    0.508681135    8.965729462   14.029538912   15.119446109
    0.515859766    8.969815977   14.037437768   15.127938978
    0.523038397    8.973964324   14.045458148   15.136561915
    0.530217028    8.978174704   14.053600529   15.145315404
    0.537395659    8.982447317   14.061865397   15.154199940
    0.544574290    8.986782371   14.070253247   15.163216022
    0.551752922    8.991180073   14.078764581   15.172364162
    0.558931553    8.995640636   14.087399910   15.181644877
    0.566110184    9.000164277   14.096159756   15.191058695
    0.573288815    9.004751213   14.105044646   15.200606152
    0.580467446    9.009401669   14.114055121   15.210287793
    0.587646077    9.014115871   14.123191725   15.220104171
    0.594824708    9.018894049   14.132455017   15.230055849
    0.602003339    9.023736435   14.141845560   15.240143399
    0.609181970    9.028643268   14.151363931   15.250367403
    0.616360601    9.033614788   14.161010714   15.260728450
    0.623539232    9.038651240   14.170786501   15.271227140
    0.630717863    9.043752872   14.180691898   15.281864082
    0.637896494    9.048919936   14.190727517   15.292639896
    0.645075125    9.054152688   14.200893980   15.303555210
    0.652253756    9.059451387   14.211191922   15.314610661
    0.659432387    9.064816298   14.221621986   15.325806899
    0.666611018    9.070247687   14.232184824   15.337144580
    0.673789649    9.075745825   14.242881101   15.348624374
    0.680968280    9.081310989   14.253711491   15.360246958
    0.688146912    9.086943457   14.264676679   15.372013021
    0.695325543    9.092643513   14.275777360   15.383923263
    0.702504174    9.098411444   14.287014241   15.395978393
    0.709682805    9.104247542   14.298388039   15.408179131
    0.716861436    9.110152103   14.309899483   15.420526208
    0.724040067    9.116125427   14.321549312   15.433020367
    0.731218698    9.122167817   14.333338278   15.445662360
    0.738397329    9.128279583   14.345267144   15.458452951
    0.745575960    9.134461038   14.357336683   15.471392917
    0.752754591    9.140712498   14.369547682   15.484483042
    0.759933222    9.147034285   14.381900940   15.497724127
    0.767111853    9.153426726   14.394397267   15.511116982
    0.774290484    9.159890152   14.407037486   15.524662427
    0.781469115    9.166424897   14.419822432   15.538361297
    0.788647746    9.173031302   14.432752953   15.552214438
    0.795826377    9.179709711   14.445829910   15.566222708
    0.803005008    9.186460473   14.459054177   15.580386978
    0.810183639    9.193283944   14.472426641   15.594708130
    0.817362270    9.200180481   14.485948203   15.609187062
    0.824540902    9.207150449   14.499619776   15.623824681
    0.831719533    9.214194216   14.513442288   15.638621911
    0.838898164    9.221312156   14.527416682   15.653579684
    0.846076795    9.228504648   14.541543914   15.668698951
    0.853255426    9.235772076   14.555824954   15.683980673
    0.860434057    9.243114829   14.570260788   15.699425826
    0.867612688    9.250533301   14.584852417   15.715035400
    0.874791319    9.258027893   14.599600853   15.730810398
    0.881969950    9.265599008   14.614507121   15.746751838
    0.889148581    9.273247057   14.629572235   15.762860753
    0.896327212    9.280972456   14.644797175   15.779138188
    0.903505843    9.288775626   14.660182999   15.795585206
    0.910684474    9.296656995   14.675731019   15.812202885
    0.917863105    9.304616996   14.691442391   15.828992319
    0.925041736    9.312656068   14.707318151   15.845954615
    0.932220367    9.320774653   14.723359401   15.863090895
    0.939398998    9.328973203   14.739567290   15.880402300
    0.946577629    9.337252173   14.755942995   15.897889983
    0.953756260    9.345612025   14.772487710   15.915555117
    0.960934891    9.354053228   14.789202650   15.933398891
    0.968113523    9.362576256   14.806089045   15.951422510
    0.975292154    9.371181590   14.823148145   15.969627195
    0.982470785    9.379869717   14.840381220   15.988014187
    0.989649416    9.388641130   14.857789556   16.006584743
    0.996828047    9.397496329   14.875374461   16.025340137
    1.004006678    9.406435821   14.893137261   16.044281663
    1.011185309    9.415460119   14.911079302   16.063410631
    1.018363940    9.424569743   14.929201952   16.082728372
    1.025542571    9.433765220   14.947506598   16.102236234
    1.032721202    9.443047083   14.965994650   16.121935585
    1.039899833    9.452415874   14.984667536   16.141827812
    1.047078464    9.461872140   15.003526710   16.161914323
    1.054257095    9.471416436   15.022573646   16.182196544
    1.061435726    9.481049325   15.041809839   16.202675923
    1.068614357    9.490771377   15.061236811   16.223353928
    1.075792988    9.500583169   15.080856103   16.244232047
    1.082971619    9.510485286   15.100669283   16.265311791
    1.090150250    9.520478320   15.120677942   16.286594691
    1.097328881    9.530562873   15.140883695   16.308082301
    1.104507513    9.540739553   15.161288182   16.329776197
    1.111686144    9.551008976   15.181893070   16.351677978
    1.118864775    9.561371767   15.202700051   16.373789265
    1.126043406    9.571828559   15.223710842   16.396111703
    1.133222037    9.582379994   15.244927190   16.418646961
    1.140400668    9.593026720   15.266350867   16.441396731
    1.147579299    9.603769397   15.287983672   16.464362731
    1.154757930    9.614608692   15.309827436   16.487546703
    1.161936561    9.625545280   15.331884016   16.510950413
    1.169115192    9.636579848   15.354155298   16.534575656
    1.176293823    9.647713089   15.376643201   16.558424249
    1.183472454    9.658945707   15.399349672   16.582498040
    1.190651085    9.670278415   15.422276690   16.606798900
    1.197829716    9.681711935   15.445426266   16.631328730
    1.205008347    9.693246999   15.468800443   16.656089458
    1.212186978    9.704884350   15.492401296   16.681083040
    1.219365609    9.716624739   15.516230936   16.706311461
    1.226544240    9.728468929   15.540291507   16.731776737
    1.233722871    9.740417692   15.564585187   16.757480911
    1.240901503    9.752471810   15.589114191   16.783426058
    1.248080134    9.764632077   15.613880767   16.809614283
    1.255258765    9.776899298   15.638887199   16.836047723
    1.262437396    9.789274287   15.664135814   16.862728546
    1.269616027    9.801757871   15.689628988   16.889658957
    1.276794658    9.814350888   15.715369126   16.916841190
    1.283973289    9.827054186   15.741358668   16.944277514
    1.291151920    9.839868625   15.767600098   16.971970229
    1.298330551    9.852795079   15.794095940   16.999921674
    1.305509182    9.865834431   15.820848764   17.028134221
    1.312687813    9.878987576   15.847861176   17.056610275
    1.319866444    9.892255416   15.875135809   17.085352276
    1.327045075    9.905638868   15.902675344   17.114362698
    1.334223706    9.919138881   15.930482594   17.143644084
    1.341402337    9.932756414   15.958560400   17.173199010
    1.348580968    9.946492421   15.986911579   17.203030064
    1.355759599    9.960347868   16.015539005   17.233139881
    1.362938230    9.974323743   16.044445620   17.263531139
    1.370116861    9.988421041   16.073634418   17.294206556
    1.377295492   10.002640774   16.103108448   17.325168892
    1.384474124   10.016983976   16.132870818   17.356420964
    1.391652755   10.031451707   16.162924693   17.387965637
    1.398831386   10.046045021   16.193273288   17.419805806
    1.406010017   10.060764988   16.223919877   17.451944410
    1.413188648   10.075612695   16.254867791   17.484384439
    1.420367279   10.090589247   16.286120426   17.517128930
    1.427545910   10.105695765   16.317681237   17.550180971
    1.434724541   10.120933386   16.349553744   17.583543698
    1.441903172   10.136303264   16.381741531   17.617220300
    1.449081803   10.151806567   16.414248249   17.651214015
    1.456260434   10.167444484   16.447077616   17.685528134
    1.463439065   10.183218219   16.480233422   17.720166003
    1.470617696   10.199128992   16.513719524   17.755131021
    1.477796327   10.215178045   16.547539851   17.790426645
    1.484974958   10.231366635   16.581698395   17.826056385
    1.492153589   10.247696036   16.616199217   17.862023814
    1.499332220   10.264167546   16.651046507   17.898332560
    1.506510851   10.280782481   16.686244563   17.934986317
    1.513689482   10.297542171   16.721797692   17.971988835
    1.520868114   10.314447955   16.757710276   18.009343927
    1.528046745   10.331501190   16.793986791   18.047055473
    1.535225376   10.348703291   16.830631839   18.085127414
    1.542404007   10.366055708   16.867650121   18.123563757
    1.549582638   10.383559864   16.905046400   18.162368580
    1.556761269   10.401217223   16.942825532   18.201546059
    1.563939900   10.419029266   16.980992479   18.241100421
    1.571118531   10.436997487   17.019552306   18.281035950
    1.578297162   10.455123408   17.058510182   18.321357012
    1.585475793   10.473408580   17.097871384   18.362068051
    1.592654424   10.491854576   17.137641297   18.403173591
    1.599833055   10.510462996   17.177825420   18.444678236
    1.607011686   10.529235462   17.218429367   18.486586671
    1.614190317   10.548173625   17.259458869   18.528903664
    1.621368948   10.567279160   17.300919783   18.571634068
    1.628547579   10.586553766   17.342818087   18.614782824
    1.635726210   10.605999173   17.385159893   18.658354960
    1.642904841   10.625617136   17.427951441   18.702355597
    1.650083472   10.645409439   17.471199110   18.746789946
    1.657262104   10.665377894   17.514909420   18.791663317
    1.664440735   10.685524342   17.559089035   18.836981115
    1.671619366   10.705850654   17.603744767   18.882748844
    1.678797997   10.726358730   17.648883583   18.928972110
    1.685976628   10.747050501   17.694512604   18.975656623
    1.693155259   10.767927931   17.740639122   19.022808201
    1.700333890   10.788993021   17.787270592   19.070432776
    1.707512521   10.810247799   17.834414635   19.118536379
    1.714691152   10.831694325   17.882079048   19.167125140
    1.721869783   10.853334696   17.930271811   19.216205316
    1.729048414   10.875171041   17.979001118   19.265783359
    1.736227045   10.897205525   18.028275341   19.315865807
    1.743405676   10.919440357   18.078103066   19.366459277
    1.750584307   10.941877787   18.128493097   19.417570524
    1.757762938   10.964520091   18.179454419   19.469206446
    1.764941569   10.987369585   18.230996243   19.521374084
    1.772120200   11.010428627   18.283128015   19.574080613
    1.779298831   11.033699617   18.335859421   19.627333357
    1.786477462   11.057184995   18.389200392   19.681139782
    1.793656093   11.080887245   18.443161115   19.735507506
    1.800834725   11.104808896   18.497752034   19.790444302
    1.808013356   11.128952518   18.552983869   19.845958100
    1.815191987   11.153320728   18.608867616   19.902056992
    1.822370618   11.177916192   18.665414564   19.958749238
    1.829549249   11.202741621   18.722636301   20.016043267
    1.836727880   11.227799775   18.780544726   20.073947683
    1.843906511   11.253093465   18.839152063   20.132471262
    1.851085142   11.278625552   18.898470866   20.191622963
    1.858263773   11.304398951   18.958514041   20.251411971
    1.865442404   11.330416629   19.019294854   20.311847669
    1.872621035   11.356681608   19.080826933   20.372939599
    1.879799666   11.383196966   19.143124283   20.434697507
    1.886978297   11.409965840   19.206201310   20.497131354
    1.894156928   11.436991425   19.270072903   20.560251362
    1.901335559   11.464276978   19.334754373   20.624067978
    1.908514190   11.491825816   19.400261427   20.688591841
    1.915692821   11.519641322   19.466610270   20.753833836
    1.922871452   11.547726943   19.533817583   20.819805085
    1.930050083   11.576086191   19.601900541   20.886516920
    1.937228715   11.604722647   19.670876820   20.953980790
    1.944407346   11.633639964   19.740764608   21.022208258
    1.951585977   11.662841860   19.811582823   21.091211784
    1.958764608   11.692332120   19.883351033   21.161004446
    1.965943239   11.722114606   19.956089227   21.231598823
    1.973121870   11.752193309   20.029818238   21.303008005
    1.980300501   11.782572287   20.104559557   21.375245425
    1.987479132   11.813255632   20.180335204   21.448324585
    1.994657763   11.844247517   20.257167925   21.522259379
    2.001836394   11.875552182   20.335081167   21.597064078
    2.009015025   11.907174000   20.414099297   21.672753348
    2.016193656   11.939117543   20.494248097   21.749342396
    2.023372287   11.971387397   20.575553968   21.826846725
    2.030550918   12.003988179   20.658043833   21.905282086
    2.037729549   12.036924621   20.741745679   21.984664644
    2.044908180   12.070201569   20.826688583   22.065010983
    2.052086811   12.103823979   20.912902712   22.146338099
    2.059265442   12.137796953   21.000419480   22.228663530
    2.066444073   12.172125708   21.089271526   22.312005294
    2.073622705   12.206815538   21.179492632   22.396381778
    2.080801336   12.241871855   21.271117881   22.481811840
    2.087979967   12.277300200   21.364183735   22.568314834
    2.095158598   12.313106230   21.458728065   22.655910608
    2.102337229   12.349295709   21.554790230   22.744619544
    2.109515860   12.385874570   21.652411490   22.834462747
    2.116694491   12.422848972   21.751635049   22.925461900
    2.123873122   12.460225143   21.852505539   23.017639107
    2.131051753   12.498009476   21.955069394   23.111017066
    2.138230384   12.536208490   22.059375107   23.205618991
    2.145409015   12.574828831   22.165473204   23.301468362
    2.152587646   12.613877314   22.273416533   23.398589373
    2.159766277   12.653360928   22.383261089   23.497008666
    2.166944908   12.693286927   22.495065381   23.596753733
    2.174123539   12.733662733   22.608890049   23.697851347
    2.181302170   12.774495845   22.724798527   23.800328628
    2.188480801   12.815793910   22.842857456   23.904213867
    2.195659432   12.857564899   22.963136967   24.009536514
    2.202838063   12.899817212   23.085710817   24.116327034
    2.210016694   12.942559273   23.210656370   24.224616708
    2.217195326   12.985799610   23.338054977   24.334437728
    2.224373957   13.029547027   23.467992306   24.445823190
    2.231552588   13.073810596   23.600558615   24.558807256
    2.238731219   13.118599683   23.735849188   24.673425801
    2.245909850   13.163923974   23.873964822   24.789715766
    2.253088481   13.209793380   24.015011872   24.907714726
    2.260267112   13.256218073   24.159102744   25.027461537
    2.267445743   13.303208542   24.306356527   25.148996463
    2.274624374   13.350775601   24.456899507   25.272361166
    2.281803005   13.398930400   24.610865759   25.397598753
    2.288981636   13.447684436   24.768397743   25.524753811
    2.296160267   13.497049560   24.929647000   25.653872462
    2.303338898   13.547038003   25.094774958   25.785002454
    2.310517529   13.597662428   25.263953800   25.918193234
    2.317696160   13.648935929   25.437367429   26.053496011
    2.324874791   13.700872012   25.615212535   26.190963878
    2.332053422   13.753484655   25.797699821   26.330651976
    2.339232053   13.806788337   25.985055265   26.472617459
    2.346410684   13.860798050   26.177521554   26.616919577
    2.353589316   13.915529295   26.375359673   26.763619844
    2.360767947   13.970998017   26.578850831   26.912782140
    2.367946578   14.027220613   26.788299526   27.064472902
    2.375125209   14.084214643   27.004035394   27.218761287
    2.382303840   14.141999054   27.226414808   27.375719173
    2.389482471   14.200592370   27.455824513   27.535421047
    2.396661102   14.260014427   27.692685774   27.697945318
    2.403839733   14.320286482   27.937458173   27.863373982
    2.411018364   14.381429776   28.190643684   28.031791388
    2.418196995   14.443466681   28.452792662   28.203285725
    2.425375626   14.506420922   28.724509888   28.377949519
    2.432554257   14.570317396   29.006460912   28.555879070
    2.439732888   14.635182348   29.299380825   28.737175554
    2.446911519   14.701043523   29.604083897   28.921945118
    2.454090150   14.767930263   29.921474620   29.110298749
    2.461268781   14.835873489   30.252560849   29.302352429
    2.468447412   14.904905868   30.598469393   29.498227833
    2.475626043   14.975062894   30.960464241   29.698053001
    2.482804674   15.046382972   31.339967121   29.901962734
    2.489983306   15.118907175   31.738582862   30.110099185
    2.497161937   15.192679616   32.158144633   30.322612172
    2.504340568   15.267747496   32.600754764   30.539659537
    2.511519199   15.344162293   33.068803648   30.761408112
    2.518697830   15.421980526   33.565041728   30.988035111
    2.525876461   15.501264657   34.092661101   31.219729268
    2.533055092   15.582084347   34.655384396   31.456690895
    2.540233723   15.664517133   35.257575187   31.699133247
