# energy grid [eV]     epsr_x  epsr_y  epsr_z
#
    0.200000000   15.067155581   11.257509176   14.730277989
    0.207178631   15.070544046   11.259781036   14.733521472
    0.214357262   15.074053834   11.262134134   14.736881054
    0.221535893   15.077685137   11.264568590   14.740356916
    0.228714524   15.081438157   11.267084525   14.743949245
    0.235893155   15.085313100   11.269682068   14.747658237
    0.243071786   15.089310180   11.272361349   14.751484092
    0.250250417   15.093429618   11.275122503   14.755427017
    0.257429048   15.097671643   11.277965672   14.759487228
    0.264607679   15.102036490   11.280890998   14.763664944
    0.271786311   15.106524400   11.283898630   14.767960392
    0.278964942   15.111135623   11.286988720   14.772373808
    0.286143573   15.115870415   11.290161427   14.776905431
    0.293322204   15.120729040   11.293416911   14.781555509
    0.300500835   15.125711769   11.296755338   14.786324296
    0.307679466   15.130818879   11.300176878   14.791212054
    0.314858097   15.136050657   11.303681706   14.796219049
    0.322036728   15.141407395   11.307270002   14.801345557
    0.329215359   15.146889392   11.310941948   14.806591859
    0.336393990   15.152496957   11.314697733   14.811958245
    0.343572621   15.158230404   11.318537549   14.817445008
    0.350751252   15.164090056   11.322461595   14.823052454
    0.357929883   15.170076244   11.326470071   14.828780890
    0.365108514   15.176189304   11.330563184   14.834630634
    0.372287145   15.182429583   11.334741146   14.840602010
    0.379465776   15.188797433   11.339004172   14.846695350
    0.386644407   15.195293215   11.343352482   14.852910991
    0.393823038   15.201917299   11.347786301   14.859249281
    0.401001669   15.208670061   11.352305861   14.865710572
    0.408180301   15.215551885   11.356911395   14.872295226
    0.415358932   15.222563165   11.361603143   14.879003610
    0.422537563   15.229704301   11.366381350   14.885836100
    0.429716194   15.236975701   11.371246265   14.892793081
    0.436894825   15.244377784   11.376198142   14.899874943
    0.444073456   15.251910975   11.381237241   14.907082085
    0.451252087   15.259575706   11.386363827   14.914414914
    0.458430718   15.267372421   11.391578167   14.921873844
    0.465609349   15.275301570   11.396880538   14.929459299
    0.472787980   15.283363611   11.402271217   14.937171708
    0.479966611   15.291559014   11.407750492   14.945011510
    0.487145242   15.299888254   11.413318650   14.952979152
    0.494323873   15.308351817   11.418975988   14.961075089
    0.501502504   15.316950197   11.424722805   14.969299783
    0.508681135   15.325683896   11.430559409   14.977653707
    0.515859766   15.334553427   11.436486109   14.986137341
    0.523038397   15.343559311   11.442503223   14.994751172
    0.530217028   15.352702079   11.448611073   15.003495698
    0.537395659   15.361982269   11.454809986   15.012371424
    0.544574290   15.371400431   11.461100296   15.021378865
    0.551752922   15.380957124   11.467482341   15.030518544
    0.558931553   15.390652914   11.473956466   15.039790993
    0.566110184   15.400488381   11.480523021   15.049196754
    0.573288815   15.410464111   11.487182362   15.058736375
    0.580467446   15.420580700   11.493934851   15.068410417
    0.587646077   15.430838758   11.500780856   15.078219449
    0.594824708   15.441238899   11.507720750   15.088164048
    0.602003339   15.451781752   11.514754912   15.098244801
    0.609181970   15.462467954   11.521883729   15.108462306
    0.616360601   15.473298153   11.529107592   15.118817169
    0.623539232   15.484273007   11.536426900   15.129310006
    0.630717863   15.495393185   11.543842055   15.139941443
    0.637896494   15.506659367   11.551353469   15.150712118
    0.645075125   15.518072242   11.558961559   15.161622675
    0.652253756   15.529632512   11.566666747   15.172673771
    0.659432387   15.541340890   11.574469463   15.183866073
    0.666611018   15.553198098   11.582370145   15.195200258
    0.673789649   15.565204872   11.590369233   15.206677014
    0.680968280   15.577361957   11.598467178   15.218297037
    0.688146912   15.589670112   11.606664437   15.230061038
    0.695325543   15.602130106   11.614961472   15.241969737
    0.702504174   15.614742720   11.623358754   15.254023863
    0.709682805   15.627508748   11.631856758   15.266224160
    0.716861436   15.640428994   11.640455971   15.278571379
    0.724040067   15.653504276   11.649156882   15.291066287
    0.731218698   15.666735425   11.657959990   15.303709658
    0.738397329   15.680123283   11.666865800   15.316502280
    0.745575960   15.693668705   11.675874827   15.329444954
    0.752754591   15.707372559   11.684987590   15.342538491
    0.759933222   15.721235727   11.694204617   15.355783714
    0.767111853   15.735259103   11.703526445   15.369181460
    0.774290484   15.749443595   11.712953616   15.382732576
    0.781469115   15.763790123   11.722486682   15.396437924
    0.788647746   15.778299624   11.732126202   15.410298377
    0.795826377   15.792973045   11.741872744   15.424314821
    0.803005008   15.807811350   11.751726881   15.438488157
    0.810183639   15.822815517   11.761689199   15.452819296
    0.817362270   15.837986536   11.771760288   15.467309166
    0.824540902   15.853325414   11.781940749   15.481958705
    0.831719533   15.868833172   11.792231190   15.496768867
    0.838898164   15.884510846   11.802632229   15.511740621
    0.846076795   15.900359487   11.813144491   15.526874946
    0.853255426   15.916380164   11.823768611   15.542172839
    0.860434057   15.932573956   11.834505233   15.557635310
    0.867612688   15.948941964   11.845355010   15.573263385
    0.874791319   15.965485302   11.856318603   15.589058104
    0.881969950   15.982205100   11.867396684   15.605020521
    0.889148581   15.999102506   11.878589934   15.621151707
    0.896327212   16.016178683   11.889899041   15.637452748
    0.903505843   16.033434813   11.901324707   15.653924744
    0.910684474   16.050872093   11.912867637   15.670568807
    0.917863105   16.068491738   11.924528546   15.687386052
    0.925041736   16.086294981   11.936308161   15.704377619
    0.932220367   16.104283077   11.948207234   15.721544722
    0.939398998   16.122457297   11.960226524   15.738888568
    0.946577629   16.140818930   11.972366783   15.756410335
    0.953756260   16.159369280   11.984628779   15.774111230
    0.960934891   16.178109674   11.997013293   15.791992486
    0.968113523   16.197041459   12.009521116   15.810055356
    0.975292154   16.216165998   12.022153052   15.828301112
    0.982470785   16.235484679   12.034909916   15.846731045
    0.989649416   16.254998907   12.047792534   15.865346464
    0.996828047   16.274710108   12.060801744   15.884148698
    1.004006678   16.294619730   12.073938394   15.903139093
    1.011185309   16.314729242   12.087203345   15.922319018
    1.018363940   16.335040133   12.100597471   15.941689859
    1.025542571   16.355553917   12.114121657   15.961253023
    1.032721202   16.376272126   12.127776799   15.981009938
    1.039899833   16.397196320   12.141563808   16.000962053
    1.047078464   16.418328077   12.155483607   16.021110837
    1.054257095   16.439669001   12.169537131   16.041457782
    1.061435726   16.461220719   12.183725328   16.062004401
    1.068614357   16.482984884   12.198049161   16.082752229
    1.075792988   16.504963170   12.212509605   16.103702824
    1.082971619   16.527157278   12.227107649   16.124857766
    1.090150250   16.549568935   12.241844295   16.146218660
    1.097328881   16.572199893   12.256720562   16.167787134
    1.104507513   16.595051929   12.271737479   16.189564840
    1.111686144   16.618126849   12.286896094   16.211553453
    1.118864775   16.641426484   12.302197467   16.233754673
    1.126043406   16.664952693   12.317642672   16.256170224
    1.133222037   16.688707365   12.333232802   16.278801858
    1.140400668   16.712692415   12.348968962   16.301651362
    1.147579299   16.736909788   12.364852274   16.324720542
    1.154757930   16.761361459   12.380883877   16.348011227
    1.161936561   16.786049432   12.397064924   16.371525275
    1.169115192   16.810975742   12.413396586   16.395264573
    1.176293823   16.836142455   12.429880051   16.419231036
    1.183472454   16.861551668   12.446516521   16.443426611
    1.190651085   16.887205501   12.463307214   16.467853267
    1.197829716   16.913106094   12.480253354   16.492513000
    1.205008347   16.939255632   12.497356192   16.517407841
    1.212186978   16.965656408   12.514617040   16.542539881
    1.219365609   16.992310707   12.532037205   16.567911226
    1.226544240   17.019220801   12.549617979   16.593523992
    1.233722871   17.046389007   12.567360678   16.619380329
    1.240901503   17.073817692   12.585266647   16.645482433
    1.248080134   17.101509277   12.603337280   16.671832550
    1.255258765   17.129466209   12.621573969   16.698432947
    1.262437396   17.157690970   12.639978117   16.725285919
    1.269616027   17.186186083   12.658551152   16.752393797
    1.276794658   17.214954113   12.677294524   16.779758953
    1.283973289   17.243997664   12.696209708   16.807383796
    1.291151920   17.273319384   12.715298198   16.835270776
    1.298330551   17.302921963   12.734561514   16.863422376
    1.305509182   17.332808133   12.754001195   16.891841125
    1.312687813   17.362980671   12.773618804   16.920529586
    1.319866444   17.393442398   12.793415927   16.949490368
    1.327045075   17.424196183   12.813394177   16.978726119
    1.334223706   17.455244939   12.833555186   17.008239529
    1.341402337   17.486591627   12.853900614   17.038033334
    1.348580968   17.518239259   12.874432145   17.068110312
    1.355759599   17.550190893   12.895151490   17.098473287
    1.362938230   17.582449641   12.916060383   17.129125129
    1.370116861   17.615018664   12.937160588   17.160068755
    1.377295492   17.647901177   12.958453893   17.191307130
    1.384474124   17.681100449   12.979942116   17.222843267
    1.391652755   17.714619801   13.001627100   17.254680230
    1.398831386   17.748462611   13.023510720   17.286821132
    1.406010017   17.782632314   13.045594875   17.319269140
    1.413188648   17.817132403   13.067881500   17.352027473
    1.420367279   17.851966442   13.090372557   17.385099407
    1.427545910   17.887138045   13.113070038   17.418488267
    1.434724541   17.922650887   13.135975965   17.452197425
    1.441903172   17.958508705   13.159092387   17.486230300
    1.449081803   17.994715306   13.182421396   17.520590410
    1.456260434   18.031274562   13.205965128   17.555281373
    1.463439065   18.068190410   13.229725738   17.590306804
    1.470617696   18.105466860   13.253705409   17.625670367
    1.477796327   18.143107992   13.277906365   17.661375804
    1.484974958   18.181117955   13.302330866   17.697426926
    1.492153589   18.219500975   13.326981205   17.733827609
    1.499332220   18.258261351   13.351859713   17.770581799
    1.506510851   18.297403465   13.376968776   17.807693533
    1.513689482   18.336931774   13.402310812   17.845166910
    1.520868114   18.376850814   13.427888266   17.883006087
    1.528046745   18.417165207   13.453703629   17.921215300
    1.535225376   18.457879656   13.479759432   17.959798864
    1.542404007   18.498998951   13.506058247   17.998761171
    1.549582638   18.540527961   13.532602682   18.038106696
    1.556761269   18.582471647   13.559395386   18.077839994
    1.563939900   18.624835096   13.586439095   18.117965705
    1.571118531   18.667623491   13.613736588   18.158488556
    1.578297162   18.710842074   13.641290651   18.199413357
    1.585475793   18.754496190   13.669104119   18.240745012
    1.592654424   18.798591290   13.697179879   18.282488513
    1.599833055   18.843132930   13.725520871   18.324648948
    1.607011686   18.888126795   13.754130109   18.367231507
    1.614190317   18.933578671   13.783010655   18.410241476
    1.621368948   18.979494445   13.812165603   18.453684240
    1.628547579   19.025880120   13.841598105   18.497565286
    1.635726210   19.072741820   13.871311373   18.541890210
    1.642904841   19.120085792   13.901308677   18.586664716
    1.650083472   19.167918409   13.931593344   18.631894623
    1.657262104   19.216246169   13.962168763   18.677585860
    1.664440735   19.265075702   13.993038381   18.723744478
    1.671619366   19.314413771   14.024205709   18.770376644
    1.678797997   19.364267270   14.055674315   18.817488640
    1.685976628   19.414643210   14.087447820   18.865086849
    1.693155259   19.465548723   14.119529894   18.913177749
    1.700333890   19.516991189   14.151924339   18.961768085
    1.707512521   19.568978208   14.184635085   19.010864821
    1.714691152   19.621517443   14.217666034   19.060474915
    1.721869783   19.674616666   14.251021142   19.110605420
    1.729048414   19.728283822   14.284704462   19.161263562
    1.736227045   19.782527045   14.318720131   19.212456738
    1.743405676   19.837354657   14.353072369   19.264192512
    1.750584307   19.892775156   14.387765475   19.316478605
    1.757762938   19.948797227   14.422803832   19.369322897
    1.764941569   20.005429748   14.458191906   19.422733447
    1.772120200   20.062681802   14.493934252   19.476718522
    1.779298831   20.120562669   14.530035512   19.531286546
    1.786477462   20.179081828   14.566500421   19.586446109
    1.793656093   20.238248973   14.603333803   19.642205997
    1.800834725   20.298074017   14.640540577   19.698575188
    1.808013356   20.358567096   14.678125764   19.755562865
    1.815191987   20.419738565   14.716094497   19.813178415
    1.822370618   20.481598977   14.754452000   19.871431385
    1.829549249   20.544159239   14.793203604   19.930331648
    1.836727880   20.607430636   14.832354752   19.989889420
    1.843906511   20.671424533   14.871910998   20.050114978
    1.851085142   20.736152529   14.911878009   20.111018800
    1.858263773   20.801626541   14.952261569   20.172611653
    1.865442404   20.867858791   14.993067587   20.234904572
    1.872621035   20.934861799   15.034302096   20.297908857
    1.879799666   21.002648391   15.075971257   20.361636095
    1.886978297   21.071231697   15.118081362   20.426098173
    1.894156928   21.140625116   15.160638838   20.491307219
    1.901335559   21.210842382   15.203650254   20.557275609
    1.908514190   21.281897363   15.247122318   20.624015902
    1.915692821   21.353804540   15.291061888   20.691540967
    1.922871452   21.426579692   15.335475975   20.759864707
    1.930050083   21.500238391   15.380371755   20.829001425
    1.937228715   21.574796030   15.425756554   20.898965070
    1.944407346   21.650268472   15.471637860   20.969769881
    1.951585977   21.726672168   15.518023330   21.041430631
    1.958764608   21.804024048   15.564920785   21.113962519
    1.965943239   21.882341416   15.612338185   21.187381026
    1.973121870   21.961641969   15.660283675   21.261701786
    1.980300501   22.041944281   15.708765797   21.336941091
    1.987479132   22.123267816   15.757793257   21.413116982
    1.994657763   22.205632129   15.807374782   21.490247392
    2.001836394   22.289056943   15.857519328   21.568349642
    2.009015025   22.373562548   15.908236114   21.647442234
    2.016193656   22.459169458   15.959534590   21.727543908
    2.023372287   22.545898910   16.011424432   21.808673749
    2.030550918   22.633774674   16.063915556   21.890852332
    2.037729549   22.722820635   16.117018125   21.974100605
    2.044908180   22.813060571   16.170742547   22.058439642
    2.052086811   22.904518537   16.225099461   22.143891135
    2.059265442   22.997219324   16.280099795   22.230477512
    2.066444073   23.091189131   16.335754901   22.318222096
    2.073622705   23.186454908   16.392076362   22.407148881
    2.080801336   23.283044200   16.449075953   22.497282486
    2.087979967   23.380985477   16.506765782   22.588648290
    2.095158598   23.480308142   16.565158303   22.681272417
    2.102337229   23.581042637   16.624266309   22.775181969
    2.109515860   23.683220571   16.684102945   22.870405263
    2.116694491   23.786874446   16.744681711   22.966971233
    2.123873122   23.892037768   16.806016478   23.064909592
    2.131051753   23.998745215   16.868121503   23.164251126
    2.138230384   24.107032677   16.931011441   23.265027708
    2.145409015   24.216937291   16.994701366   23.367272314
    2.152587646   24.328497497   17.059206781   23.471019061
    2.159766277   24.441753094   17.124543635   23.576303258
    2.166944908   24.556745293   17.190728329   23.683161456
    2.174123539   24.673516764   17.257777700   23.791631493
    2.181302170   24.792111770   17.325708936   23.901752564
    2.188480801   24.912576313   17.394539498   24.013565321
    2.195659432   25.034958092   17.464287971   24.127111998
    2.202838063   25.159306633   17.534974558   24.242436575
    2.210016694   25.285673320   17.606618860   24.359584502
    2.217195326   25.414111571   17.679240538   24.478602940
    2.224373957   25.544676772   17.752859843   24.599540850
    2.231552588   25.677426515   17.827497915   24.722449153
    2.238731219   25.812420950   17.903177964   24.847381008
    2.245909850   25.949722258   17.979923176   24.974391549
    2.253088481   26.089394986   18.057756411   25.103537952
    2.260267112   26.231508061   18.136702594   25.234880292
    2.267445743   26.376133244   18.216787214   25.368481543
    2.274624374   26.523343934   18.298035354   25.504406864
    2.281803005   26.673216680   18.380474206   25.642724004
    2.288981636   26.825832000   18.464133341   25.783504053
    2.296160267   26.981274519   18.549041577   25.926821259
    2.303338898   27.139632402   18.635228313   26.072753101
    2.310517529   27.300997478   18.722724377   26.221380426
    2.317696160   27.465466042   18.811561917   26.372788036
    2.324874791   27.633139767   18.901774384   26.527065844
    2.332053422   27.804125284   18.993396480   26.684307712
    2.339232053   27.978533900   19.086464169   26.844611391
    2.346410684   28.156482695   19.181014810   27.008080022
    2.353589316   28.338094774   19.277087191   27.174821952
    2.360767947   28.523499574   19.374721541   27.344950871
    2.367946578   28.712833297   19.473959516   27.518586233
    2.375125209   28.906239625   19.574844695   27.695854431
    2.382303840   29.103870828   19.677423282   27.876890454
    2.389482471   29.305887476   19.781742762   28.061835692
    2.396661102   29.512458608   19.887852056   28.250838446
    2.403839733   29.723763040   19.995802353   28.444055852
    2.411018364   29.939990585   20.105647486   28.641655213
    2.418196995   30.161342742   20.217443790   28.843814372
    2.425375626   30.388032971   20.331249752   29.050721286
    2.432554257   30.620287920   20.447126449   29.262575572
    2.439732888   30.858348607   20.565137806   29.479589852
    2.446911519   31.102471408   20.685350685   29.701990808
    2.454090150   31.352930442   20.807835264   29.930019827
    2.461268781   31.610020056   20.932665560   30.163934663
    2.468447412   31.874053281   21.059919069   30.404013253
    2.475626043   32.145364629   21.189677137   30.650554481
    2.482804674   32.424313347   21.322024927   30.903875993
    2.489983306   32.711284973   21.457051768   31.164318758
    2.497161937   33.006694203   21.594851601   31.432251008
    2.504340568   33.310988900   21.735523977   31.708070653
    2.511519199   33.624653732   21.879175255   31.992207273
    2.518697830   33.948211186   22.025916526   32.285125879
    2.525876461   34.282226341   22.175864329   32.587331034
    2.533055092   34.627313027   22.329142277   32.899371248
    2.540233723   34.984139796   22.485881625   33.221844892
