# energy grid [eV]     ieps_x  ieps_y  ieps_z
#
    0.200000000   10.264915505   10.287199032    1.006342387
    0.207178631   10.262669399   10.284929270    1.006340982
    0.214357262   10.260345307   10.282580716    1.006339528
    0.221535893   10.257943353   10.280153499    1.006338026
    0.228714524   10.255463668   10.277647749    1.006336474
    0.235893155   10.252906383   10.275063603    1.006334874
    0.243071786   10.250271636   10.272401202    1.006333226
    0.250250417   10.247559568   10.269660690    1.006331529
    0.257429048   10.244770325   10.266842215    1.006329783
    0.264607679   10.241904055   10.263945929    1.006327989
    0.271786311   10.238960911   10.260971990    1.006326147
    0.278964942   10.235941050   10.257920558    1.006324257
    0.286143573   10.232844634   10.254791797    1.006322318
    0.293322204   10.229671826   10.251585876    1.006320332
    0.300500835   10.226422796   10.248302967    1.006318297
    0.307679466   10.223097715   10.244943247    1.006316215
    0.314858097   10.219696761   10.241506896    1.006314085
    0.322036728   10.216220113   10.237994098    1.006311907
    0.329215359   10.212667955   10.234405042    1.006309682
    0.336393990   10.209040475   10.230739919    1.006307410
    0.343572621   10.205337864   10.226998924    1.006305090
    0.350751252   10.201560316   10.223182257    1.006302723
    0.357929883   10.197708031   10.219290122    1.006300309
    0.365108514   10.193781211   10.215322725    1.006297847
    0.372287145   10.189780062   10.211280276    1.006295339
    0.379465776   10.185704792   10.207162990    1.006292785
    0.386644407   10.181555616   10.202971084    1.006290183
    0.393823038   10.177332750   10.198704781    1.006287535
    0.401001669   10.173036413   10.194364304    1.006284841
    0.408180301   10.168666829   10.189949882    1.006282100
    0.415358932   10.164224226   10.185461748    1.006279313
    0.422537563   10.159708833   10.180900137    1.006276480
    0.429716194   10.155120884   10.176265287    1.006273601
    0.436894825   10.150460616   10.171557441    1.006270677
    0.444073456   10.145728270   10.166776845    1.006267707
    0.451252087   10.140924089   10.161923747    1.006264691
    0.458430718   10.136048320   10.156998400    1.006261630
    0.465609349   10.131101214   10.152001059    1.006258523
    0.472787980   10.126083022   10.146931984    1.006255372
    0.479966611   10.120994002   10.141791435    1.006252176
    0.487145242   10.115834414   10.136579680    1.006248934
    0.494323873   10.110604520   10.131296984    1.006245649
    0.501502504   10.105304585   10.125943621    1.006242318
    0.508681135   10.099934878   10.120519865    1.006238943
    0.515859766   10.094495672   10.115025992    1.006235524
    0.523038397   10.088987239   10.109462284    1.006232061
    0.530217028   10.083409859   10.103829024    1.006228554
    0.537395659   10.077763811   10.098126498    1.006225004
    0.544574290   10.072049378   10.092354996    1.006221409
    0.551752922   10.066266847   10.086514810    1.006217771
    0.558931553   10.060416506   10.080606233    1.006214090
    0.566110184   10.054498647   10.074629565    1.006210366
    0.573288815   10.048513564   10.068585106    1.006206599
    0.580467446   10.042461554   10.062473158    1.006202789
    0.587646077   10.036342915   10.056294027    1.006198937
    0.594824708   10.030157951   10.050048022    1.006195042
    0.602003339   10.023906966   10.043735453    1.006191104
    0.609181970   10.017590266   10.037356634    1.006187125
    0.616360601   10.011208162   10.030911881    1.006183104
    0.623539232   10.004760965   10.024401512    1.006179040
    0.630717863    9.998248990   10.017825848    1.006174936
    0.637896494    9.991672553   10.011185213    1.006170790
    0.645075125    9.985031973   10.004479931    1.006166602
    0.652253756    9.978327573    9.997710331    1.006162374
    0.659432387    9.971559674    9.990876743    1.006158104
    0.666611018    9.964728604    9.983979499    1.006153794
    0.673789649    9.957834689    9.977018934    1.006149444
    0.680968280    9.950878261    9.969995383    1.006145053
    0.688146912    9.943859650    9.962909187    1.006140622
    0.695325543    9.936779192    9.955760686    1.006136151
    0.702504174    9.929637222    9.948550222    1.006131640
    0.709682805    9.922434078    9.941278141    1.006127090
    0.716861436    9.915170101    9.933944788    1.006122501
    0.724040067    9.907845633    9.926550514    1.006117872
    0.731218698    9.900461017    9.919095669    1.006113204
    0.738397329    9.893016599    9.911580604    1.006108497
    0.745575960    9.885512726    9.904005674    1.006103752
    0.752754591    9.877949748    9.896371235    1.006098969
    0.759933222    9.870328015    9.888677644    1.006094147
    0.767111853    9.862647879    9.880925261    1.006089287
    0.774290484    9.854909696    9.873114446    1.006084389
    0.781469115    9.847113820    9.865245562    1.006079454
    0.788647746    9.839260608    9.857318973    1.006074482
    0.795826377    9.831350421    9.849335045    1.006069472
    0.803005008    9.823383616    9.841294144    1.006064425
    0.810183639    9.815360557    9.833196638    1.006059341
    0.817362270    9.807281606    9.825042898    1.006054221
    0.824540902    9.799147128    9.816833294    1.006049065
    0.831719533    9.790957487    9.808568199    1.006043872
    0.838898164    9.782713052    9.800247987    1.006038643
    0.846076795    9.774414190    9.791873032    1.006033379
    0.853255426    9.766061270    9.783443710    1.006028079
    0.860434057    9.757654663    9.774960399    1.006022744
    0.867612688    9.749194741    9.766423477    1.006017374
    0.874791319    9.740681875    9.757833323    1.006011969
    0.881969950    9.732116441    9.749190318    1.006006529
    0.889148581    9.723498812    9.740494843    1.006001054
    0.896327212    9.714829365    9.731747280    1.005995546
    0.903505843    9.706108475    9.722948013    1.005990003
    0.910684474    9.697336521    9.714097426    1.005984427
    0.917863105    9.688513880    9.705195903    1.005978817
    0.925041736    9.679640932    9.696243831    1.005973173
    0.932220367    9.670718057    9.687241595    1.005967497
    0.939398998    9.661745636    9.678189584    1.005961788
    0.946577629    9.652724049    9.669088184    1.005956045
    0.953756260    9.643653679    9.659937786    1.005950271
    0.960934891    9.634534909    9.650738777    1.005944464
    0.968113523    9.625368121    9.641491547    1.005938625
    0.975292154    9.616153701    9.632196487    1.005932754
    0.982470785    9.606892031    9.622853988    1.005926852
    0.989649416    9.597583497    9.613464441    1.005920918
    0.996828047    9.588228484    9.604028237    1.005914953
    1.004006678    9.578827379    9.594545768    1.005908957
    1.011185309    9.569380566    9.585017428    1.005902931
    1.018363940    9.559888433    9.575443608    1.005896874
    1.025542571    9.550351366    9.565824702    1.005890787
    1.032721202    9.540769753    9.556161102    1.005884669
    1.039899833    9.531143981    9.546453204    1.005878522
    1.047078464    9.521474436    9.536701399    1.005872346
    1.054257095    9.511761508    9.526906082    1.005866140
    1.061435726    9.502005583    9.517067647    1.005859905
    1.068614357    9.492207051    9.507186488    1.005853641
    1.075792988    9.482366298    9.497262999    1.005847348
    1.082971619    9.472483713    9.487297575    1.005841027
    1.090150250    9.462559685    9.477290608    1.005834678
    1.097328881    9.452594601    9.467242493    1.005828301
    1.104507513    9.442588849    9.457153625    1.005821896
    1.111686144    9.432542817    9.447024397    1.005815464
    1.118864775    9.422456894    9.436855202    1.005809004
    1.126043406    9.412331467    9.426646434    1.005802517
    1.133222037    9.402166924    9.416398487    1.005796004
    1.140400668    9.391963651    9.406111753    1.005789463
    1.147579299    9.381722037    9.395786626    1.005782897
    1.154757930    9.371442468    9.385423498    1.005776304
    1.161936561    9.361125331    9.375022760    1.005769686
    1.169115192    9.350771012    9.364584805    1.005763042
    1.176293823    9.340379897    9.354110025    1.005756372
    1.183472454    9.329952372    9.343598809    1.005749677
    1.190651085    9.319488822    9.333051550    1.005742957
    1.197829716    9.308989631    9.322468637    1.005736213
    1.205008347    9.298455184    9.311850459    1.005729444
    1.212186978    9.287885865    9.301197405    1.005722650
    1.219365609    9.277282057    9.290509865    1.005715833
    1.226544240    9.266644144    9.279788225    1.005708992
    1.233722871    9.255972506    9.269032875    1.005702127
    1.240901503    9.245267526    9.258244199    1.005695239
    1.248080134    9.234529585    9.247422584    1.005688327
    1.255258765    9.223759063    9.236568416    1.005681393
    1.262437396    9.212956340    9.225682078    1.005674436
    1.269616027    9.202121795    9.214763956    1.005667457
    1.276794658    9.191255806    9.203814432    1.005660455
    1.283973289    9.180358751    9.192833888    1.005653432
    1.291151920    9.169431007    9.181822707    1.005646386
    1.298330551    9.158472949    9.170781268    1.005639319
    1.305509182    9.147484953    9.159709951    1.005632231
    1.312687813    9.136467394    9.148609136    1.005625122
    1.319866444    9.125420644    9.137479201    1.005617992
    1.327045075    9.114345077    9.126320522    1.005610841
    1.334223706    9.103241063    9.115133476    1.005603670
    1.341402337    9.092108975    9.103918439    1.005596479
    1.348580968    9.080949182    9.092675784    1.005589268
    1.355759599    9.069762053    9.081405884    1.005582037
    1.362938230    9.058547955    9.070109112    1.005574786
    1.370116861    9.047307256    9.058785839    1.005567517
    1.377295492    9.036040322    9.047436436    1.005560228
    1.384474124    9.024747517    9.036061270    1.005552921
    1.391652755    9.013429206    9.024660709    1.005545595
    1.398831386    9.002085750    9.013235122    1.005538250
    1.406010017    8.990717512    9.001784872    1.005530887
    1.413188648    8.979324853    8.990310325    1.005523507
    1.420367279    8.967908130    8.978811844    1.005516109
    1.427545910    8.956467704    8.967289790    1.005508693
    1.434724541    8.945003930    8.955744525    1.005501260
    1.441903172    8.933517165    8.944176408    1.005493810
    1.449081803    8.922007763    8.932585797    1.005486343
    1.456260434    8.910476077    8.920973050    1.005478860
    1.463439065    8.898922461    8.909338521    1.005471360
    1.470617696    8.887347263    8.897682566    1.005463844
    1.477796327    8.875750836    8.886005538    1.005456312
    1.484974958    8.864133526    8.874307788    1.005448765
    1.492153589    8.852495680    8.862589666    1.005441202
    1.499332220    8.840837645    8.850851523    1.005433624
    1.506510851    8.829159765    8.839093704    1.005426030
    1.513689482    8.817462382    8.827316558    1.005418422
    1.520868114    8.805745839    8.815520427    1.005410799
    1.528046745    8.794010475    8.803705657    1.005403162
    1.535225376    8.782256631    8.791872589    1.005395510
    1.542404007    8.770484642    8.780021563    1.005387845
    1.549582638    8.758694846    8.768152918    1.005380165
    1.556761269    8.746887577    8.756266993    1.005372472
    1.563939900    8.735063168    8.744364122    1.005364766
    1.571118531    8.723221950    8.732444642    1.005357047
    1.578297162    8.711364255    8.720508884    1.005349314
    1.585475793    8.699490412    8.708557181    1.005341569
    1.592654424    8.687600746    8.696589862    1.005333812
    1.599833055    8.675695585    8.684607256    1.005326042
    1.607011686    8.663775252    8.672609691    1.005318260
    1.614190317    8.651840071    8.660597490    1.005310466
    1.621368948    8.639890363    8.648570979    1.005302660
    1.628547579    8.627926447    8.636530479    1.005294843
    1.635726210    8.615948641    8.624476311    1.005287014
    1.642904841    8.603957263    8.612408793    1.005279175
    1.650083472    8.591952628    8.600328245    1.005271324
    1.657262104    8.579935048    8.588234980    1.005263463
    1.664440735    8.567904837    8.576129314    1.005255591
    1.671619366    8.555862304    8.564011559    1.005247710
    1.678797997    8.543807757    8.551882026    1.005239818
    1.685976628    8.531741505    8.539741024    1.005231916
    1.693155259    8.519663852    8.527588861    1.005224004
    1.700333890    8.507575104    8.515425842    1.005216083
    1.707512521    8.495475560    8.503252272    1.005208153
    1.714691152    8.483365524    8.491068453    1.005200213
    1.721869783    8.471245293    8.478874687    1.005192265
    1.729048414    8.459115165    8.466671272    1.005184307
    1.736227045    8.446975435    8.454458507    1.005176342
    1.743405676    8.434826398    8.442236686    1.005168368
    1.750584307    8.422668346    8.430006105    1.005160386
    1.757762938    8.410501570    8.417767054    1.005152395
    1.764941569    8.398326358    8.405519826    1.005144398
    1.772120200    8.386142999    8.393264709    1.005136392
    1.779298831    8.373951777    8.381001990    1.005128379
    1.786477462    8.361752977    8.368731956    1.005120359
    1.793656093    8.349546882    8.356454888    1.005112332
    1.800834725    8.337333771    8.344171071    1.005104298
    1.808013356    8.325113923    8.331880783    1.005096257
    1.815191987    8.312887617    8.319584304    1.005088210
    1.822370618    8.300655127    8.307281911    1.005080157
    1.829549249    8.288416727    8.294973878    1.005072098
    1.836727880    8.276172689    8.282660478    1.005064032
    1.843906511    8.263923284    8.270341984    1.005055961
    1.851085142    8.251668780    8.258018666    1.005047884
    1.858263773    8.239409444    8.245690791    1.005039802
    1.865442404    8.227145541    8.233358625    1.005031715
    1.872621035    8.214877336    8.221022434    1.005023622
    1.879799666    8.202605088    8.208682479    1.005015525
    1.886978297    8.190329060    8.196339023    1.005007423
    1.894156928    8.178049508    8.183992324    1.004999317
    1.901335559    8.165766690    8.171642640    1.004991206
    1.908514190    8.153480861    8.159290226    1.004983091
    1.915692821    8.141192273    8.146935338    1.004974972
    1.922871452    8.128901178    8.134578226    1.004966849
    1.930050083    8.116607825    8.122219141    1.004958722
    1.937228715    8.104312463    8.109858332    1.004950592
    1.944407346    8.092015337    8.097496046    1.004942458
    1.951585977    8.079716693    8.085132529    1.004934322
    1.958764608    8.067416773    8.072768023    1.004926182
    1.965943239    8.055115818    8.060402770    1.004918040
    1.973121870    8.042814066    8.048037010    1.004909894
    1.980300501    8.030511757    8.035670982    1.004901747
    1.987479132    8.018209125    8.023304921    1.004893596
    1.994657763    8.005906405    8.010939062    1.004885444
    2.001836394    7.993603829    7.998573639    1.004877290
    2.009015025    7.981301628    7.986208882    1.004869133
    2.016193656    7.969000030    7.973845020    1.004860975
    2.023372287    7.956699264    7.961482282    1.004852816
    2.030550918    7.944399553    7.949120892    1.004844655
    2.037729549    7.932101123    7.936761076    1.004836492
    2.044908180    7.919804195    7.924403056    1.004828329
    2.052086811    7.907508990    7.912047052    1.004820164
    2.059265442    7.895215726    7.899693283    1.004811999
    2.066444073    7.882924620    7.887341966    1.004803833
    2.073622705    7.870635888    7.874993318    1.004795666
    2.080801336    7.858349742    7.862647551    1.004787499
    2.087979967    7.846066396    7.850304877    1.004779332
    2.095158598    7.833786058    7.837965507    1.004771165
    2.102337229    7.821508938    7.825629650    1.004762998
    2.109515860    7.809235242    7.813297512    1.004754830
    2.116694491    7.796965175    7.800969299    1.004746664
    2.123873122    7.784698941    7.788645213    1.004738498
    2.131051753    7.772436741    7.776325457    1.004730332
    2.138230384    7.760178775    7.764010231    1.004722167
    2.145409015    7.747925243    7.751699732    1.004714003
    2.152587646    7.735676340    7.739394159    1.004705840
    2.159766277    7.723432261    7.727093705    1.004697678
    2.166944908    7.711193201    7.714798564    1.004689518
    2.174123539    7.698959350    7.702508927    1.004681358
    2.181302170    7.686730899    7.690224985    1.004673201
    2.188480801    7.674508036    7.677946926    1.004665045
    2.195659432    7.662290949    7.665674936    1.004656891
    2.202838063    7.650079821    7.653409201    1.004648739
    2.210016694    7.637874838    7.641149904    1.004640589
    2.217195326    7.625676180    7.628897226    1.004632441
    2.224373957    7.613484028    7.616651347    1.004624296
    2.231552588    7.601298561    7.604412447    1.004616153
    2.238731219    7.589119956    7.592180701    1.004608012
    2.245909850    7.576948387    7.579956285    1.004599875
    2.253088481    7.564784030    7.567739372    1.004591740
    2.260267112    7.552627057    7.555530134    1.004583608
    2.267445743    7.540477637    7.543328743    1.004575479
    2.274624374    7.528335941    7.531135365    1.004567354
    2.281803005    7.516202135    7.518950169    1.004559232
    2.288981636    7.504076386    7.506773320    1.004551113
    2.296160267    7.491958858    7.494604982    1.004542998
    2.303338898    7.479849714    7.482445317    1.004534886
    2.310517529    7.467749116    7.470294487    1.004526778
    2.317696160    7.455657222    7.458152649    1.004518674
    2.324874791    7.443574191    7.446019963    1.004510574
    2.332053422    7.431500180    7.433896584    1.004502479
    2.339232053    7.419435344    7.421782667    1.004494387
    2.346410684    7.407379836    7.409678365    1.004486300
    2.353589316    7.395333809    7.397583829    1.004478217
    2.360767947    7.383297413    7.385499209    1.004470139
    2.367946578    7.371270797    7.373424655    1.004462066
    2.375125209    7.359254109    7.361360312    1.004453997
    2.382303840    7.347247494    7.349306326    1.004445934
    2.389482471    7.335251098    7.337262842    1.004437875
    2.396661102    7.323265064    7.325230001    1.004429821
    2.403839733    7.311289533    7.313207945    1.004421773
    2.411018364    7.299324645    7.301196813    1.004413730
    2.418196995    7.287370539    7.289196743    1.004405692
    2.425375626    7.275427352    7.277207873    1.004397660
    2.432554257    7.263495220    7.265230336    1.004389633
    2.439732888    7.251574278    7.253264266    1.004381613
    2.446911519    7.239664659    7.241309797    1.004373598
    2.454090150    7.227766493    7.229367058    1.004365588
    2.461268781    7.215879911    7.217436179    1.004357585
    2.468447412    7.204005042    7.205517287    1.004349588
    2.475626043    7.192142013    7.193610511    1.004341597
    2.482804674    7.180290950    7.181715973    1.004333613
    2.489983306    7.168451978    7.169833799    1.004325635
    2.497161937    7.156625219    7.157964111    1.004317663
    2.504340568    7.144810795    7.146107029    1.004309698
    2.511519199    7.133008827    7.134262673    1.004301739
    2.518697830    7.121219433    7.122431161    1.004293788
    2.525876461    7.109442732    7.110612610    1.004285843
    2.533055092    7.097678839    7.098807136    1.004277905
    2.540233723    7.085927870    7.087014853    1.004269974
