# energy grid [eV]     ieps_x  ieps_y  ieps_z
#
    0.200000000    6.490973962    2.660953037    5.841598241
    0.207178631    6.489844955    2.660560142    5.840413358
    0.214357262    6.488676748    2.660153641    5.839187428
    0.221535893    6.487469404    2.659733560    5.837920526
    0.228714524    6.486222988    2.659299925    5.836612728
    0.235893155    6.484937564    2.658852762    5.835264116
    0.243071786    6.483613202    2.658392099    5.833874771
    0.250250417    6.482249972    2.657917965    5.832444778
    0.257429048    6.480847944    2.657430389    5.830974222
    0.264607679    6.479407194    2.656929401    5.829463195
    0.271786311    6.477927796    2.656415031    5.827911786
    0.278964942    6.476409827    2.655887312    5.826320090
    0.286143573    6.474853368    2.655346274    5.824688201
    0.293322204    6.473258499    2.654791952    5.823016220
    0.300500835    6.471625303    2.654224378    5.821304245
    0.307679466    6.469953864    2.653643587    5.819552379
    0.314858097    6.468244269    2.653049615    5.817760727
    0.322036728    6.466496606    2.652442496    5.815929396
    0.329215359    6.464710963    2.651822267    5.814058494
    0.336393990    6.462887433    2.651188966    5.812148132
    0.343572621    6.461026109    2.650542630    5.810198424
    0.350751252    6.459127085    2.649883297    5.808209485
    0.357929883    6.457190457    2.649211007    5.806181431
    0.365108514    6.455216323    2.648525798    5.804114383
    0.372287145    6.453204783    2.647827713    5.802008460
    0.379465776    6.451155937    2.647116790    5.799863787
    0.386644407    6.449069889    2.646393073    5.797680488
    0.393823038    6.446946741    2.645656604    5.795458690
    0.401001669    6.444786600    2.644907424    5.793198523
    0.408180301    6.442589573    2.644145577    5.790900116
    0.415358932    6.440355768    2.643371108    5.788563603
    0.422537563    6.438085294    2.642584061    5.786189117
    0.429716194    6.435778264    2.641784481    5.783776796
    0.436894825    6.433434790    2.640972414    5.781326778
    0.444073456    6.431054985    2.640147906    5.778839201
    0.451252087    6.428638966    2.639311003    5.776314208
    0.458430718    6.426186849    2.638461753    5.773751942
    0.465609349    6.423698753    2.637600204    5.771152547
    0.472787980    6.421174796    2.636726404    5.768516171
    0.479966611    6.418615100    2.635840402    5.765842961
    0.487145242    6.416019785    2.634942247    5.763133068
    0.494323873    6.413388977    2.634031989    5.760386643
    0.501502504    6.410722798    2.633109678    5.757603838
    0.508681135    6.408021375    2.632175365    5.754784809
    0.515859766    6.405284834    2.631229102    5.751929712
    0.523038397    6.402513304    2.630270940    5.749038703
    0.530217028    6.399706913    2.629300930    5.746111943
    0.537395659    6.396865792    2.628319127    5.743149591
    0.544574290    6.393990072    2.627325582    5.740151810
    0.551752922    6.391079885    2.626320349    5.737118763
    0.558931553    6.388135366    2.625303482    5.734050614
    0.566110184    6.385156649    2.624275035    5.730947530
    0.573288815    6.382143869    2.623235063    5.727809678
    0.580467446    6.379097163    2.622183620    5.724637227
    0.587646077    6.376016670    2.621120763    5.721430346
    0.594824708    6.372902526    2.620046547    5.718189207
    0.602003339    6.369754873    2.618961028    5.714913983
    0.609181970    6.366573851    2.617864263    5.711604846
    0.616360601    6.363359601    2.616756308    5.708261972
    0.623539232    6.360112267    2.615637221    5.704885537
    0.630717863    6.356831990    2.614507059    5.701475718
    0.637896494    6.353518916    2.613365880    5.698032692
    0.645075125    6.350173191    2.612213743    5.694556641
    0.652253756    6.346794958    2.611050705    5.691047743
    0.659432387    6.343384367    2.609876826    5.687506180
    0.666611018    6.339941564    2.608692165    5.683932135
    0.673789649    6.336466698    2.607496781    5.680325792
    0.680968280    6.332959918    2.606290734    5.676687333
    0.688146912    6.329421375    2.605074083    5.673016946
    0.695325543    6.325851219    2.603846890    5.669314816
    0.702504174    6.322249601    2.602609214    5.665581131
    0.709682805    6.318616675    2.601361116    5.661816078
    0.716861436    6.314952594    2.600102657    5.658019847
    0.724040067    6.311257510    2.598833899    5.654192627
    0.731218698    6.307531579    2.597554903    5.650334608
    0.738397329    6.303774956    2.596265730    5.646445983
    0.745575960    6.299987796    2.594966443    5.642526943
    0.752754591    6.296170256    2.593657103    5.638577681
    0.759933222    6.292322493    2.592337773    5.634598391
    0.767111853    6.288444666    2.591008516    5.630589267
    0.774290484    6.284536931    2.589669394    5.626550504
    0.781469115    6.280599449    2.588320471    5.622482297
    0.788647746    6.276632378    2.586961808    5.618384844
    0.795826377    6.272635879    2.585593471    5.614258340
    0.803005008    6.268610113    2.584215521    5.610102983
    0.810183639    6.264555240    2.582828022    5.605918971
    0.817362270    6.260471422    2.581431040    5.601706503
    0.824540902    6.256358822    2.580024636    5.597465778
    0.831719533    6.252217601    2.578608876    5.593196995
    0.838898164    6.248047925    2.577183823    5.588900355
    0.846076795    6.243849955    2.575749542    5.584576057
    0.853255426    6.239623857    2.574306098    5.580224304
    0.860434057    6.235369794    2.572853554    5.575845296
    0.867612688    6.231087933    2.571391976    5.571439235
    0.874791319    6.226778437    2.569921428    5.567006324
    0.881969950    6.222441474    2.568441976    5.562546764
    0.889148581    6.218077209    2.566953684    5.558060759
    0.896327212    6.213685809    2.565456617    5.553548512
    0.903505843    6.209267441    2.563950840    5.549010226
    0.910684474    6.204822273    2.562436420    5.544446105
    0.917863105    6.200350472    2.560913420    5.539856354
    0.925041736    6.195852206    2.559381907    5.535241176
    0.932220367    6.191327643    2.557841946    5.530600776
    0.939398998    6.186776953    2.556293602    5.525935359
    0.946577629    6.182200305    2.554736942    5.521245129
    0.953756260    6.177597867    2.553172030    5.516530291
    0.960934891    6.172969809    2.551598932    5.511791051
    0.968113523    6.168316301    2.550017714    5.507027615
    0.975292154    6.163637513    2.548428442    5.502240186
    0.982470785    6.158933616    2.546831181    5.497428972
    0.989649416    6.154204780    2.545225997    5.492594177
    0.996828047    6.149451176    2.543612957    5.487736007
    1.004006678    6.144672975    2.541992125    5.482854668
    1.011185309    6.139870347    2.540363567    5.477950366
    1.018363940    6.135043465    2.538727350    5.473023305
    1.025542571    6.130192500    2.537083540    5.468073693
    1.032721202    6.125317624    2.535432201    5.463101734
    1.039899833    6.120419008    2.533773399    5.458107634
    1.047078464    6.115496825    2.532107201    5.453091598
    1.054257095    6.110551247    2.530433673    5.448053833
    1.061435726    6.105582446    2.528752879    5.442994543
    1.068614357    6.100590594    2.527064886    5.437913934
    1.075792988    6.095575863    2.525369759    5.432812210
    1.082971619    6.090538428    2.523667563    5.427689577
    1.090150250    6.085478459    2.521958365    5.422546239
    1.097328881    6.080396130    2.520242230    5.417382401
    1.104507513    6.075291614    2.518519223    5.412198268
    1.111686144    6.070165083    2.516789410    5.406994043
    1.118864775    6.065016710    2.515052856    5.401769931
    1.126043406    6.059846668    2.513309626    5.396526136
    1.133222037    6.054655131    2.511559785    5.391262860
    1.140400668    6.049442270    2.509803399    5.385980307
    1.147579299    6.044208259    2.508040532    5.380678680
    1.154757930    6.038953270    2.506271250    5.375358181
    1.161936561    6.033677477    2.504495617    5.370019013
    1.169115192    6.028381052    2.502713698    5.364661379
    1.176293823    6.023064168    2.500925558    5.359285478
    1.183472454    6.017726998    2.499131261    5.353891514
    1.190651085    6.012369714    2.497330872    5.348479686
    1.197829716    6.006992489    2.495524455    5.343050195
    1.205008347    6.001595495    2.493712074    5.337603242
    1.212186978    5.996178905    2.491893794    5.332139026
    1.219365609    5.990742892    2.490069678    5.326657747
    1.226544240    5.985287626    2.488239791    5.321159603
    1.233722871    5.979813281    2.486404196    5.315644793
    1.240901503    5.974320028    2.484562956    5.310113514
    1.248080134    5.968808039    2.482716136    5.304565965
    1.255258765    5.963277486    2.480863798    5.299002343
    1.262437396    5.957728540    2.479006007    5.293422844
    1.269616027    5.952161372    2.477142824    5.287827663
    1.276794658    5.946576153    2.475274312    5.282216998
    1.283973289    5.940973056    2.473400536    5.276591042
    1.291151920    5.935352249    2.471521557    5.270949990
    1.298330551    5.929713904    2.469637437    5.265294036
    1.305509182    5.924058191    2.467748240    5.259623374
    1.312687813    5.918385281    2.465854026    5.253938196
    1.319866444    5.912695342    2.463954859    5.248238695
    1.327045075    5.906988545    2.462050800    5.242525062
    1.334223706    5.901265060    2.460141910    5.236797488
    1.341402337    5.895525054    2.458228252    5.231056164
    1.348580968    5.889768698    2.456309885    5.225301280
    1.355759599    5.883996159    2.454386873    5.219533024
    1.362938230    5.878207607    2.452459275    5.213751586
    1.370116861    5.872403209    2.450527151    5.207957154
    1.377295492    5.866583132    2.448590564    5.202149914
    1.384474124    5.860747545    2.446649573    5.196330053
    1.391652755    5.854896614    2.444704238    5.190497757
    1.398831386    5.849030507    2.442754619    5.184653212
    1.406010017    5.843149390    2.440800776    5.178796603
    1.413188648    5.837253428    2.438842769    5.172928112
    1.420367279    5.831342788    2.436880657    5.167047923
    1.427545910    5.825417636    2.434914499    5.161156219
    1.434724541    5.819478135    2.432944354    5.155253182
    1.441903172    5.813524452    2.430970281    5.149338992
    1.449081803    5.807556751    2.428992338    5.143413830
    1.456260434    5.801575195    2.427010584    5.137477875
    1.463439065    5.795579948    2.425025076    5.131531307
    1.470617696    5.789571173    2.423035874    5.125574303
    1.477796327    5.783549034    2.421043034    5.119607040
    1.484974958    5.777513692    2.419046613    5.113629696
    1.492153589    5.771465311    2.417046670    5.107642446
    1.499332220    5.765404050    2.415043260    5.101645465
    1.506510851    5.759330072    2.413036442    5.095638928
    1.513689482    5.753243537    2.411026270    5.089623007
    1.520868114    5.747144606    2.409012802    5.083597875
    1.528046745    5.741033439    2.406996094    5.077563705
    1.535225376    5.734910194    2.404976201    5.071520667
    1.542404007    5.728775031    2.402953179    5.065468931
    1.549582638    5.722628109    2.400927084    5.059408668
    1.556761269    5.716469585    2.398897970    5.053340044
    1.563939900    5.710299617    2.396865893    5.047263230
    1.571118531    5.704118362    2.394830906    5.041178390
    1.578297162    5.697925977    2.392793065    5.035085692
    1.585475793    5.691722618    2.390752423    5.028985300
    1.592654424    5.685508440    2.388709034    5.022877380
    1.599833055    5.679283599    2.386662953    5.016762094
    1.607011686    5.673048249    2.384614231    5.010639605
    1.614190317    5.666802545    2.382562923    5.004510076
    1.621368948    5.660546640    2.380509082    4.998373667
    1.628547579    5.654280686    2.378452759    4.992230539
    1.635726210    5.648004838    2.376394007    4.986080850
    1.642904841    5.641719246    2.374332879    4.979924759
    1.650083472    5.635424062    2.372269426    4.973762425
    1.657262104    5.629119438    2.370203699    4.967594002
    1.664440735    5.622805522    2.368135751    4.961419648
    1.671619366    5.616482467    2.366065632    4.955239518
    1.678797997    5.610150420    2.363993392    4.949053764
    1.685976628    5.603809530    2.361919083    4.942862541
    1.693155259    5.597459946    2.359842754    4.936666000
    1.700333890    5.591101815    2.357764456    4.930464294
    1.707512521    5.584735284    2.355684238    4.924257572
    1.714691152    5.578360501    2.353602150    4.918045985
    1.721869783    5.571977609    2.351518240    4.911829680
    1.729048414    5.565586756    2.349432559    4.905608807
    1.736227045    5.559188085    2.347345154    4.899383510
    1.743405676    5.552781742    2.345256074    4.893153938
    1.750584307    5.546367868    2.343165366    4.886920235
    1.757762938    5.539946608    2.341073080    4.880682544
    1.764941569    5.533518103    2.338979261    4.874441010
    1.772120200    5.527082495    2.336883959    4.868195775
    1.779298831    5.520639926    2.334787218    4.861946980
    1.786477462    5.514190536    2.332689087    4.855694766
    1.793656093    5.507734465    2.330589612    4.849439273
    1.800834725    5.501271852    2.328488838    4.843180640
    1.808013356    5.494802836    2.326386813    4.836919003
    1.815191987    5.488327554    2.324283580    4.830654501
    1.822370618    5.481846145    2.322179187    4.824387269
    1.829549249    5.475358745    2.320073677    4.818117443
    1.836727880    5.468865490    2.317967096    4.811845157
    1.843906511    5.462366515    2.315859487    4.805570544
    1.851085142    5.455861957    2.313750897    4.799293736
    1.858263773    5.449351947    2.311641367    4.793014866
    1.865442404    5.442836622    2.309530943    4.786734063
    1.872621035    5.436316112    2.307419666    4.780451458
    1.879799666    5.429790552    2.305307582    4.774167179
    1.886978297    5.423260071    2.303194731    4.767881354
    1.894156928    5.416724802    2.301081158    4.761594111
    1.901335559    5.410184874    2.298966903    4.755305574
    1.908514190    5.403640418    2.296852010    4.749015870
    1.915692821    5.397091562    2.294736520    4.742725123
    1.922871452    5.390538434    2.292620473    4.736433456
    1.930050083    5.383981163    2.290503913    4.730140991
    1.937228715    5.377419876    2.288386879    4.723847851
    1.944407346    5.370854698    2.286269411    4.717554155
    1.951585977    5.364285756    2.284151551    4.711260024
    1.958764608    5.357713175    2.282033339    4.704965576
    1.965943239    5.351137078    2.279914813    4.698670930
    1.973121870    5.344557590    2.277796015    4.692376202
    1.980300501    5.337974834    2.275676982    4.686081509
    1.987479132    5.331388933    2.273557754    4.679786965
    1.994657763    5.324800006    2.271438369    4.673492686
    2.001836394    5.318208177    2.269318866    4.667198785
    2.009015025    5.311613565    2.267199283    4.660905375
    2.016193656    5.305016290    2.265079658    4.654612566
    2.023372287    5.298416470    2.262960028    4.648320471
    2.030550918    5.291814225    2.260840431    4.642029199
    2.037729549    5.285209671    2.258720903    4.635738859
    2.044908180    5.278602926    2.256601482    4.629449559
    2.052086811    5.271994106    2.254482203    4.623161407
    2.059265442    5.265383326    2.252363104    4.616874509
    2.066444073    5.258770702    2.250244219    4.610588971
    2.073622705    5.252156347    2.248125585    4.604304898
    2.080801336    5.245540376    2.246007237    4.598022392
    2.087979967    5.238922901    2.243889209    4.591741559
    2.095158598    5.232304033    2.241771538    4.585462498
    2.102337229    5.225683886    2.239654257    4.579185313
    2.109515860    5.219062568    2.237537400    4.572910103
    2.116694491    5.212440191    2.235421002    4.566636967
    2.123873122    5.205816865    2.233305096    4.560366005
    2.131051753    5.199192696    2.231189716    4.554097314
    2.138230384    5.192567795    2.229074896    4.547830992
    2.145409015    5.185942268    2.226960667    4.541567134
    2.152587646    5.179316221    2.224847063    4.535305837
    2.159766277    5.172689761    2.222734115    4.529047193
    2.166944908    5.166062993    2.220621857    4.522791298
    2.174123539    5.159436022    2.218510320    4.516538243
    2.181302170    5.152808952    2.216399536    4.510288122
    2.188480801    5.146181885    2.214289535    4.504041024
    2.195659432    5.139554925    2.212180350    4.497797041
    2.202838063    5.132928173    2.210072010    4.491556262
    2.210016694    5.126301730    2.207964547    4.485318775
    2.217195326    5.119675698    2.205857991    4.479084669
    2.224373957    5.113050176    2.203752371    4.472854031
    2.231552588    5.106425262    2.201647718    4.466626946
    2.238731219    5.099801056    2.199544061    4.460403501
    2.245909850    5.093177656    2.197441429    4.454183780
    2.253088481    5.086555158    2.195339852    4.447967867
    2.260267112    5.079933658    2.193239357    4.441755845
    2.267445743    5.073313254    2.191139975    4.435547797
    2.274624374    5.066694039    2.189041732    4.429343803
    2.281803005    5.060076108    2.186944657    4.423143945
    2.288981636    5.053459555    2.184848778    4.416948302
    2.296160267    5.046844474    2.182754121    4.410756954
    2.303338898    5.040230955    2.180660715    4.404569980
    2.310517529    5.033619092    2.178568587    4.398387456
    2.317696160    5.027008974    2.176477762    4.392209459
    2.324874791    5.020400694    2.174388268    4.386036066
    2.332053422    5.013794339    2.172300131    4.379867352
    2.339232053    5.007190000    2.170213376    4.373703392
    2.346410684    5.000587764    2.168128030    4.367544259
    2.353589316    4.993987720    2.166044119    4.361390027
    2.360767947    4.987389954    2.163961666    4.355240767
    2.367946578    4.980794552    2.161880698    4.349096552
    2.375125209    4.974201602    2.159801240    4.342957451
    2.382303840    4.967611187    2.157723315    4.336823537
    2.389482471    4.961023392    2.155646948    4.330694877
    2.396661102    4.954438301    2.153572163    4.324571540
    2.403839733    4.947855997    2.151498985    4.318453595
    2.411018364    4.941276562    2.149427436    4.312341108
    2.418196995    4.934700078    2.147357540    4.306234146
    2.425375626    4.928126627    2.145289321    4.300132775
    2.432554257    4.921556289    2.143222800    4.294037060
    2.439732888    4.914989143    2.141158002    4.287947065
    2.446911519    4.908425269    2.139094947    4.281862854
    2.454090150    4.901864746    2.137033660    4.275784489
    2.461268781    4.895307651    2.134974160    4.269712034
    2.468447412    4.888754062    2.132916471    4.263645550
    2.475626043    4.882204055    2.130860614    4.257585098
    2.482804674    4.875657707    2.128806610    4.251530737
    2.489983306    4.869115093    2.126754480    4.245482528
    2.497161937    4.862576287    2.124704245    4.239440529
    2.504340568    4.856041364    2.122655926    4.233404798
    2.511519199    4.849510397    2.120609543    4.227375394
    2.518697830    4.842983460    2.118565117    4.221352373
    2.525876461    4.836460624    2.116522667    4.215335790
    2.533055092    4.829941960    2.114482214    4.209325703
    2.540233723    4.823427541    2.112443776    4.203322165
