# energy grid [eV]     epsr_x  epsr_y  epsr_z
#
    0.200000000    3.086926886   12.379290009   12.418487794
    0.207178631    3.087285705   12.381830983   12.421366017
    0.214357262    3.087657418   12.384463001   12.424347708
    0.221535893    3.088042049   12.387186218   12.427433077
    0.228714524    3.088439626   12.390000791   12.430622341
    0.235893155    3.088850176   12.392906885   12.433915725
    0.243071786    3.089273729   12.395904668   12.437313464
    0.250250417    3.089710313   12.398994318   12.440815797
    0.257429048    3.090159960   12.402176015   12.444422976
    0.264607679    3.090622702   12.405449947   12.448135258
    0.271786311    3.091098572   12.408816306   12.451952909
    0.278964942    3.091587604   12.412275292   12.455876203
    0.286143573    3.092089834   12.415827111   12.459905424
    0.293322204    3.092605298   12.419471972   12.464040862
    0.300500835    3.093134033   12.423210093   12.468282819
    0.307679466    3.093676079   12.427041699   12.472631604
    0.314858097    3.094231475   12.430967018   12.477087534
    0.322036728    3.094800263   12.434986286   12.481650937
    0.329215359    3.095382486   12.439099747   12.486322149
    0.336393990    3.095978187   12.443307649   12.491101516
    0.343572621    3.096587412   12.447610248   12.495989393
    0.350751252    3.097210207   12.452007806   12.500986144
    0.357929883    3.097846621   12.456500591   12.506092145
    0.365108514    3.098496702   12.461088880   12.511307780
    0.372287145    3.099160502   12.465772955   12.516633442
    0.379465776    3.099838073   12.470553107   12.522069538
    0.386644407    3.100529468   12.475429630   12.527616482
    0.393823038    3.101234744   12.480402831   12.533274700
    0.401001669    3.101953958   12.485473020   12.539044628
    0.408180301    3.102687167   12.490640515   12.544926715
    0.415358932    3.103434434   12.495905644   12.550921419
    0.422537563    3.104195819   12.501268741   12.557029211
    0.429716194    3.104971386   12.506730146   12.563250573
    0.436894825    3.105761203   12.512290211   12.569585998
    0.444073456    3.106565336   12.517949293   12.576035992
    0.451252087    3.107383855   12.523707759   12.582601076
    0.458430718    3.108216833   12.529565983   12.589281779
    0.465609349    3.109064342   12.535524348   12.596078646
    0.472787980    3.109926459   12.541583246   12.602992236
    0.479966611    3.110803263   12.547743078   12.610023119
    0.487145242    3.111694834   12.554004255   12.617171881
    0.494323873    3.112601255   12.560367196   12.624439121
    0.501502504    3.113522612   12.566832329   12.631825455
    0.508681135    3.114458992   12.573400094   12.639331511
    0.515859766    3.115410488   12.580070938   12.646957936
    0.523038397    3.116377192   12.586845321   12.654705390
    0.530217028    3.117359201   12.593723711   12.662574551
    0.537395659    3.118356615   12.600706590   12.670566113
    0.544574290    3.119369537   12.607794447   12.678680788
    0.551752922    3.120398072   12.614987786   12.686919308
    0.558931553    3.121442330   12.622287119   12.695282419
    0.566110184    3.122502425   12.629692974   12.703770890
    0.573288815    3.123578472   12.637205887   12.712385508
    0.580467446    3.124670594   12.644826410   12.721127082
    0.587646077    3.125778915   12.652555107   12.729996440
    0.594824708    3.126903564   12.660392555   12.738994433
    0.602003339    3.128044674   12.668339345   12.748121936
    0.609181970    3.129202385   12.676396082   12.757379847
    0.616360601    3.130376839   12.684563387   12.766769087
    0.623539232    3.131568186   12.692841896   12.776290603
    0.630717863    3.132776580   12.701232260   12.785945371
    0.637896494    3.134002181   12.709735147   12.795734393
    0.645075125    3.135245154   12.718351243   12.805658698
    0.652253756    3.136505674   12.727081250   12.815719348
    0.659432387    3.137783919   12.735925891   12.825917436
    0.666611018    3.139080076   12.744885905   12.836254087
    0.673789649    3.140394341   12.753962055   12.846730461
    0.680968280    3.141726916   12.763155122   12.857347754
    0.688146912    3.143078012   12.772465910   12.868107200
    0.695325543    3.144447852   12.781895247   12.879010074
    0.702504174    3.145836665   12.791443983   12.890057691
    0.709682805    3.147244694   12.801112995   12.901251413
    0.716861436    3.148672191   12.810903186   12.912592647
    0.724040067    3.150119422   12.820815488   12.924082849
    0.731218698    3.151586665   12.830850860   12.935723529
    0.738397329    3.153074211   12.841010295   12.947516252
    0.745575960    3.154582368   12.851294817   12.959462641
    0.752754591    3.156111460   12.861705487   12.971564381
    0.759933222    3.157661827   12.872243401   12.983823227
    0.767111853    3.159233830   12.882909694   12.996241000
    0.774290484    3.160827849   12.893705546   13.008819602
    0.781469115    3.162444286   12.904632179   13.021561012
    0.788647746    3.164083570   12.915690863   13.034467297
    0.795826377    3.165746154   12.926882921   13.047540620
    0.803005008    3.167432519   12.938209730   13.060783241
    0.810183639    3.169143181   12.949672724   13.074197529
    0.817362270    3.170878688   12.961273406   13.087785972
    0.824540902    3.172639626   12.973013343   13.101551181
    0.831719533    3.174426626   12.984894178   13.115495906
    0.838898164    3.176240363   12.996917637   13.129623046
    0.846076795    3.178081563   13.009085532   13.143935661
    0.853255426    3.179951011   13.021399773   13.158436988
    0.860434057    3.181849556   13.033862375   13.173130459
    0.867612688    3.183778116   13.046475469   13.188019716
    0.874791319    3.185737691   13.059241312   13.203108636
    0.881969950    3.187729372   13.072162306   13.218401351
    0.889148581    3.189754348   13.085241007   13.233902279
    0.896327212    3.191813928   13.098480144   13.249616153
    0.903505843    3.193909548   13.111882643   13.265548056
    0.910684474    3.196042796   13.125451647   13.281703461
    0.917863105    3.198215433   13.139190544   13.298088279
    0.925041736    3.200429417   13.153103001   13.314708912
    0.932220367    3.202686935   13.167192999   13.331572316
    0.939398998    3.204990443   13.181464878   13.348686072
    0.946577629    3.207342710   13.195923394   13.366058474
    0.953756260    3.209746875   13.210573775   13.383698626
    0.960934891    3.212206512   13.225421804   13.401616563
    0.968113523    3.214725718   13.240473907   13.419823393
    0.975292154    3.217309218   13.255737269   13.438331463
    0.982470785    3.219962491   13.271219970   13.457154566
    0.989649416    3.222691945   13.286931158   13.476308188
    0.996828047    3.225505125   13.302881266   13.495809809
    1.004006678    3.228410987   13.319082285   13.515679283
    1.011185309    3.231420262   13.335548113   13.535939296
    1.018363940    3.234545923   13.352295006   13.556615960
    1.025542571    3.237803822   13.369342169   13.577739556
    1.032721202    3.241213541   13.386712542   13.599345495
    1.039899833    3.244799561   13.404433848   13.621475564
    1.047078464    3.248592875   13.422540019   13.644179580
    1.054257095    3.252633248   13.441073168   13.667517583
    1.061435726    3.256972404   13.460086302   13.691562807
    1.068614357    3.261678501   13.479647119   13.716405705
    1.075792988    3.266842319   13.499843188   13.742159372
    1.082971619    3.272585272   13.520788674   13.768966586
    1.090150250    3.279067581   13.542631462   13.797007754
    1.097328881    3.286487729   13.565554232   13.826505032
    1.104507513    3.295035395   13.589741901   13.857701746
    1.111686144    3.304645530   13.615203665   13.890731718
    1.118864775    3.313955991   13.641010842   13.925042004
    1.126043406    3.316573260   13.662558052   13.957300073
    1.133222037    3.295065205   13.667156281   13.978023917
    1.140400668    3.246621608   13.652900741   13.986103090
    1.147579299    3.217743415   13.654177550   14.008429300
    1.154757930    3.217362685   13.677836010   14.050889901
    1.161936561    3.226699539   13.710447086   14.103978936
    1.169115192    3.237324630   13.746255232   14.164241728
    1.176293823    3.247263343   13.784134210   14.231577612
    1.183472454    3.256304667   13.823282789   14.304216055
    1.190651085    3.264518184   13.858650706   14.368196357
    1.197829716    3.271667408   13.869511186   14.366451702
    1.205008347    3.277053532   13.815448088   14.187898686
    1.212186978    3.281601178   13.730928139   13.927588827
    1.219365609    3.287549039   13.710892520   13.847078959
    1.226544240    3.294650592   13.738458876   13.900429975
    1.233722871    3.302240463   13.778657361   13.991462134
    1.240901503    3.310091577   13.819588117   14.084535577
    1.248080134    3.317870138   13.857886577   14.155311991
    1.255258765    3.324383307   13.889995295   14.144070318
    1.262437396    3.328483992   13.912842827   13.992562019
    1.269616027    3.333850037   13.936586960   13.857689045
    1.276794658    3.343329785   13.968900352   13.856038341
    1.283973289    3.355641927   14.005832661   13.914537190
    1.291151920    3.370102143   14.044877057   13.983327379
    1.298330551    3.386813960   14.085723367   14.049181118
    1.305509182    3.405554013   14.128274231   14.110170090
    1.312687813    3.423230486   14.170192530   14.166115046
    1.319866444    3.425513643   14.199959712   14.213992304
    1.327045075    3.374295903   14.186593445   14.243896431
    1.334223706    3.266838580   14.128128852   14.255764523
    1.341402337    3.204097748   14.107629669   14.278795809
    1.348580968    3.201355766   14.138040481   14.317759387
    1.355759599    3.218401452   14.186940003   14.361593321
    1.362938230    3.237770592   14.240632014   14.405630693
    1.370116861    3.255421092   14.296271900   14.448961993
    1.377295492    3.270929159   14.352724502   14.491616466
    1.384474124    3.284407029   14.403519744   14.533490487
    1.391652755    3.295221279   14.421471918   14.573332738
    1.398831386    3.301621341   14.352718110   14.608386850
    1.406010017    3.305651037   14.241785833   14.641374735
    1.413188648    3.312567666   14.216365159   14.679662026
    1.420367279    3.321729406   14.255145173   14.722325512
    1.427545910    3.331473695   14.311382111   14.767064683
    1.434724541    3.341360116   14.369575473   14.813379853
    1.441903172    3.351448601   14.427009200   14.861538266
    1.449081803    3.361890522   14.484065796   14.911928715
    1.456260434    3.372641747   14.540899719   14.964347087
    1.463439065    3.382669998   14.593807357   15.015616101
    1.470617696    3.387549842   14.625684969   15.052258433
    1.477796327    3.378954562   14.604031093   15.048950130
    1.484974958    3.365128133   14.561335012   15.030964388
    1.492153589    3.365668247   14.574592625   15.058201031
    1.499332220    3.376470840   14.627616387   15.117981404
    1.506510851    3.389669724   14.689061831   15.184761982
    1.513689482    3.399528204   14.734636541   15.234159941
    1.520868114    3.396424791   14.722069359   15.218547040
    1.528046745    3.379613564   14.647606907   15.133716801
    1.535225376    3.373998459   14.619638893   15.103625884
    1.542404007    3.383875901   14.656330880   15.149025518
    1.549582638    3.399475779   14.715028182   15.220788788
    1.556761269    3.415489408   14.776605698   15.295038937
    1.563939900    3.425700124   14.833800531   15.354942357
    1.571118531    3.414446584   14.876754828   15.364833372
    1.578297162    3.374586230   14.901251112   15.308877892
    1.585475793    3.348171856   14.932030193   15.282746289
    1.592654424    3.348725890   14.967997962   15.319049048
    1.599833055    3.354948245   14.970221708   15.374579918
    1.607011686    3.357787780   14.933767393   15.428968732
    1.614190317    3.363884506   14.930820334   15.485045577
    1.621368948    3.373974356   14.969567458   15.543213554
    1.628547579    3.384745612   15.021423475   15.600927865
    1.635726210    3.394954460   15.074553835   15.657508916
    1.642904841    3.404458130   15.126486763   15.713198018
    1.650083472    3.413382654   15.177289319   15.768429782
    1.657262104    3.421888534   15.227575633   15.823643342
    1.664440735    3.430118665   15.278006975   15.879237227
    1.671619366    3.438177693   15.329033308   15.935475312
    1.678797997    3.446065453   15.380141979   15.992047617
    1.685976628    3.453404344   15.426937877   16.046315004
    1.693155259    3.458696069   15.453260329   16.088566222
    1.700333890    3.459997090   15.438298114   16.106296061
    1.707512521    3.461114144   15.422036989   16.123569934
    1.714691152    3.466108169   15.447172373   16.166084699
    1.721869783    3.473116715   15.493822705   16.221899493
    1.729048414    3.480563618   15.545132296   16.280894640
    1.736227045    3.488016385   15.596319010   16.340213716
    1.743405676    3.495427184   15.646640593   16.399431576
    1.750584307    3.502843178   15.696316989   16.458703426
    1.757762938    3.510334254   15.745745647   16.518293202
    1.764941569    3.517979243   15.795332742   16.578472554
    1.772120200    3.525864775   15.845470018   16.639507663
    1.779298831    3.534077515   15.896516905   16.701649866
    1.786477462    3.542653638   15.948662693   16.765056075
    1.793656093    3.551352057   16.001278342   16.829409185
    1.800834725    3.558782775   16.050403283   16.892441062
    1.808013356    3.560311175   16.082693875   16.946373153
    1.815191987    3.551575647   16.085590732   16.983908377
    1.822370618    3.544820374   16.094515140   17.026028164
    1.829549249    3.548530595   16.134026916   17.087356075
    1.836727880    3.556995126   16.187667237   17.158414613
    1.843906511    3.566459401   16.244635656   17.233123907
    1.851085142    3.575942540   16.302154552   17.310198366
    1.858263773    3.585328519   16.359960417   17.389845932
    1.865442404    3.594681133   16.418342421   17.472287444
    1.872621035    3.603984030   16.477449818   17.555934382
    1.879799666    3.612750193   16.536362362   17.631503818
    1.886978297    3.619222709   16.591213277   17.668970515
    1.894156928    3.622084454   16.639247275   17.645504274
    1.901335559    3.626384723   16.692819327   17.642514850
    1.908514190    3.634899332   16.758765310   17.704552071
    1.915692821    3.645292159   16.830804639   17.794658369
    1.922871452    3.655413962   16.898527528   17.888566996
    1.930050083    3.661676830   16.932818684   17.970632919
    1.937228715    3.658380764   16.884337964   18.022629531
    1.944407346    3.651980997   16.808789841   18.064856400
    1.951585977    3.655232612   16.816445476   18.137263742
    1.958764608    3.664870330   16.878470270   18.230219997
    1.965943239    3.676250860   16.953992804   18.329820609
    1.973121870    3.687959062   17.030059464   18.432163883
    1.980300501    3.699801402   17.104260902   18.537135148
    1.987479132    3.711847773   17.176770496   18.645295017
    1.994657763    3.723994850   17.248195427   18.755806220
    2.001836394    3.735139067   17.318941154   18.860962078
    2.009015025    3.740924423   17.388682323   18.930730613
    2.016193656    3.734469767   17.456528008   18.917768365
    2.023372287    3.725436753   17.524909296   18.888671164
    2.030550918    3.728814122   17.597347904   18.946774953
    2.037729549    3.739646274   17.673364231   19.058187923
    2.044908180    3.752330048   17.752296185   19.184491025
    2.052086811    3.765177690   17.833769202   19.313587507
    2.059265442    3.777888854   17.915284464   19.440050935
    2.066444073    3.790423288   17.985966768   19.550303529
    2.073622705    3.802705139   18.024639881   19.618363545
    2.080801336    3.815098080   18.051259237   19.668919882
    2.087979967    3.828297983   18.117383112   19.765654385
    2.095158598    3.842361596   18.213531148   19.897657175
    2.102337229    3.857145724   18.317271558   20.041972122
    2.109515860    3.872165376   18.403838819   20.187921655
    2.116694491    3.885874524   18.421514866   20.323681927
    2.123873122    3.897676551   18.364233703   20.445592224
    2.131051753    3.909156872   18.358462079   20.566491746
    2.138230384    3.911596626   18.398244512   20.635853661
    2.145409015    3.893444771   18.401138108   20.584572764
    2.152587646    3.878575469   18.415879277   20.552416678
    2.159766277    3.886283145   18.494026509   20.652528387
    2.166944908    3.904779817   18.600264050   20.815116904
    2.174123539    3.925268097   18.708401207   20.986892000
    2.181302170    3.943598091   18.804472429   21.139076275
    2.188480801    3.957949744   18.881505501   21.257020845
    2.195659432    3.974171417   18.961839160   21.384059564
    2.202838063    3.996017280   19.059156816   21.546615567
    2.210016694    4.021587402   19.164558354   21.726749362
    2.217195326    4.049978465   19.272698287   21.913868213
    2.224373957    4.081121948   19.381722888   22.105562838
    2.231552588    4.113588650   19.487420177   22.299769635
    2.238731219    4.139947702   19.575377767   22.487837132
    2.245909850    4.142086852   19.630683892   22.655095229
    2.253088481    4.091724115   19.686635159   22.799734187
    2.260267112    3.976245666   19.769732171   22.930277047
    2.267445743    3.898430638   19.876756661   23.101318887
    2.274624374    3.900005833   19.998703957   23.326961279
    2.281803005    3.932894318   20.128000347   23.581671971
    2.288981636    3.971170949   20.262970110   23.854484046
    2.296160267    4.008359410   20.404011762   24.142952430
    2.303338898    4.043270096   20.549653400   24.438309690
    2.310517529    4.074633802   20.690169871   24.699602513
    2.317696160    4.100311668   20.804434670   24.835853844
    2.324874791    4.121944854   20.881269187   24.873410954
    2.332053422    4.142532080   20.884921874   24.992387815
    2.339232053    4.157713919   20.729229931   25.153101965
    2.346410684    4.176089219   20.604405230   25.374620508
    2.353589316    4.201212543   20.666730740   25.633832810
    2.360767947    4.216497549   20.802961833   25.698979388
    2.367946578    4.225770900   20.948710953   25.658462441
    2.375125209    4.248608142   21.104466402   25.875611345
    2.382303840    4.263396456   21.245591338   26.228424489
    2.389482471    4.237215322   21.345966044   26.509688814
    2.396661102    4.207793349   21.444196532   26.802135754
    2.403839733    4.222498002   21.584288550   27.191913654
    2.411018364    4.247141300   21.739826293   27.386987738
    2.418196995    4.246400893   21.888424475   27.138278670
    2.425375626    4.234780143   22.032941058   26.970881138
    2.432554257    4.218646151   22.166331462   27.200227866
    2.439732888    4.212504350   22.296326245   27.608585255
    2.446911519    4.232815627   22.443938713   27.996209247
    2.454090150    4.264395526   22.609611782   28.291286368
    2.461268781    4.307063085   22.794201525   28.755073654
    2.468447412    4.354269645   22.984851108   29.380642606
    2.475626043    4.390503309   23.150086012   29.976126622
    2.482804674    4.415963501   23.282576887   30.486964715
    2.489983306    4.457019703   23.450609138   31.134587023
    2.497161937    4.511764734   23.660072252   31.969365104
    2.504340568    4.548379316   23.822182102   32.815056873
    2.511519199    4.517055393   23.790414640   33.350746282
    2.518697830    4.441058895   23.620778466   33.229106519
    2.525876461    4.407710754   23.602922872   32.734508292
    2.533055092    4.407810775   23.719620464   32.882293166
    2.540233723    4.426078793   23.916612588   33.844233033
