# energy grid [eV]     epsr_x  epsr_y  epsr_z
#
    0.200000000   20.993701056   23.319686840   23.929981294
    0.207178631   20.999274127   23.326132820   23.936570833
    0.214357262   21.005047160   23.332810216   23.943396927
    0.221535893   21.011020518   23.339719462   23.950460016
    0.228714524   21.017194576   23.346861006   23.957760558
    0.235893155   21.023569723   23.354235312   23.965299026
    0.243071786   21.030146359   23.361842862   23.973075909
    0.250250417   21.036924901   23.369684151   23.981091713
    0.257429048   21.043905775   23.377759691   23.989346958
    0.264607679   21.051089424   23.386070009   23.997842182
    0.271786311   21.058476301   23.394615650   24.006577939
    0.278964942   21.066066874   23.403397173   24.015554798
    0.286143573   21.073861626   23.412415154   24.024773347
    0.293322204   21.081861051   23.421670186   24.034234189
    0.300500835   21.090065658   23.431162877   24.043937944
    0.307679466   21.098475969   23.440893852   24.053885248
    0.314858097   21.107092521   23.450863754   24.064076756
    0.322036728   21.115915865   23.461073242   24.074513137
    0.329215359   21.124946564   23.471522989   24.085195079
    0.336393990   21.134185197   23.482213690   24.096123289
    0.343572621   21.143632357   23.493146052   24.107298487
    0.350751252   21.153288651   23.504320804   24.118721415
    0.357929883   21.163154700   23.515738689   24.130392830
    0.365108514   21.173231141   23.527400468   24.142313507
    0.372287145   21.183518623   23.539306921   24.154484240
    0.379465776   21.194017813   23.551458845   24.166905840
    0.386644407   21.204729391   23.563857053   24.179579136
    0.393823038   21.215654051   23.576502380   24.192504977
    0.401001669   21.226792505   23.589395675   24.205684229
    0.408180301   21.238145478   23.602537808   24.219117778
    0.415358932   21.249713711   23.615929667   24.232806526
    0.422537563   21.261497960   23.629572158   24.246751397
    0.429716194   21.273498998   23.643466207   24.260953333
    0.436894825   21.285717612   23.657612756   24.275413296
    0.444073456   21.298154606   23.672012771   24.290132265
    0.451252087   21.310810800   23.686667232   24.305111242
    0.458430718   21.323687029   23.701577144   24.320351247
    0.465609349   21.336784147   23.716743526   24.335853320
    0.472787980   21.350103022   23.732167421   24.351618522
    0.479966611   21.363644539   23.747849891   24.367647934
    0.487145242   21.377409600   23.763792017   24.383942657
    0.494323873   21.391399125   23.779994903   24.400503814
    0.501502504   21.405614049   23.796459671   24.417332548
    0.508681135   21.420055328   23.813187465   24.434430024
    0.515859766   21.434723930   23.830179451   24.451797428
    0.523038397   21.449620846   23.847436814   24.469435969
    0.530217028   21.464747082   23.864960763   24.487346875
    0.537395659   21.480103662   23.882752528   24.505531399
    0.544574290   21.495691629   23.900813360   24.523990815
    0.551752922   21.511512044   23.919144533   24.542726421
    0.558931553   21.527565986   23.937747344   24.561739536
    0.566110184   21.543854555   23.956623112   24.581031503
    0.573288815   21.560378868   23.975773179   24.600603689
    0.580467446   21.577140061   23.995198912   24.620457484
    0.587646077   21.594139291   24.014901698   24.640594302
    0.594824708   21.611377733   24.034882950   24.661015580
    0.602003339   21.628856582   24.055144107   24.681722771
    0.609181970   21.646577056   24.075686627   24.702717333
    0.616360601   21.664540389   24.096511998   24.724000754
    0.623539232   21.682747838   24.117621731   24.745574650
    0.630717863   21.701200680   24.139017362   24.767440630
    0.637896494   21.719900215   24.160700452   24.789600247
    0.645075125   21.738847761   24.182672576   24.812055095
    0.652253756   21.758044660   24.204935327   24.834806811
    0.659432387   21.777492275   24.227490349   24.857857062
    0.666611018   21.797191991   24.250339367   24.881207547
    0.673789649   21.817145217   24.273484078   24.904859990
    0.680968280   21.837353381   24.296926180   24.928816144
    0.688146912   21.857817938   24.320667414   24.953077789
    0.695325543   21.878540363   24.344709556   24.977646735
    0.702504174   21.899522157   24.369054413   25.002524820
    0.709682805   21.920764843   24.393703820   25.027713908
    0.716861436   21.942269970   24.418659643   25.053215884
    0.724040067   21.964039110   24.443923776   25.079032641
    0.731218698   21.986073860   24.469498143   25.105166142
    0.738397329   22.008375842   24.495384703   25.131618466
    0.745575960   22.030946706   24.521585440   25.158391638
    0.752754591   22.053788119   24.548102372   25.185487679
    0.759933222   22.076901768   24.574937544   25.212908659
    0.767111853   22.100289351   24.602093024   25.240656693
    0.774290484   22.123952638   24.629570928   25.268733933
    0.781469115   22.147893463   24.657373430   25.297142566
    0.788647746   22.172113613   24.685502705   25.325884811
    0.795826377   22.196614925   24.713960973   25.354962919
    0.803005008   22.221399279   24.742750491   25.384379168
    0.810183639   22.246468553   24.771873528   25.414135864
    0.817362270   22.271824658   24.801332408   25.444235394
    0.824540902   22.297469549   24.831129499   25.474680196
    0.831719533   22.323405205   24.861267187   25.505472691
    0.838898164   22.349633633   24.891747904   25.536615343
    0.846076795   22.376156864   24.922574099   25.568110659
    0.853255426   22.402976962   24.953748260   25.599961187
    0.860434057   22.430096061   24.985272997   25.632169520
    0.867612688   22.457516326   25.017150923   25.664738293
    0.874791319   22.485239913   25.049384637   25.697670175
    0.881969950   22.513269015   25.081976791   25.730967880
    0.889148581   22.541605868   25.114930091   25.764634164
    0.896327212   22.570252746   25.148247290   25.798671825
    0.903505843   22.599211956   25.181931180   25.833083706
    0.910684474   22.628485844   25.215984607   25.867872691
    0.917863105   22.658076792   25.250410459   25.903041699
    0.925041736   22.687987213   25.285211662   25.938593685
    0.932220367   22.718219560   25.320391186   25.974531693
    0.939398998   22.748776323   25.355952052   26.010858844
    0.946577629   22.779660032   25.391897327   26.047578246
    0.953756260   22.810873252   25.428230126   26.084693048
    0.960934891   22.842418593   25.464953613   26.122206459
    0.968113523   22.874298702   25.502071002   26.160121745
    0.975292154   22.906516267   25.539585557   26.198442224
    0.982470785   22.939074018   25.577500594   26.237171266
    0.989649416   22.971974727   25.615819480   26.276312295
    0.996828047   23.005221209   25.654545636   26.315868786
    1.004006678   23.038816324   25.693682535   26.355844272
    1.011185309   23.072762973   25.733233708   26.396242338
    1.018363940   23.107064105   25.773202740   26.437066629
    1.025542571   23.141722714   25.813593271   26.478320845
    1.032721202   23.176741841   25.854409003   26.520008745
    1.039899833   23.212124573   25.895653692   26.562134149
    1.047078464   23.247874047   25.937331158   26.604700936
    1.054257095   23.283993447   25.979445279   26.647713047
    1.061435726   23.320486010   26.021999996   26.691174487
    1.068614357   23.357355021   26.064999312   26.735089322
    1.075792988   23.394603818   26.108447297   26.779461687
    1.082971619   23.432235791   26.152348084   26.824295779
    1.090150250   23.470254385   26.196705872   26.869595866
    1.097328881   23.508663097   26.241524930   26.915366282
    1.104507513   23.547465482   26.286809593   26.961611433
    1.111686144   23.586665149   26.332564270   27.008335795
    1.118864775   23.626265768   26.378793438   27.055543916
    1.126043406   23.666271063   26.425501650   27.103240419
    1.133222037   23.706684822   26.472693530   27.151430001
    1.140400668   23.747510891   26.520373781   27.200117437
    1.147579299   23.788753178   26.568547181   27.249307580
    1.154757930   23.830415655   26.617218587   27.299005360
    1.161936561   23.872502358   26.666392936   27.349215791
    1.169115192   23.915017388   26.716075248   27.399943969
    1.176293823   23.957964912   26.766270624   27.451195074
    1.183472454   24.001349166   26.816984251   27.502974371
    1.190651085   24.045174455   26.868221402   27.555287213
    1.197829716   24.089445154   26.919987440   27.608139042
    1.205008347   24.134165710   26.972287815   27.661535393
    1.212186978   24.179340643   27.025128071   27.715481890
    1.219365609   24.224974548   27.078513844   27.769984256
    1.226544240   24.271072095   27.132450867   27.825048307
    1.233722871   24.317638035   27.186944968   27.880679958
    1.240901503   24.364677193   27.242002078   27.936885226
    1.248080134   24.412194480   27.297628225   27.993670229
    1.255258765   24.460194884   27.353829543   28.051041191
    1.262437396   24.508683481   27.410612271   28.109004440
    1.269616027   24.557665432   27.467982756   28.167566416
    1.276794658   24.607145984   27.525947455   28.226733669
    1.283973289   24.657130473   27.584512936   28.286512860
    1.291151920   24.707624328   27.643685882   28.346910770
    1.298330551   24.758633070   27.703473094   28.407934296
    1.305509182   24.810162313   27.763881492   28.469590454
    1.312687813   24.862217770   27.824918119   28.531886387
    1.319866444   24.914805252   27.886590139   28.594829361
    1.327045075   24.967930670   27.948904848   28.658426772
    1.334223706   25.021600040   28.011869669   28.722686147
    1.341402337   25.075819481   28.075492159   28.787615147
    1.348580968   25.130595220   28.139780011   28.853221570
    1.355759599   25.185933595   28.204741057   28.919513355
    1.362938230   25.241841054   28.270383269   28.986498583
    1.370116861   25.298324160   28.336714767   29.054185483
    1.377295492   25.355389595   28.403743817   29.122582432
    1.384474124   25.413044157   28.471478838   29.191697960
    1.391652755   25.471294769   28.539928402   29.261540755
    1.398831386   25.530148478   28.609101242   29.332119664
    1.406010017   25.589612458   28.679006252   29.403443697
    1.413188648   25.649694014   28.749652492   29.475522032
    1.420367279   25.710400584   28.821049191   29.548364018
    1.427545910   25.771739743   28.893205754   29.621979178
    1.434724541   25.833719205   28.966131760   29.696377217
    1.441903172   25.896346827   29.039836974   29.771568021
    1.449081803   25.959630612   29.114331344   29.847561664
    1.456260434   26.023578711   29.189625010   29.924368412
    1.463439065   26.088199430   29.265728308   30.001998727
    1.470617696   26.153501230   29.342651772   30.080463275
    1.477796327   26.219492733   29.420406141   30.159772925
    1.484974958   26.286182722   29.499002365   30.239938759
    1.492153589   26.353580152   29.578451607   30.320972075
    1.499332220   26.421694147   29.658765252   30.402884391
    1.506510851   26.490534006   29.739954910   30.485687455
    1.513689482   26.560109211   29.822032422   30.569393245
    1.520868114   26.630429427   29.905009865   30.654013978
    1.528046745   26.701504506   29.988899560   30.739562117
    1.535225376   26.773344498   30.073714077   30.826050375
    1.542404007   26.845959648   30.159466244   30.913491722
    1.549582638   26.919360405   30.246169149   31.001899393
    1.556761269   26.993557429   30.333836151   31.091286893
    1.563939900   27.068561593   30.422480886   31.181668008
    1.571118531   27.144383988   30.512117274   31.273056807
    1.578297162   27.221035935   30.602759531   31.365467657
    1.585475793   27.298528982   30.694422171   31.458915225
    1.592654424   27.376874916   30.787120012   31.553414483
    1.599833055   27.456085753   30.880868159   31.648980680
    1.607011686   27.536173712   30.975681914   31.745629242
    1.614190317   27.617151131   31.071576560   31.843375518
    1.621368948   27.699030554   31.168567640   31.942235209
    1.628547579   27.781825222   31.266672175   32.042225853
    1.635726210   27.865548672   31.365907535   32.143365039
    1.642904841   27.950214511   31.466290958   32.245669659
    1.650083472   28.035836454   31.567839607   32.349156820
    1.657262104   28.122429172   31.670571983   32.453845638
    1.664440735   28.210007440   31.774506611   32.559755288
    1.671619366   28.298585822   31.879662048   32.666904273
    1.678797997   28.388179092   31.986056466   32.775310862
    1.685976628   28.478802694   32.093709509   32.884994693
    1.693155259   28.570472775   32.202642701   32.995977224
    1.700333890   28.663205718   32.312877414   33.108279911
    1.707512521   28.757017901   32.424433865   33.221923282
    1.714691152   28.851926100   32.537332944   33.336928493
    1.721869783   28.947947560   32.651596449   33.453317545
    1.729048414   29.045099876   32.767246788   33.571113043
    1.736227045   29.143400786   32.884306775   33.690338053
    1.743405676   29.242868200   33.002799587   33.811016088
    1.750584307   29.343521541   33.122749571   33.933171691
    1.757762938   29.445380805   33.244181929   34.056830026
    1.764941569   29.548465776   33.367122248   34.182016525
    1.772120200   29.652797031   33.491596622   34.308757216
    1.779298831   29.758394735   33.617631068   34.437078407
    1.786477462   29.865280955   33.745253235   34.567008411
    1.793656093   29.973477748   33.874491347   34.698575573
    1.800834725   30.083006591   34.005373853   34.831807982
    1.808013356   30.193889670   34.137929740   34.966735061
    1.815191987   30.306150860   34.272188963   35.103387323
    1.822370618   30.419815211   34.408182726   35.241796174
    1.829549249   30.534907096   34.545942753   35.381992964
    1.836727880   30.651451127   34.685501368   35.524010156
    1.843906511   30.769472541   34.826891611   35.667881172
    1.851085142   30.888997558   34.970147599   35.813639956
    1.858263773   31.010054597   35.115305169   35.961322584
    1.865442404   31.132671913   35.262400491   36.110965683
    1.872621035   31.256877589   35.411470154   36.262605929
    1.879799666   31.382700552   35.562552099   36.416280964
    1.886978297   31.510171510   35.715686087   36.572030843
    1.894156928   31.639320786   35.870912139   36.729895915
    1.901335559   31.770179297   36.028270714   36.889916671
    1.908514190   31.902779234   36.187803739   37.052135249
    1.915692821   32.037156865   36.349556542   37.216596690
    1.922871452   32.173348334   36.513574916   37.383346548
    1.930050083   32.311386609   36.679903699   37.552429792
    1.937228715   32.451307185   36.848589909   37.723893379
    1.944407346   32.593148203   37.019682617   37.897786612
    1.951585977   32.736947020   37.193231211   38.074158986
    1.958764608   32.882744199   37.369288474   38.253063556
    1.965943239   33.030581905   37.547909245   38.434555139
    1.973121870   33.180500491   37.729147430   38.618686986
    1.980300501   33.332542131   37.913059042   38.805514554
    1.987479132   33.486751591   38.099702889   38.995096631
    1.994657763   33.643174905   38.289139407   39.187494155
    2.001836394   33.801859703   38.481431402   39.382770158
    2.009015025   33.962854240   38.676642853   39.580988305
    2.016193656   34.126207755   38.874838918   39.782213308
    2.023372287   34.291972486   39.076088312   39.986513483
    2.030550918   34.460201827   39.280461846   40.193959229
    2.037729549   34.630950113   39.488031854   40.404622499
    2.044908180   34.804273470   39.698873131   40.618577777
    2.052086811   34.980230009   39.913063123   40.835902170
    2.059265442   35.158879807   40.130682085   41.056675446
    2.066444073   35.340284922   40.351813037   41.280979992
    2.073622705   35.524509486   40.576541961   41.508901006
    2.080801336   35.711619750   40.804957779   41.740526628
    2.087979967   35.901684113   41.037152211   41.975947926
    2.095158598   36.094773276   41.273220238   42.215259126
    2.102337229   36.290960354   41.513260307   42.458557783
    2.109515860   36.490320975   41.757374437   42.705944911
    2.116694491   36.692933389   42.005668361   42.957525143
    2.123873122   36.898878585   42.258251701   43.213406889
    2.131051753   37.108240416   42.515238147   43.473702523
    2.138230384   37.321105733   42.776745658   43.738528561
    2.145409015   37.537564523   43.042896670   44.008005867
    2.152587646   37.757710055   43.313818313   44.282259861
    2.159766277   37.981639038   43.589642653   44.561420741
    2.166944908   38.209451789   43.870506933   44.845623720
    2.174123539   38.441252403   44.156553844   45.135009281
    2.181302170   38.677148940   44.447931804   45.429723438
    2.188480801   38.917253627   44.744795258   45.729918024
    2.195659432   39.161683062   45.047304994   46.035750992
    2.202838063   39.410558438   45.355628487   46.347386731
    2.210016694   39.664005777   45.669940259   46.664996413
    2.217195326   39.922156188   45.990422251   46.988758339
    2.224373957   40.185146119   46.317264217   47.318858295
    2.231552588   40.453117646   46.650664121   47.655489912
    2.238731219   40.726218798   46.990828784   47.998855346
    2.245909850   41.004603902   47.337974502   48.349165899
    2.253088481   41.288433884   47.692327312   48.706642148
    2.260267112   41.577876656   48.054123637   49.071514577
    2.267445743   41.873107475   48.423610703   49.444023897
    2.274624374   42.174309400   48.801047429   49.824421955
    2.281803005   42.481673760   49.186705202   50.212972473
    2.288981636   42.795400632   49.580868608   50.609951715
    2.296160267   43.115699365   49.983836241   51.015649224
    2.303338898   43.442789137   50.395921555   51.430368618
    2.310517529   43.776899559   50.817453786   51.854428434
    2.317696160   44.118271342   51.248779355   52.288163426
    2.324874791   44.467157001   51.690263223   52.731925805
    2.332053422   44.823821586   52.142289168   53.186085500
    2.339232053   45.188543507   52.605261340   53.651031571
    2.346410684   45.561615433   53.079606121   54.127173915
    2.353589316   45.943345265   53.565774033   54.614945050
    2.360767947   46.334057157   54.064241041   55.114801375
    2.367946578   46.734092610   54.575509932   55.627224286
    2.375125209   47.143811678   55.100112694   56.152722303
    2.382303840   47.563594217   55.638613455   56.691833972
    2.389482471   47.993841479   56.191610690   57.245129794
    2.396661102   48.434978164   56.759739972   57.813214177
    2.403839733   48.887453383   57.343675939   58.396727827
    2.411018364   49.351743307   57.944136348   58.996351243
    2.418196995   49.828352785   58.561885520   59.612807734
    2.425375626   50.317816861   59.197738598   60.246867680
    2.432554257   50.820704133   59.852565948   60.899352039
    2.439732888   51.337619597   60.527297375   61.571135984
    2.446911519   51.869207568   61.222928086   62.263154390
    2.454090150   52.416154885   61.940524774   62.976407172
    2.461268781   52.979194928   62.681232207   63.711965481
    2.468447412   53.559111807   63.446280507   64.470978448
    2.475626043   54.156743757   64.236992955   65.254679524
    2.482804674   54.772988974   65.054795511   66.064394621
    2.489983306   55.408814356   65.901231124   66.901552355
    2.497161937   56.065258817   66.777970851   67.767697343
    2.504340568   56.743437393   67.686823385   68.664501135
    2.511519199   57.444551538   68.629748391   69.593770286
    2.518697830   58.169901455   69.608880655   70.557466442
    2.525876461   58.920898703   70.626551442   71.557722539
    2.533055092   59.699074324   71.685305987   72.596862098
    2.540233723   60.506085385   72.787927381   73.677424011
