# energy grid [eV]     ieps_x  ieps_y  ieps_z
#
    0.200000000   13.532836062   15.003544732   15.410126494
    0.207178631   13.529351875   14.999515538   15.406005969
    0.214357262   13.525746975   14.995346830   15.401742758
    0.221535893   13.522021583   14.991038872   15.397337130
    0.228714524   13.518175927   14.986591937   15.392789362
    0.235893155   13.514210242   14.982006304   15.388099739
    0.243071786   13.510124768   14.977282263   15.383268554
    0.250250417   13.505919756   14.972420109   15.378296112
    0.257429048   13.501595460   14.967420148   15.373182722
    0.264607679   13.497152144   14.962282695   15.367928704
    0.271786311   13.492590077   14.957008071   15.362534387
    0.278964942   13.487909536   14.951596605   15.357000106
    0.286143573   13.483110804   14.946048637   15.351326206
    0.293322204   13.478194171   14.940364512   15.345513040
    0.300500835   13.473159934   14.934544585   15.339560968
    0.307679466   13.468008397   14.928589218   15.333470360
    0.314858097   13.462739869   14.922498781   15.327241593
    0.322036728   13.457354668   14.916273652   15.320875052
    0.329215359   13.451853117   14.909914218   15.314371130
    0.336393990   13.446235545   14.903420870   15.307730227
    0.343572621   13.440502290   14.896794011   15.300952754
    0.350751252   13.434653694   14.890034049   15.294039125
    0.357929883   13.428690105   14.883141401   15.286989765
    0.365108514   13.422611879   14.876116491   15.279805106
    0.372287145   13.416419378   14.868959748   15.272485588
    0.379465776   13.410112970   14.861671613   15.265031656
    0.386644407   13.403693027   14.854252531   15.257443766
    0.393823038   13.397159931   14.846702954   15.249722378
    0.401001669   13.390514067   14.839023344   15.241867962
    0.408180301   13.383755828   14.831214166   15.233880993
    0.415358932   13.376885610   14.823275896   15.225761955
    0.422537563   13.369903817   14.815209013   15.217511338
    0.429716194   13.362810860   14.807014007   15.209129638
    0.436894825   13.355607152   14.798691372   15.200617360
    0.444073456   13.348293116   14.790241608   15.191975016
    0.451252087   13.340869176   14.781665225   15.183203121
    0.458430718   13.333335766   14.772962736   15.174302201
    0.465609349   13.325693323   14.764134663   15.165272787
    0.472787980   13.317942288   14.755181533   15.156115415
    0.479966611   13.310083111   14.746103879   15.146830630
    0.487145242   13.302116245   14.736902242   15.137418982
    0.494323873   13.294042149   14.727577166   15.127881028
    0.501502504   13.285861286   14.718129206   15.118217328
    0.508681135   13.277574124   14.708558918   15.108428454
    0.515859766   13.269181139   14.698866866   15.098514979
    0.523038397   13.260682808   14.689053620   15.088477483
    0.530217028   13.252079615   14.679119757   15.078316554
    0.537395659   13.243372050   14.669065856   15.068032783
    0.544574290   13.234560604   14.658892504   15.057626770
    0.551752922   13.225645776   14.648600295   15.047099116
    0.558931553   13.216628068   14.638189824   15.036450431
    0.566110184   13.207507987   14.627661696   15.025681330
    0.573288815   13.198286045   14.617016519   15.014792433
    0.580467446   13.188962758   14.606254905   15.003784364
    0.587646077   13.179538645   14.595377473   14.992657754
    0.594824708   13.170014231   14.584384846   14.981413237
    0.602003339   13.160390045   14.573277653   14.970051455
    0.609181970   13.150666620   14.562056526   14.958573053
    0.616360601   13.140844491   14.550722103   14.946978680
    0.623539232   13.130924200   14.539275027   14.935268990
    0.630717863   13.120906291   14.527715943   14.923444645
    0.637896494   13.110791312   14.516045504   14.911506306
    0.645075125   13.100579816   14.504264365   14.899454643
    0.652253756   13.090272359   14.492373186   14.887290328
    0.659432387   13.079869499   14.480372630   14.875014038
    0.666611018   13.069371800   14.468263367   14.862626454
    0.673789649   13.058779827   14.456046067   14.850128261
    0.680968280   13.048094152   14.443721408   14.837520148
    0.688146912   13.037315345   14.431290068   14.824802809
    0.695325543   13.026443985   14.418752732   14.811976940
    0.702504174   13.015480650   14.406110086   14.799043242
    0.709682805   13.004425922   14.393362821   14.786002419
    0.716861436   12.993280388   14.380511632   14.772855178
    0.724040067   12.982044634   14.367557216   14.759602232
    0.731218698   12.970719254   14.354500274   14.746244293
    0.738397329   12.959304840   14.341341509   14.732782081
    0.745575960   12.947801990   14.328081630   14.719216316
    0.752754591   12.936211302   14.314721345   14.705547723
    0.759933222   12.924533379   14.301261369   14.691777027
    0.767111853   12.912768826   14.287702417   14.677904960
    0.774290484   12.900918248   14.274045207   14.663932254
    0.781469115   12.888982256   14.260290461   14.649859644
    0.788647746   12.876961460   14.246438903   14.635687868
    0.795826377   12.864856474   14.232491259   14.621417668
    0.803005008   12.852667915   14.218448258   14.607049786
    0.810183639   12.840396400   14.204310630   14.592584968
    0.817362270   12.828042548   14.190079110   14.578023962
    0.824540902   12.815606982   14.175754432   14.563367516
    0.831719533   12.803090325   14.161337334   14.548616385
    0.838898164   12.790493203   14.146828555   14.533771321
    0.846076795   12.777816241   14.132228837   14.518833080
    0.853255426   12.765060070   14.117538922   14.503802421
    0.860434057   12.752225320   14.102759556   14.488680102
    0.867612688   12.739312621   14.087891484   14.473466886
    0.874791319   12.726322608   14.072935455   14.458163534
    0.881969950   12.713255914   14.057892218   14.442770812
    0.889148581   12.700113175   14.042762523   14.427289484
    0.896327212   12.686895029   14.027547123   14.411720319
    0.903505843   12.673602113   14.012246770   14.396064083
    0.910684474   12.660235066   13.996862220   14.380321547
    0.917863105   12.646794529   13.981394226   14.364493481
    0.925041736   12.633281143   13.965843547   14.348580657
    0.932220367   12.619695549   13.950210938   14.332583846
    0.939398998   12.606038391   13.934497158   14.316503823
    0.946577629   12.592310311   13.918702966   14.300341360
    0.953756260   12.578511954   13.902829120   14.284097233
    0.960934891   12.564643966   13.886876381   14.267772217
    0.968113523   12.550706989   13.870845509   14.251367088
    0.975292154   12.536701672   13.854737265   14.234882621
    0.982470785   12.522628660   13.838552409   14.218319594
    0.989649416   12.508488598   13.822291703   14.201678782
    0.996828047   12.494282135   13.805955909   14.184960963
    1.004006678   12.480009917   13.789545788   14.168166914
    1.011185309   12.465672591   13.773062102   14.151297412
    1.018363940   12.451270805   13.756505611   14.134353234
    1.025542571   12.436805205   13.739877079   14.117335157
    1.032721202   12.422276439   13.723177265   14.100243957
    1.039899833   12.407685154   13.706406932   14.083080412
    1.047078464   12.393031998   13.689566838   14.065845297
    1.054257095   12.378317616   13.672657746   14.048539389
    1.061435726   12.363542655   13.655680414   14.031163462
    1.068614357   12.348707763   13.638635601   14.013718291
    1.075792988   12.333813583   13.621524067   13.996204650
    1.082971619   12.318860762   13.604346568   13.978623314
    1.090150250   12.303849945   13.587103863   13.960975054
    1.097328881   12.288781776   13.569796707   13.943260642
    1.104507513   12.273656899   13.552425856   13.925480850
    1.111686144   12.258475956   13.534992065   13.907636448
    1.118864775   12.243239591   13.517496086   13.889728204
    1.126043406   12.227948444   13.499938673   13.871756887
    1.133222037   12.212603156   13.482320576   13.853723263
    1.140400668   12.197204368   13.464642545   13.835628098
    1.147579299   12.181752718   13.446905330   13.817472157
    1.154757930   12.166248845   13.429109678   13.799256202
    1.161936561   12.150693384   13.411256335   13.780980995
    1.169115192   12.135086973   13.393346045   13.762647297
    1.176293823   12.119430245   13.375379552   13.744255866
    1.183472454   12.103723835   13.357357598   13.725807458
    1.190651085   12.087968375   13.339280921   13.707302831
    1.197829716   12.072164495   13.321150262   13.688742736
    1.205008347   12.056312826   13.302966355   13.670127928
    1.212186978   12.040413995   13.284729937   13.651459155
    1.219365609   12.024468631   13.266441740   13.632737166
    1.226544240   12.008477358   13.248102496   13.613962708
    1.233722871   11.992440801   13.229712932   13.595136525
    1.240901503   11.976359582   13.211273778   13.576259361
    1.248080134   11.960234322   13.192785757   13.557331954
    1.255258765   11.944065640   13.174249594   13.538355045
    1.262437396   11.927854153   13.155666008   13.519329368
    1.269616027   11.911600479   13.137035719   13.500255659
    1.276794658   11.895305231   13.118359443   13.481134648
    1.283973289   11.878969020   13.099637895   13.461967066
    1.291151920   11.862592459   13.080871787   13.442753640
    1.298330551   11.846176155   13.062061828   13.423495094
    1.305509182   11.829720716   13.043208725   13.404192150
    1.312687813   11.813226745   13.024313184   13.384845530
    1.319866444   11.796694847   13.005375905   13.365455948
    1.327045075   11.780125621   12.986397591   13.346024122
    1.334223706   11.763519667   12.967378936   13.326550762
    1.341402337   11.746877582   12.948320637   13.307036578
    1.348580968   11.730199959   12.929223384   13.287482277
    1.355759599   11.713487392   12.910087867   13.267888563
    1.362938230   11.696740470   12.890914773   13.248256138
    1.370116861   11.679959782   12.871704785   13.228585699
    1.377295492   11.663145913   12.852458584   13.208877943
    1.384474124   11.646299447   12.833176849   13.189133562
    1.391652755   11.629420966   12.813860254   13.169353246
    1.398831386   11.612511047   12.794509472   13.149537682
    1.406010017   11.595570268   12.775125172   13.129687554
    1.413188648   11.578599203   12.755708020   13.109803543
    1.420367279   11.561598423   12.736258681   13.089886326
    1.427545910   11.544568497   12.716777813   13.069936580
    1.434724541   11.527509993   12.697266076   13.049954974
    1.441903172   11.510423474   12.677724122   13.029942178
    1.449081803   11.493309502   12.658152603   13.009898858
    1.456260434   11.476168637   12.638552167   12.989825674
    1.463439065   11.459001435   12.618923459   12.969723287
    1.470617696   11.441808449   12.599267120   12.949592352
    1.477796327   11.424590232   12.579583789   12.929433521
    1.484974958   11.407347332   12.559874100   12.909247444
    1.492153589   11.390080295   12.540138685   12.889034765
    1.499332220   11.372789664   12.520378174   12.868796129
    1.506510851   11.355475981   12.500593191   12.848532173
    1.513689482   11.338139782   12.480784358   12.828243534
    1.520868114   11.320781604   12.460952293   12.807930843
    1.528046745   11.303401977   12.441097612   12.787594730
    1.535225376   11.286001433   12.421220926   12.767235820
    1.542404007   11.268580498   12.401322844   12.746854734
    1.549582638   11.251139696   12.381403970   12.726452091
    1.556761269   11.233679548   12.361464905   12.706028506
    1.563939900   11.216200572   12.341506248   12.685584589
    1.571118531   11.198703284   12.321528593   12.665120950
    1.578297162   11.181188196   12.301532531   12.644638191
    1.585475793   11.163655817   12.281518649   12.624136914
    1.592654424   11.146106656   12.261487531   12.603617715
    1.599833055   11.128541214   12.241439757   12.583081188
    1.607011686   11.110959994   12.221375903   12.562527922
    1.614190317   11.093363493   12.201296543   12.541958503
    1.621368948   11.075752205   12.181202246   12.521373514
    1.628547579   11.058126623   12.161093579   12.500773534
    1.635726210   11.040487236   12.140971102   12.480159137
    1.642904841   11.022834530   12.120835375   12.459530895
    1.650083472   11.005168988   12.100686953   12.438889375
    1.657262104   10.987491089   12.080526387   12.418235142
    1.664440735   10.969801310   12.060354225   12.397568755
    1.671619366   10.952100126   12.040171010   12.376890771
    1.678797997   10.934388006   12.019977283   12.356201743
    1.685976628   10.916665420   11.999773581   12.335502219
    1.693155259   10.898932831   11.979560436   12.314792744
    1.700333890   10.881190701   11.959338377   12.294073861
    1.707512521   10.863439488   11.939107930   12.273346106
    1.714691152   10.845679649   11.918869618   12.252610014
    1.721869783   10.827911635   11.898623956   12.231866115
    1.729048414   10.810135896   11.878371462   12.211114935
    1.736227045   10.792352878   11.858112643   12.190356996
    1.743405676   10.774563024   11.837848009   12.169592817
    1.750584307   10.756766773   11.817578061   12.148822913
    1.757762938   10.738964564   11.797303300   12.128047795
    1.764941569   10.721156829   11.777024220   12.107267971
    1.772120200   10.703344000   11.756741315   12.086483943
    1.779298831   10.685526503   11.736455071   12.065696213
    1.786477462   10.667704764   11.716165974   12.044905274
    1.793656093   10.649879203   11.695874504   12.024111621
    1.800834725   10.632050238   11.675581139   12.003315740
    1.808013356   10.614218286   11.655286351   11.982518116
    1.815191987   10.596383757   11.634990611   11.961719231
    1.822370618   10.578547061   11.614694383   11.940919560
    1.829549249   10.560708603   11.594398130   11.920119578
    1.836727880   10.542868786   11.574102311   11.899319752
    1.843906511   10.525028009   11.553807380   11.878520550
    1.851085142   10.507186669   11.533513787   11.857722431
    1.858263773   10.489345159   11.513221981   11.836925855
    1.865442404   10.471503869   11.492932404   11.816131276
    1.872621035   10.453663185   11.472645497   11.795339143
    1.879799666   10.435823493   11.452361695   11.774549903
    1.886978297   10.417985172   11.432081430   11.753764000
    1.894156928   10.400148601   11.411805133   11.732981872
    1.901335559   10.382314153   11.391533226   11.712203954
    1.908514190   10.364482202   11.371266132   11.691430678
    1.915692821   10.346653114   11.351004269   11.670662472
    1.922871452   10.328827255   11.330748049   11.649899759
    1.930050083   10.311004988   11.310497885   11.629142961
    1.937228715   10.293186671   11.290254181   11.608392493
    1.944407346   10.275372662   11.270017342   11.587648769
    1.951585977   10.257563312   11.249787766   11.566912197
    1.958764608   10.239758972   11.229565850   11.546183184
    1.965943239   10.221959988   11.209351985   11.525462130
    1.973121870   10.204166706   11.189146560   11.504749435
    1.980300501   10.186379464   11.168949960   11.484045492
    1.987479132   10.168598602   11.148762566   11.463350693
    1.994657763   10.150824454   11.128584756   11.442665423
    2.001836394   10.133057352   11.108416904   11.421990068
    2.009015025   10.115297625   11.088259381   11.401325007
    2.016193656   10.097545597   11.068112554   11.380670615
    2.023372287   10.079801593   11.047976786   11.360027266
    2.030550918   10.062065932   11.027852437   11.339395329
    2.037729549   10.044338931   11.007739864   11.318775169
    2.044908180   10.026620903   10.987639419   11.298167147
    2.052086811   10.008912160   10.967551453   11.277571623
    2.059265442    9.991213009   10.947476311   11.256988951
    2.066444073    9.973523755   10.927414336   11.236419483
    2.073622705    9.955844701   10.907365867   11.215863565
    2.080801336    9.938176145   10.887331239   11.195321543
    2.087979967    9.920518384   10.867310786   11.174793756
    2.095158598    9.902871711   10.847304834   11.154280543
    2.102337229    9.885236417   10.827313711   11.133782236
    2.109515860    9.867612789   10.807337737   11.113299167
    2.116694491    9.850001112   10.787377232   11.092831661
    2.123873122    9.832401667   10.767432511   11.072380044
    2.131051753    9.814814734   10.747503886   11.051944633
    2.138230384    9.797240588   10.727591665   11.031525747
    2.145409015    9.779679504   10.707696154   11.011123698
    2.152587646    9.762131751   10.687817655   10.990738797
    2.159766277    9.744597597   10.667956466   10.970371349
    2.166944908    9.727077307   10.648112883   10.950021657
    2.174123539    9.709571144   10.628287198   10.929690023
    2.181302170    9.692079366   10.608479699   10.909376742
    2.188480801    9.674602231   10.588690674   10.889082108
    2.195659432    9.657139991   10.568920403   10.868806409
    2.202838063    9.639692899   10.549169167   10.848549935
    2.210016694    9.622261202   10.529437241   10.828312966
    2.217195326    9.604845147   10.509724899   10.808095785
    2.224373957    9.587444976   10.490032410   10.787898668
    2.231552588    9.570060929   10.470360041   10.767721888
    2.238731219    9.552693245   10.450708056   10.747565717
    2.245909850    9.535342158   10.431076714   10.727430422
    2.253088481    9.518007901   10.411466274   10.707316267
    2.260267112    9.500690703   10.391876989   10.687223513
    2.267445743    9.483390792   10.372309111   10.667152419
    2.274624374    9.466108392   10.352762888   10.647103239
    2.281803005    9.448843724   10.333238565   10.627076226
    2.288981636    9.431597009   10.313736385   10.607071628
    2.296160267    9.414368463   10.294256587   10.587089692
    2.303338898    9.397158300   10.274799406   10.567130659
    2.310517529    9.379966732   10.255365077   10.547194770
    2.317696160    9.362793969   10.235953830   10.527282261
    2.324874791    9.345640216   10.216565891   10.507393366
    2.332053422    9.328505679   10.197201486   10.487528317
    2.339232053    9.311390558   10.177860837   10.467687341
    2.346410684    9.294295053   10.158544162   10.447870662
    2.353589316    9.277219361   10.139251677   10.428078504
    2.360767947    9.260163676   10.119983595   10.408311085
    2.367946578    9.243128190   10.100740127   10.388568622
    2.375125209    9.226113092   10.081521480   10.368851328
    2.382303840    9.209118571   10.062327859   10.349159413
    2.389482471    9.192144810   10.043159466   10.329493086
    2.396661102    9.175191991   10.024016501   10.309852552
    2.403839733    9.158260296   10.004899159   10.290238013
    2.411018364    9.141349901    9.985807635   10.270649667
    2.418196995    9.124460981    9.966742120   10.251087713
    2.425375626    9.107593711    9.947702803   10.231552344
    2.432554257    9.090748261    9.928689868   10.212043751
    2.439732888    9.073924799    9.909703500   10.192562124
    2.446911519    9.057123491    9.890743879   10.173107647
    2.454090150    9.040344501    9.871811184   10.153680505
    2.461268781    9.023587992    9.852905588   10.134280877
    2.468447412    9.006854122    9.834027266   10.114908942
    2.475626043    8.990143049    9.815176388   10.095564876
    2.482804674    8.973454928    9.796353121   10.076248851
    2.489983306    8.956789913    9.777557631   10.056961038
    2.497161937    8.940148153    9.758790080   10.037701604
    2.504340568    8.923529797    9.740050630   10.018470714
    2.511519199    8.906934992    9.721339437    9.999268532
    2.518697830    8.890363882    9.702656657    9.980095217
    2.525876461    8.873816610    9.684002443    9.960950927
    2.533055092    8.857293316    9.665376947    9.941835818
    2.540233723    8.840794137    9.646780315    9.922750042
