# energy grid [eV]     epsr_x  epsr_y  epsr_z
#
    0.200000000    9.168745478    5.203653619    7.759329867
    0.207178631    9.170191858    5.204458519    7.760777100
    0.214357262    9.171689802    5.205292179    7.762276115
    0.221535893    9.173239369    5.206154640    7.763826990
    0.228714524    9.174840620    5.207045944    7.765429808
    0.235893155    9.176493618    5.207966133    7.767084652
    0.243071786    9.178198428    5.208915251    7.768791611
    0.250250417    9.179955118    5.209893344    7.770550773
    0.257429048    9.181763757    5.210900458    7.772362233
    0.264607679    9.183624417    5.211936642    7.774226085
    0.271786311    9.185537170    5.213001946    7.776142430
    0.278964942    9.187502094    5.214096421    7.778111367
    0.286143573    9.189519266    5.215220120    7.780133003
    0.293322204    9.191588765    5.216373097    7.782207444
    0.300500835    9.193710675    5.217555408    7.784334800
    0.307679466    9.195885079    5.218767110    7.786515186
    0.314858097    9.198112064    5.220008261    7.788748717
    0.322036728    9.200391718    5.221278922    7.791035513
    0.329215359    9.202724133    5.222579155    7.793375696
    0.336393990    9.205109400    5.223909023    7.795769391
    0.343572621    9.207547617    5.225268589    7.798216728
    0.350751252    9.210038879    5.226657922    7.800717836
    0.357929883    9.212583287    5.228077088    7.803272852
    0.365108514    9.215180942    5.229526156    7.805881913
    0.372287145    9.217831949    5.231005199    7.808545159
    0.379465776    9.220536414    5.232514287    7.811262735
    0.386644407    9.223294446    5.234053496    7.814034787
    0.393823038    9.226106155    5.235622901    7.816861467
    0.401001669    9.228971655    5.237222578    7.819742927
    0.408180301    9.231891060    5.238852608    7.822679325
    0.415358932    9.234864490    5.240513070    7.825670820
    0.422537563    9.237892064    5.242204047    7.828717576
    0.429716194    9.240973905    5.243925622    7.831819760
    0.436894825    9.244110137    5.245677881    7.834977541
    0.444073456    9.247300887    5.247460911    7.838191094
    0.451252087    9.250546286    5.249274801    7.841460595
    0.458430718    9.253846465    5.251119640    7.844786224
    0.465609349    9.257201558    5.252995522    7.848168165
    0.472787980    9.260611702    5.254902541    7.851606605
    0.479966611    9.264077037    5.256840791    7.855101734
    0.487145242    9.267597703    5.258810370    7.858653748
    0.494323873    9.271173846    5.260811378    7.862262844
    0.501502504    9.274805612    5.262843916    7.865929224
    0.508681135    9.278493149    5.264908085    7.869653091
    0.515859766    9.282236610    5.267003991    7.873434656
    0.523038397    9.286036149    5.269131740    7.877274131
    0.530217028    9.289891921    5.271291441    7.881171732
    0.537395659    9.293804088    5.273483202    7.885127678
    0.544574290    9.297772809    5.275707137    7.889142194
    0.551752922    9.301798251    5.277963358    7.893215508
    0.558931553    9.305880579    5.280251983    7.897347850
    0.566110184    9.310019964    5.282573127    7.901539457
    0.573288815    9.314216578    5.284926912    7.905790568
    0.580467446    9.318470596    5.287313458    7.910101426
    0.587646077    9.322782195    5.289732888    7.914472279
    0.594824708    9.327151557    5.292185330    7.918903378
    0.602003339    9.331578863    5.294670909    7.923394979
    0.609181970    9.336064301    5.297189755    7.927947342
    0.616360601    9.340608059    5.299742001    7.932560731
    0.623539232    9.345210328    5.302327779    7.937235415
    0.630717863    9.349871303    5.304947225    7.941971666
    0.637896494    9.354591180    5.307600478    7.946769761
    0.645075125    9.359370161    5.310287678    7.951629982
    0.652253756    9.364208447    5.313008965    7.956552614
    0.659432387    9.369106245    5.315764486    7.961537949
    0.666611018    9.374063763    5.318554386    7.966586280
    0.673789649    9.379081213    5.321378814    7.971697908
    0.680968280    9.384158811    5.324237921    7.976873137
    0.688146912    9.389296772    5.327131860    7.982112275
    0.695325543    9.394495320    5.330060788    7.987415637
    0.702504174    9.399754676    5.333024861    7.992783541
    0.709682805    9.405075068    5.336024240    7.998216311
    0.716861436    9.410456726    5.339059088    8.003714274
    0.724040067    9.415899884    5.342129570    8.009277765
    0.731218698    9.421404777    5.345235853    8.014907121
    0.738397329    9.426971645    5.348378107    8.020602687
    0.745575960    9.432600731    5.351556505    8.026364811
    0.752754591    9.438292281    5.354771221    8.032193847
    0.759933222    9.444046544    5.358022432    8.038090154
    0.767111853    9.449863773    5.361310320    8.044054098
    0.774290484    9.455744224    5.364635065    8.050086048
    0.781469115    9.461688156    5.367996854    8.056186380
    0.788647746    9.467695831    5.371395874    8.062355476
    0.795826377    9.473767517    5.374832317    8.068593721
    0.803005008    9.479903482    5.378306374    8.074901510
    0.810183639    9.486104001    5.381818243    8.081279241
    0.817362270    9.492369349    5.385368122    8.087727318
    0.824540902    9.498699806    5.388956212    8.094246151
    0.831719533    9.505095658    5.392582719    8.100836157
    0.838898164    9.511557191    5.396247849    8.107497759
    0.846076795    9.518084696    5.399951813    8.114231385
    0.853255426    9.524678469    5.403694824    8.121037471
    0.860434057    9.531338809    5.407477099    8.127916457
    0.867612688    9.538066017    5.411298857    8.134868794
    0.874791319    9.544860400    5.415160320    8.141894933
    0.881969950    9.551722268    5.419061713    8.148995338
    0.889148581    9.558651936    5.423003267    8.156170476
    0.896327212    9.565649722    5.426985211    8.163420822
    0.903505843    9.572715947    5.431007783    8.170746858
    0.910684474    9.579850937    5.435071219    8.178149072
    0.917863105    9.587055024    5.439175762    8.185627961
    0.925041736    9.594328540    5.443321657    8.193184028
    0.932220367    9.601671826    5.447509152    8.200817785
    0.939398998    9.609085222    5.451738500    8.208529748
    0.946577629    9.616569077    5.456009956    8.216320444
    0.953756260    9.624123741    5.460323779    8.224190406
    0.960934891    9.631749571    5.464680233    8.232140175
    0.968113523    9.639446925    5.469079582    8.240170302
    0.975292154    9.647216169    5.473522098    8.248281343
    0.982470785    9.655057672    5.478008054    8.256473863
    0.989649416    9.662971806    5.482537729    8.264748437
    0.996828047    9.670958951    5.487111403    8.273105646
    1.004006678    9.679019488    5.491729362    8.281546082
    1.011185309    9.687153805    5.496391896    8.290070344
    1.018363940    9.695362294    5.501099297    8.298679041
    1.025542571    9.703645353    5.505851865    8.307372789
    1.032721202    9.712003383    5.510649900    8.316152216
    1.039899833    9.720436791    5.515493708    8.325017956
    1.047078464    9.728945988    5.520383601    8.333970655
    1.054257095    9.737531392    5.525319891    8.343010969
    1.061435726    9.746193424    5.530302900    8.352139561
    1.068614357    9.754932512    5.535332949    8.361357105
    1.075792988    9.763749087    5.540410368    8.370664287
    1.082971619    9.772643587    5.545535488    8.380061800
    1.090150250    9.781616456    5.550708648    8.389550351
    1.097328881    9.790668140    5.555930188    8.399130653
    1.104507513    9.799799095    5.561200457    8.408803435
    1.111686144    9.809009779    5.566519807    8.418569432
    1.118864775    9.818300658    5.571888593    8.428429394
    1.126043406    9.827672201    5.577307178    8.438384079
    1.133222037    9.837124885    5.582775929    8.448434260
    1.140400668    9.846659193    5.588295218    8.458580719
    1.147579299    9.856275612    5.593865423    8.468824251
    1.154757930    9.865974637    5.599486926    8.479165662
    1.161936561    9.875756767    5.605160116    8.489605772
    1.169115192    9.885622508    5.610885388    8.500145413
    1.176293823    9.895572374    5.616663140    8.510785428
    1.183472454    9.905606882    5.622493778    8.521526675
    1.190651085    9.915726558    5.628377713    8.532370026
    1.197829716    9.925931933    5.634315362    8.543316363
    1.205008347    9.936223545    5.640307148    8.554366585
    1.212186978    9.946601938    5.646353501    8.565521604
    1.219365609    9.957067665    5.652454856    8.576782345
    1.226544240    9.967621282    5.658611655    8.588149749
    1.233722871    9.978263354    5.664824346    8.599624771
    1.240901503    9.988994455    5.671093384    8.611208381
    1.248080134    9.999815162    5.677419230    8.622901564
    1.255258765   10.010726061    5.683802353    8.634705322
    1.262437396   10.021727746    5.690243227    8.646620671
    1.269616027   10.032820818    5.696742335    8.658648644
    1.276794658   10.044005884    5.703300166    8.670790292
    1.283973289   10.055283560    5.709917217    8.683046679
    1.291151920   10.066654470    5.716593990    8.695418889
    1.298330551   10.078119245    5.723330999    8.707908024
    1.305509182   10.089678522    5.730128761    8.720515202
    1.312687813   10.101332951    5.736987803    8.733241559
    1.319866444   10.113083184    5.743908661    8.746088252
    1.327045075   10.124929885    5.750891876    8.759056453
    1.334223706   10.136873726    5.757938000    8.772147357
    1.341402337   10.148915387    5.765047591    8.785362176
    1.348580968   10.161055556    5.772221219    8.798702143
    1.355759599   10.173294930    5.779459459    8.812168512
    1.362938230   10.185634214    5.786762896    8.825762557
    1.370116861   10.198074125    5.794132124    8.839485574
    1.377295492   10.210615385    5.801567748    8.853338879
    1.384474124   10.223258727    5.809070379    8.867323813
    1.391652755   10.236004894    5.816640639    8.881441736
    1.398831386   10.248854638    5.824279161    8.895694035
    1.406010017   10.261808720    5.831986586    8.910082117
    1.413188648   10.274867910    5.839763565    8.924607416
    1.420367279   10.288032991    5.847610761    8.939271388
    1.427545910   10.301304752    5.855528846    8.954075518
    1.434724541   10.314683995    5.863518502    8.969021311
    1.441903172   10.328171532    5.871580424    8.984110304
    1.449081803   10.341768184    5.879715315    8.999344056
    1.456260434   10.355474785    5.887923893    9.014724158
    1.463439065   10.369292176    5.896206885    9.030252225
    1.470617696   10.383221213    5.904565029    9.045929903
    1.477796327   10.397262761    5.912999076    9.061758863
    1.484974958   10.411417697    5.921509790    9.077740795
    1.492153589   10.425686909    5.930097945    9.093877390
    1.499332220   10.440071297    5.938764328    9.110170378
    1.506510851   10.454571773    5.947509744    9.126621671
    1.513689482   10.469189260    5.956335009    9.143233168
    1.520868114   10.483924696    5.965240948    9.160006679
    1.528046745   10.498779027    5.974228404    9.176944070
    1.535225376   10.513753216    5.983298230    9.194047264
    1.542404007   10.528848235    5.992451297    9.211318228
    1.549582638   10.544065072    6.001688489    9.228758967
    1.556761269   10.559404727    6.011010706    9.246371524
    1.563939900   10.574868214    6.020418862    9.264157981
    1.571118531   10.590456559    6.029913887    9.282120456
    1.578297162   10.606170805    6.039496727    9.300261111
    1.585475793   10.622012005    6.049168344    9.318582147
    1.592654424   10.637981230    6.058929716    9.337085808
    1.599833055   10.654079564    6.068781840    9.355774380
    1.607011686   10.670308105    6.078725729    9.374650193
    1.614190317   10.686667969    6.088762412    9.393715626
    1.621368948   10.703160285    6.098892940    9.412973099
    1.628547579   10.719786197    6.109118379    9.432425084
    1.635726210   10.736546867    6.119439815    9.452074100
    1.642904841   10.753443473    6.129858354    9.471922716
    1.650083472   10.770477206    6.140375119    9.491973552
    1.657262104   10.787649276    6.150991249    9.512229283
    1.664440735   10.804960902    6.161707877    9.532692634
    1.671619366   10.822413317    6.172526133    9.553366390
    1.678797997   10.840007793    6.183447279    9.574253390
    1.685976628   10.857745643    6.194472674    9.595356532
    1.693155259   10.875628156    6.205603545    9.616678774
    1.700333890   10.893656640    6.216841118    9.638223136
    1.707512521   10.911832425    6.228186677    9.659992700
    1.714691152   10.930156866    6.239641541    9.681990614
    1.721869783   10.948631337    6.251207060    9.704220092
    1.729048414   10.967257232    6.262884607    9.726684416
    1.736227045   10.986035967    6.274675581    9.749386940
    1.743405676   11.004968976    6.286581409    9.772331089
    1.750584307   11.024057715    6.298603545    9.795520363
    1.757762938   11.043303663    6.310743469    9.818958337
    1.764941569   11.062708319    6.323002692    9.842648666
    1.772120200   11.082273205    6.335382751    9.866595085
    1.779298831   11.101999864    6.347885217    9.890801413
    1.786477462   11.121889866    6.360511687    9.915271552
    1.793656093   11.141944800    6.373263793    9.940009495
    1.800834725   11.162166281    6.386143198    9.965019324
    1.808013356   11.182555949    6.399151598    9.990305214
    1.815191987   11.203115469    6.412290724   10.015871436
    1.822370618   11.223846530    6.425562339   10.041722360
    1.829549249   11.244750847    6.438968245   10.067862458
    1.836727880   11.265830163    6.452510279   10.094296306
    1.843906511   11.287086247    6.466190316   10.121028588
    1.851085142   11.308520895    6.480010268   10.148064101
    1.858263773   11.330135931    6.493972088   10.175407754
    1.865442404   11.351933210    6.508077770   10.203064576
    1.872621035   11.373914612    6.522329350   10.231039719
    1.879799666   11.396082050    6.536728904   10.259338458
    1.886978297   11.418437467    6.551278556   10.287966200
    1.894156928   11.440982835    6.565980471   10.316928485
    1.901335559   11.463720160    6.580836864   10.346230993
    1.908514190   11.486651480    6.595849995   10.375879546
    1.915692821   11.509778864    6.611022175   10.405880111
    1.922871452   11.533104416    6.626355765   10.436238808
    1.930050083   11.556630276    6.641853176   10.466961902
    1.937228715   11.580358617    6.657516876   10.498055785
    1.944407346   11.604291649    6.673349382   10.529527001
    1.951585977   11.628431617    6.689353274   10.561382444
    1.958764608   11.652780806    6.705531184   10.593629210
    1.965943239   11.677341535    6.721885806   10.626274382
    1.973121870   11.702116165    6.738419891   10.659325225
    1.980300501   11.727107095    6.755136259   10.692789267
    1.987479132   11.752316778    6.772037803   10.726674305
    1.994657763   11.777747696    6.789127476   10.760988298
    2.001836394   11.803402375    6.806408293   10.795739407
    2.009015025   11.829283383    6.823883344   10.830936033
    2.016193656   11.855393337    6.841555792   10.866586823
    2.023372287   11.881734898    6.859428876   10.902700667
    2.030550918   11.908310775    6.877505915   10.939286715
    2.037729549   11.935123724    6.895790306   10.976354380
    2.044908180   11.962176552    6.914285529   11.013913350
    2.052086811   11.989472114    6.932995150   11.051973598
    2.059265442   12.017013320    6.951922823   11.090545394
    2.066444073   12.044803130    6.971072292   11.129639314
    2.073622705   12.072844560    6.990447396   11.169266256
    2.080801336   12.101140679    7.010052070   11.209437449
    2.087979967   12.129694616    7.029890349   11.250164468
    2.095158598   12.158509557    7.049966368   11.291459247
    2.102337229   12.187588747    7.070284362   11.333334094
    2.109515860   12.216935490    7.090848657   11.375801704
    2.116694491   12.246553155    7.111663706   11.418875178
    2.123873122   12.276445185    7.132734173   11.462568050
    2.131051753   12.306615084    7.154064797   11.506894286
    2.138230384   12.337066418    7.175660378   11.551868307
    2.145409015   12.367802824    7.197525861   11.597505015
    2.152587646   12.398828013    7.219666341   11.643819805
    2.159766277   12.430145765    7.242087055   11.690828586
    2.166944908   12.461759938    7.264793387   11.738547802
    2.174123539   12.493674480    7.287790869   11.786994512
    2.181302170   12.525893418    7.311085189   11.836186393
    2.188480801   12.558420847    7.334682196   11.886141678
    2.195659432   12.591260950    7.358587899   11.936879243
    2.202838063   12.624417999    7.382808466   11.988418658
    2.210016694   12.657896355    7.407350208   12.040780206
    2.217195326   12.691700471    7.432219637   12.093984916
    2.224373957   12.725834905    7.457423645   12.148054601
    2.231552588   12.760304307    7.482969249   12.203011890
    2.238731219   12.795113425    7.508863535   12.258880266
    2.245909850   12.830267111    7.535113830   12.315684114
    2.253088481   12.865770326    7.561727714   12.373448765
    2.260267112   12.901628142    7.588713011   12.432200540
    2.267445743   12.937845745    7.616077787   12.491966807
    2.274624374   12.974428441    7.643830358   12.552776029
    2.281803005   13.011381654    7.671979306   12.614657823
    2.288981636   13.048710938    7.700533482   12.677643024
    2.296160267   13.086421976    7.729502024   12.741763747
    2.303338898   13.124520584    7.758894362   12.807053455
    2.310517529   13.163012719    7.788720238   12.873547038
    2.317696160   13.201904482    7.818989710   12.941280887
    2.324874791   13.241202122    7.849713176   13.010292982
    2.332053422   13.280912044    7.880901380   13.080622980
    2.339232053   13.321040813    7.912565431   13.152312312
    2.346410684   13.361595160    7.944716819   13.225404287
    2.353589316   13.402581987    7.977367429   13.299944201
    2.360767947   13.444008377    8.010529565   13.375979460
    2.367946578   13.485881597    8.044215961   13.453559698
    2.375125209   13.528209108    8.078439805   13.532736917
    2.382303840   13.570998573    8.113214762   13.613565651
    2.389482471   13.614257861    8.148554992   13.696103147
    2.396661102   13.657995061    8.184475175   13.780409471
    2.403839733   13.702218488    8.220990536   13.866547698
    2.411018364   13.746936690    8.258116869   13.954584098
    2.418196995   13.792158458    8.295870568   14.044588286
    2.425375626   13.837892836    8.334268652   14.136633664
    2.432554257   13.884149155    8.373328800   14.230798095
    2.439732888   13.930937027    8.413069383   14.327163311
    2.446911519   13.978266318    8.453509485   14.425815175
    2.454090150   14.026147242    8.494668976   14.526844623
    2.461268781   14.074590390    8.536568562   14.630348027
    2.468447412   14.123606622    8.579229750   14.736427118
    2.475626043   14.173207132    8.622674924   14.845189571
    2.482804674   14.223403493    8.666927404   14.956749565
    2.489983306   14.274207705    8.712011539   15.071228309
    2.497161937   14.325632206    8.757952751   15.188754573
    2.504340568   14.377689836    8.804777517   15.309465209
    2.511519199   14.430393888    8.852513468   15.433505866
    2.518697830   14.483758143    8.901189481   15.561031744
    2.525876461   14.537796881    8.950835732   15.692208393
    2.533055092   14.592524902    9.001483757   15.827212617
    2.540233723   14.647957557    9.053166469   15.966233503
