# energy grid [eV]     epsr_x  epsr_y  epsr_z
#
    0.200000000   13.700288739    6.037152977   14.084778863
    0.207178631   13.703431753    6.038142696   14.087931592
    0.214357262   13.706687780    6.039168108   14.091197406
    0.221535893   13.710057053    6.040229297   14.094576506
    0.228714524   13.713539815    6.041326356   14.098069104
    0.235893155   13.717136316    6.042459377   14.101675416
    0.243071786   13.720846819    6.043628458   14.105395667
    0.250250417   13.724671592    6.044833701   14.109230091
    0.257429048   13.728610916    6.046075211   14.113178928
    0.264607679   13.732665080    6.047353099   14.117242427
    0.271786311   13.736834382    6.048667479   14.121420843
    0.278964942   13.741119133    6.050018468   14.125714441
    0.286143573   13.745519650    6.051406190   14.130123494
    0.293322204   13.750036265    6.052830773   14.134648282
    0.300500835   13.754669316    6.054292348   14.139289093
    0.307679466   13.759419155    6.055791053   14.144046225
    0.314858097   13.764286143    6.057327031   14.148919983
    0.322036728   13.769270654    6.058900429   14.153910682
    0.329215359   13.774373072    6.060511399   14.159018644
    0.336393990   13.779593793    6.062160102   14.164244201
    0.343572621   13.784933225    6.063846702   14.169587692
    0.350751252   13.790391789    6.065571368   14.175049469
    0.357929883   13.795969917    6.067334279   14.180629889
    0.365108514   13.801668055    6.069135617   14.186329320
    0.372287145   13.807486662    6.070975573   14.192148141
    0.379465776   13.813426211    6.072854344   14.198086738
    0.386644407   13.819487189    6.074772136   14.204145509
    0.393823038   13.825670095    6.076729161   14.210324859
    0.401001669   13.831975446    6.078725639   14.216625208
    0.408180301   13.838403774    6.080761800   14.223046981
    0.415358932   13.844955623    6.082837881   14.229590618
    0.422537563   13.851631559    6.084954130   14.236256567
    0.429716194   13.858432160    6.087110805   14.243045289
    0.436894825   13.865358025    6.089308171   14.249957254
    0.444073456   13.872409768    6.091546508   14.256992945
    0.451252087   13.879588025    6.093826104   14.264152857
    0.458430718   13.886893448    6.096147261   14.271437498
    0.465609349   13.894326713    6.098510293   14.278847385
    0.472787980   13.901888515    6.100915527   14.286383050
    0.479966611   13.909579571    6.103363305   14.294045040
    0.487145242   13.917400623    6.105853982   14.301833912
    0.494323873   13.925352436    6.108387930   14.309750238
    0.501502504   13.933435799    6.110965540   14.317794605
    0.508681135   13.941651530    6.113587216   14.325967614
    0.515859766   13.950000473    6.116253386   14.334269882
    0.523038397   13.958483504    6.118964495   14.342702041
    0.530217028   13.967101528    6.121721010   14.351264740
    0.537395659   13.975855482    6.124523424   14.359958643
    0.544574290   13.984746340    6.127372250   14.368784434
    0.551752922   13.993775111    6.130268032   14.377742813
    0.558931553   14.002942843    6.133211340   14.386834502
    0.566110184   14.012250627    6.136202775   14.396060239
    0.573288815   14.021699596    6.139242971   14.405420786
    0.580467446   14.031290931    6.142332598   14.414916924
    0.587646077   14.041025864    6.145472364   14.424549458
    0.594824708   14.050905680    6.148663019   14.434319217
    0.602003339   14.060931722    6.151905357   14.444227054
    0.609181970   14.071105394    6.155200221   14.454273849
    0.616360601   14.081428170    6.158548509   14.464460510
    0.623539232   14.091901592    6.161951174   14.474787974
    0.630717863   14.102527286    6.165409233   14.485257209
    0.637896494   14.113306957    6.168923774   14.495869217
    0.645075125   14.124242406    6.172495958   14.506625036
    0.652253756   14.135335534    6.176127030   14.517525739
    0.659432387   14.146588352    6.179818327   14.528572443
    0.666611018   14.158002991    6.183571285   14.539766306
    0.673789649   14.169581716    6.187387453   14.551108534
    0.680968280   14.181326934    6.191268503   14.562600384
    0.688146912   14.193241217    6.195216242   14.574243165
    0.695325543   14.205327314    6.199232631   14.586038250
    0.702504174   14.217588170    6.203319800   14.597987073
    0.709682805   14.230026952    6.207480070   14.610091141
    0.716861436   14.242647073    6.211715974   14.622352039
    0.724040067   14.255452223    6.216030287   14.634771436
    0.731218698   14.268446400    6.220426052   14.647351097
    0.738397329   14.281633956    6.224906622   14.660092893
    0.745575960   14.295019635    6.229475698   14.672998810
    0.752754591   14.308608637    6.234137377   14.686070967
    0.759933222   14.322406676    6.238896212   14.699311630
    0.767111853   14.336420054    6.243757282   14.712723230
    0.774290484   14.350655756    6.248726265   14.726308387
    0.781469115   14.365121552    6.253809540   14.740069937
    0.788647746   14.379826125    6.259014303   14.754010960
    0.795826377   14.394779226    6.264348698   14.768134820
    0.803005008   14.409991858    6.269821990   14.782445208
    0.810183639   14.425476503    6.275444769   14.796946198
    0.817362270   14.441247397    6.281229198   14.811642313
    0.824540902   14.457320877    6.287189319   14.826538601
    0.831719533   14.473715803    6.293341446   14.841640741
    0.838898164   14.490454094    6.299704636   14.856955163
    0.846076795   14.507561404    6.306301306   14.872489205
    0.853255426   14.525067979    6.313158007   14.888251310
    0.860434057   14.543009774    6.320306422   14.904251278
    0.867612688   14.561429890    6.327784672   14.920500595
    0.874791319   14.580380471    6.335639022   14.937012852
    0.881969950   14.599925230    6.343926157   14.953804319
    0.889148581   14.620142836    6.352716240   14.970894689
    0.896327212   14.641131535    6.362097075   14.988308106
    0.903505843   14.663015509    6.372179840   15.006074560
    0.910684474   14.685953738    6.383107080   15.024231836
    0.917863105   14.710152463    6.395063938   15.042828227
    0.925041736   14.735882770    6.408294009   15.061926374
    0.932220367   14.763505226    6.423121549   15.081608607
    0.939398998   14.793503184    6.439981493   15.101984173
    0.946577629   14.826522818    6.459455550   15.123197923
    0.953756260   14.863401496    6.482297782   15.145436548
    0.960934891   14.905099879    6.509373417   15.168914327
    0.968113523   14.952191216    6.541198597   15.193764461
    0.975292154   15.002521238    6.575831361   15.219540189
    0.982470785   15.041881208    6.600465712   15.243225335
    0.989649416   15.016810111    6.566919489   15.253432188
    0.996828047   14.842717925    6.398955554   15.232135526
    1.004006678   14.635186992    6.200743429   15.204023105
    1.011185309   14.577114680    6.137121019   15.208151523
    1.018363940   14.608417273    6.153938757   15.231745272
    1.025542571   14.660162210    6.189072690   15.260153168
    1.032721202   14.711219986    6.223482557   15.288939774
    1.039899833   14.757698427    6.253664630   15.317370336
    1.047078464   14.799879765    6.279879197   15.345632488
    1.054257095   14.838796173    6.303064917   15.374117194
    1.061435726   14.875454172    6.324140555   15.403266100
    1.068614357   14.910705141    6.343888535   15.433548263
    1.075792988   14.945235670    6.362943519   15.465411635
    1.082971619   14.979459033    6.381678870   15.498991044
    1.090150250   15.012903639    6.399586989   15.532805980
    1.097328881   15.041795698    6.412841934   15.558819066
    1.104507513   15.053616515    6.408815959   15.551384493
    1.111686144   15.038859669    6.377918855   15.491021349
    1.118864775   15.031622720    6.354477329   15.446558814
    1.126043406   15.050471009    6.357177437   15.455424442
    1.133222037   15.080102833    6.370598793   15.486523051
    1.140400668   15.111470379    6.385620440   15.521439867
    1.147579299   15.142248009    6.399892138   15.555383401
    1.154757930   15.172130421    6.413098807   15.587664553
    1.161936561   15.201261122    6.425377582   15.618512710
    1.169115192   15.229841324    6.436923711   15.648281803
    1.176293823   15.258046057    6.447905842   15.677278606
    1.183472454   15.286014361    6.458455898   15.705741289
    1.190651085   15.313855411    6.468674955   15.733850380
    1.197829716   15.341656456    6.478640872   15.761743436
    1.205008347   15.369489570    6.488414609   15.789527261
    1.212186978   15.397417026    6.498044992   15.817287136
    1.219365609   15.425495686    6.507572235   15.845093690
    1.226544240   15.453780889    6.517030612   15.873008191
    1.233722871   15.482330230    6.526450571   15.901086859
    1.240901503   15.511207420    6.535860483   15.929384580
    1.248080134   15.540485579    6.545288033   15.957957879
    1.255258765   15.570246268    6.554760576   15.986865252
    1.262437396   15.600558432    6.564301445   16.016156327
    1.269616027   15.631373515    6.573909777   16.045815166
    1.276794658   15.662090706    6.583475795   16.075523587
    1.283973289   15.690102581    6.592496781   16.103868450
    1.291151920   15.709503549    6.599824820   16.127637656
    1.298330551   15.722858364    6.605966932   16.148237328
    1.305509182   15.744909016    6.613809645   16.173713223
    1.312687813   15.774992750    6.623228576   16.203711359
    1.319866444   15.807578494    6.633147720   16.235223326
    1.327045075   15.840620675    6.643172173   16.267141480
    1.334223706   15.873688956    6.653222690   16.299239296
    1.341402337   15.906771575    6.663301894   16.331519024
    1.348580968   15.939940021    6.673428825   16.364029020
    1.355759599   15.973269848    6.683623550   16.396820764
    1.362938230   16.006825555    6.693904303   16.429940846
    1.370116861   16.040660469    6.704287576   16.463431176
    1.377295492   16.074819500    6.714788787   16.497330825
    1.384474124   16.109341896    6.725422974   16.531677936
    1.391652755   16.144263464    6.736205423   16.566511468
    1.398831386   16.179618324    6.747152249   16.601872811
    1.406010017   16.215440322    6.758280975   16.637807417
    1.413188648   16.251764247    6.769611164   16.674366581
    1.420367279   16.288626986    6.781165149   16.711609549
    1.427545910   16.326068709    6.792968945   16.749606133
    1.434724541   16.364134195    6.805053405   16.788440102
    1.441903172   16.402874419    6.817455761   16.828213696
    1.449081803   16.442348540    6.830221700   16.869053760
    1.456260434   16.482626486    6.843408222   16.911120207
    1.463439065   16.523792384    6.857087608   16.954617779
    1.470617696   16.565949130    6.871352971   16.999812291
    1.477796327   16.609224327    6.886325893   17.047052290
    1.484974958   16.653777179    6.902166409   17.096794471
    1.492153589   16.699803013    6.919083817   17.149619560
    1.499332220   16.747520315    6.937339267   17.206177807
    1.506510851   16.797077748    6.957201038   17.266813662
    1.513689482   16.848140799    6.978694396   17.329902679
    1.520868114   16.898523435    7.000531665   17.386169358
    1.528046745   16.943097163    7.016298541   17.411424716
    1.535225376   16.981856856    7.007582359   17.387721105
    1.542404007   17.022680781    6.967126510   17.333791683
    1.549582638   17.075455660    6.945144287   17.326968811
    1.556761269   17.139085732    6.956445426   17.372712753
    1.563939900   17.201395774    6.975725196   17.397850788
    1.571118531   17.254572041    6.989284126   17.358693375
    1.578297162   17.312406441    7.004797481   17.338410197
    1.585475793   17.364751650    7.023538704   17.375995701
    1.592654424   17.348722258    7.028728193   17.409394472
    1.599833055   17.252003095    7.016002574   17.412246025
    1.607011686   17.220955281    7.016988758   17.438255490
    1.614190317   17.283571467    7.037874686   17.497958663
    1.621368948   17.381455425    7.066107318   17.568051405
    1.628547579   17.487008011    7.096044041   17.638422184
    1.635726210   17.584302058    7.125262720   17.706345871
    1.642904841   17.639718299    7.148286058   17.769020128
    1.650083472   17.613997210    7.153268458   17.821759188
    1.657262104   17.559070840    7.145428369   17.868655014
    1.664440735   17.554638335    7.149338657   17.920619357
    1.671619366   17.526718311    7.152534123   17.971059534
    1.678797997   17.473509234    7.152562413   18.019555625
    1.685976628   17.506740154    7.170744194   18.077637814
    1.693155259   17.599970747    7.201084259   18.142461512
    1.700333890   17.693156276    7.229190098   18.206814306
    1.707512521   17.744336371    7.241786600   18.264095115
    1.714691152   17.770642110    7.246347376   18.318085975
    1.721869783   17.829278878    7.265859352   18.379843674
    1.729048414   17.892045596    7.291026626   18.442729143
    1.736227045   17.930522823    7.311484311   18.501020822
    1.743405676   17.990750734    7.341073276   18.567668208
    1.750584307   18.086124138    7.383273693   18.645543297
    1.757762938   18.191724611    7.426386124   18.723234784
    1.764941569   18.285107114    7.450207231   18.779793061
    1.772120200   18.351544558    7.438085635   18.801293533
    1.779298831   18.397172941    7.403923269   18.818691072
    1.786477462   18.402823207    7.329028790   18.829442669
    1.793656093   18.417250189    7.267612828   18.854343881
    1.800834725   18.479431863    7.275448650   18.916797630
    1.808013356   18.533303817    7.308539697   18.984652568
    1.815191987   18.597224748    7.349902925   19.058214678
    1.822370618   18.707575718    7.402641693   19.150149051
    1.829549249   18.818487396    7.451408157   19.244183829
    1.836727880   18.851528595    7.469461040   19.319708438
    1.843906511   18.735144528    7.431970116   19.376036211
    1.851085142   18.555594769    7.372885353   19.437970825
    1.858263773   18.537586497    7.375031991   19.537973989
    1.865442404   18.643396441    7.425008399   19.665108749
    1.872621035   18.765565174    7.486050562   19.789727529
    1.879799666   18.835146699    7.533937936   19.862458087
    1.886978297   18.851412495    7.540089996   19.827685629
    1.894156928   18.893785673    7.489966925   19.688737993
    1.901335559   18.978724722    7.455431965   19.602973575
    1.908514190   19.075531327    7.466646411   19.610591734
    1.915692821   19.148110146    7.457258882   19.556772400
    1.922871452   19.219055045    7.413310335   19.475463528
    1.930050083   19.319317278    7.406132888   19.504078923
    1.937228715   19.436324361    7.447682357   19.620529995
    1.944407346   19.550065381    7.501584303   19.755815493
    1.951585977   19.634537230    7.540517519   19.870850017
    1.958764608   19.672836748    7.551496966   19.949843301
    1.965943239   19.723554449    7.565972255   20.030504843
    1.973121870   19.818471788    7.601413962   20.134089070
    1.980300501   19.934391999    7.645244959   20.246222706
    1.987479132   20.053710674    7.680464952   20.351127763
    1.994657763   20.173578467    7.707764424   20.448623102
    2.001836394   20.302888816    7.751448715   20.557309916
    2.009015025   20.440449466    7.809501463   20.677062817
    2.016193656   20.574380532    7.865440577   20.800742697
    2.023372287   20.671568318    7.889568268   20.922474473
    2.030550918   20.697470629    7.853033016   21.037848029
    2.037729549   20.737764040    7.826188577   21.157920629
    2.044908180   20.854438245    7.862695021   21.284323966
    2.052086811   20.979798884    7.914340290   21.386436626
    2.059265442   21.067432611    7.930579020   21.446452818
    2.066444073   21.128301323    7.878808874   21.486695607
    2.073622705   21.133701357    7.784995860   21.494082469
    2.080801336   21.077538654    7.732398080   21.514606551
    2.087979967   21.016662855    7.733031569   21.585070715
    2.095158598   21.068886078    7.774626037   21.707775911
    2.102337229   21.161608938    7.819570550   21.839162467
    2.109515860   21.256868521    7.855943485   21.963028340
    2.116694491   21.391842927    7.901889984   22.092347160
    2.123873122   21.514769726    7.940809720   22.204071187
    2.131051753   21.554195007    7.951525009   22.259701187
    2.138230384   21.534132620    7.965857796   22.315099619
    2.145409015   21.513224272    8.000663279   22.408521349
    2.152587646   21.599123442    8.049812875   22.548827392
    2.159766277   21.744014417    8.073816122   22.643672364
    2.166944908   21.873541843    8.047740564   22.612143314
    2.174123539   21.999111008    8.033372012   22.571295436
    2.181302170   22.140900541    8.062078124   22.630546293
    2.188480801   22.287619031    8.093772652   22.749006085
    2.195659432   22.401755351    8.096094353   22.828643359
    2.202838063   22.502263016    8.095732464   22.903092359
    2.210016694   22.633601543    8.127067167   23.050161231
    2.217195326   22.803954377    8.192285080   23.269732601
    2.224373957   22.995085766    8.275720602   23.520695083
    2.231552588   23.187744454    8.363756058   23.744570742
    2.238731219   23.361602249    8.444169351   23.828939245
    2.245909850   23.507266072    8.505930271   23.722033377
    2.253088481   23.660211315    8.562503378   23.707517456
    2.260267112   23.801165143    8.584017987   23.858186231
    2.267445743   23.873340713    8.479077468   23.929388899
    2.274624374   23.925491600    8.256754601   23.747767335
    2.281803005   24.032770833    8.085442634   23.581526652
    2.288981636   24.218408856    8.081874898   23.682727715
    2.296160267   24.436369650    8.149965669   23.922727592
    2.303338898   24.649018186    8.185673623   24.176170889
    2.310517529   24.862319411    8.187781957   24.408244286
    2.317696160   25.068655805    8.225722397   24.612321993
    2.324874791   25.256951084    8.287947274   24.784268740
    2.332053422   25.465946922    8.350715630   24.982932274
    2.339232053   25.669872594    8.386639117   25.198471619
    2.346410684   25.855609769    8.410630280   25.403797013
    2.353589316   26.023207126    8.466530181   25.593072954
    2.360767947   26.184160457    8.543084761   25.785594622
    2.367946578   26.313079168    8.613576340   25.988382434
    2.375125209   26.213996534    8.634503703   26.058369916
    2.382303840   26.043141273    8.576088841   25.941639823
    2.389482471   26.143221980    8.512365703   25.922074398
    2.396661102   26.443522702    8.530981797   26.122083849
    2.403839733   26.796280923    8.599107241   26.402744670
    2.411018364   27.108336958    8.666354075   26.624390928
    2.418196995   27.292345067    8.706761892   26.717045045
    2.425375626   27.396640653    8.743846411   26.808729582
    2.432554257   27.621030533    8.807345187   27.026139247
    2.439732888   27.960537402    8.882505248   27.306521623
    2.446911519   28.329049316    8.947720532   27.573326289
    2.454090150   28.695373149    8.981778514   27.824217323
    2.461268781   29.062773775    8.987223479   28.059981749
    2.468447412   29.460121507    9.013899986   28.316460818
    2.475626043   29.868664738    9.069836582   28.619039204
    2.482804674   30.189549508    9.127037312   28.933859097
    2.489983306   30.347987757    9.153231866   29.166539277
    2.497161937   30.585341718    9.176769779   29.322375403
    2.504340568   30.999488208    9.227460201   29.545949558
    2.511519199   31.342764858    9.260687455   29.766599994
    2.518697830   31.253397713    9.249559308   29.860739791
    2.525876461   30.925771842    9.248234294   29.952624335
    2.533055092   30.971977938    9.280515514   30.174727064
    2.540233723   31.342949003    9.338322293   30.505636133
