# energy grid [eV]     ieps_x  ieps_y  ieps_z
#
    0.200000000    9.948339588   10.094886884   10.006512604
    0.207178631    9.945689666   10.092249323   10.003870278
    0.214357262    9.942948635   10.089520942   10.001137031
    0.221535893    9.940116731   10.086701963    9.998313090
    0.228714524    9.937194196   10.083792613    9.995398689
    0.235893155    9.934181277   10.080793126    9.992394069
    0.243071786    9.931078231   10.077703743    9.989299477
    0.250250417    9.927885319   10.074524708    9.986115167
    0.257429048    9.924602810   10.071256275    9.982841398
    0.264607679    9.921230977   10.067898703    9.979478437
    0.271786311    9.917770101   10.064452256    9.976026556
    0.278964942    9.914220470   10.060917205    9.972486034
    0.286143573    9.910582377   10.057293825    9.968857154
    0.293322204    9.906856119   10.053582400    9.965140206
    0.300500835    9.903042002   10.049783216    9.961335488
    0.307679466    9.899140335   10.045896567    9.957443299
    0.314858097    9.895151435   10.041922751    9.953463948
    0.322036728    9.891075623   10.037862073    9.949397746
    0.329215359    9.886913226   10.033714841    9.945245012
    0.336393990    9.882664574   10.029481369    9.941006068
    0.343572621    9.878330006   10.025161978    9.936681243
    0.350751252    9.873909863   10.020756991    9.932270869
    0.357929883    9.869404492   10.016266737    9.927775285
    0.365108514    9.864814245   10.011691551    9.923194834
    0.372287145    9.860139478   10.007031770    9.918529863
    0.379465776    9.855380552   10.002287738    9.913780724
    0.386644407    9.850537833    9.997459802    9.908947775
    0.393823038    9.845611690    9.992548315    9.904031376
    0.401001669    9.840602498    9.987553633    9.899031894
    0.408180301    9.835510636    9.982476115    9.893949697
    0.415358932    9.830336485    9.977316128    9.888785160
    0.422537563    9.825080431    9.972074038    9.883538660
    0.429716194    9.819742867    9.966750219    9.878210580
    0.436894825    9.814324184    9.961345048    9.872801305
    0.444073456    9.808824781    9.955858904    9.867311224
    0.451252087    9.803245060    9.950292170    9.861740732
    0.458430718    9.797585426    9.944645236    9.856090224
    0.465609349    9.791846285    9.938918490    9.850360100
    0.472787980    9.786028051    9.933112329    9.844550765
    0.479966611    9.780131138    9.927227149    9.838662625
    0.487145242    9.774155964    9.921263351    9.832696090
    0.494323873    9.768102950    9.915221339    9.826651574
    0.501502504    9.761972519    9.909101521    9.820529492
    0.508681135    9.755765099    9.902904307    9.814330265
    0.515859766    9.749481119    9.896630110    9.808054314
    0.523038397    9.743121012    9.890279346    9.801702063
    0.530217028    9.736685212    9.883852433    9.795273942
    0.537395659    9.730174157    9.877349794    9.788770380
    0.544574290    9.723588287    9.870771853    9.782191810
    0.551752922    9.716928045    9.864119036    9.775538668
    0.558931553    9.710193874    9.857391772    9.768811391
    0.566110184    9.703386222    9.850590494    9.762010419
    0.573288815    9.696505538    9.843715636    9.755136195
    0.580467446    9.689552274    9.836767633    9.748189163
    0.587646077    9.682526882    9.829746924    9.741169771
    0.594824708    9.675429817    9.822653950    9.734078467
    0.602003339    9.668261537    9.815489155    9.726915701
    0.609181970    9.661022500    9.808252982    9.719681927
    0.616360601    9.653713168    9.800945879    9.712377599
    0.623539232    9.646334002    9.793568294    9.705003173
    0.630717863    9.638885466    9.786120679    9.697559108
    0.637896494    9.631368027    9.778603484    9.690045863
    0.645075125    9.623782150    9.771017165    9.682463900
    0.652253756    9.616128304    9.763362178    9.674813682
    0.659432387    9.608406960    9.755638979    9.667095672
    0.666611018    9.600618587    9.747848027    9.659310336
    0.673789649    9.592763660    9.739989784    9.651458143
    0.680968280    9.584842650    9.732064710    9.643539559
    0.688146912    9.576856034    9.724073269    9.635555056
    0.695325543    9.568804286    9.716015925    9.627505103
    0.702504174    9.560687884    9.707893145    9.619390173
    0.709682805    9.552507306    9.699705395    9.611210739
    0.716861436    9.544263029    9.691453143    9.602967275
    0.724040067    9.535955535    9.683136858    9.594660255
    0.731218698    9.527585303    9.674757012    9.586290157
    0.738397329    9.519152814    9.666314075    9.577857456
    0.745575960    9.510658551    9.657808519    9.569362631
    0.752754591    9.502102996    9.649240818    9.560806160
    0.759933222    9.493486632    9.640611445    9.552188522
    0.767111853    9.484809944    9.631920876    9.543510196
    0.774290484    9.476073415    9.623169586    9.534771664
    0.781469115    9.467277530    9.614358051    9.525973407
    0.788647746    9.458422775    9.605486748    9.517115905
    0.795826377    9.449509636    9.596556155    9.508199641
    0.803005008    9.440538598    9.587566750    9.499225097
    0.810183639    9.431510147    9.578519011    9.490192757
    0.817362270    9.422424770    9.569413418    9.481103102
    0.824540902    9.413282954    9.560250450    9.471956618
    0.831719533    9.404085186    9.551030588    9.462753787
    0.838898164    9.394831953    9.541754310    9.453495093
    0.846076795    9.385523742    9.532422098    9.444181021
    0.853255426    9.376161041    9.523034434    9.434812055
    0.860434057    9.366744335    9.513591796    9.425388679
    0.867612688    9.357274113    9.504094668    9.415911377
    0.874791319    9.347750862    9.494543530    9.406380634
    0.881969950    9.338175068    9.484938864    9.396796934
    0.889148581    9.328547218    9.475281151    9.387160761
    0.896327212    9.318867800    9.465570873    9.377472600
    0.903505843    9.309137298    9.455808510    9.367732935
    0.910684474    9.299356201    9.445994546    9.357942249
    0.917863105    9.289524992    9.436129460    9.348101026
    0.925041736    9.279644158    9.426213733    9.338209749
    0.932220367    9.269714183    9.416247848    9.328268901
    0.939398998    9.259735553    9.406232284    9.318278965
    0.946577629    9.249708751    9.396167521    9.308240423
    0.953756260    9.239634262    9.386054041    9.298153757
    0.960934891    9.229512568    9.375892323    9.288019448
    0.968113523    9.219344152    9.365682845    9.277837978
    0.975292154    9.209129495    9.355426088    9.267609827
    0.982470785    9.198869081    9.345122530    9.257335474
    0.989649416    9.188563388    9.334772648    9.247015399
    0.996828047    9.178212898    9.324376921    9.236650081
    1.004006678    9.167818089    9.313935825    9.226239997
    1.011185309    9.157379440    9.303449837    9.215785625
    1.018363940    9.146897429    9.292919432    9.205287442
    1.025542571    9.136372534    9.282345087    9.194745923
    1.032721202    9.125805229    9.271727274    9.184161543
    1.039899833    9.115195990    9.261066468    9.173534777
    1.047078464    9.104545291    9.250363142    9.162866099
    1.054257095    9.093853607    9.239617768    9.152155980
    1.061435726    9.083121409    9.228830817    9.141404892
    1.068614357    9.072349169    9.218002761    9.130613307
    1.075792988    9.061537357    9.207134068    9.119781693
    1.082971619    9.050686442    9.196225207    9.108910519
    1.090150250    9.039796893    9.185276647    9.098000254
    1.097328881    9.028869176    9.174288853    9.087051364
    1.104507513    9.017903759    9.163262292    9.076064315
    1.111686144    9.006901105    9.152197430    9.065039571
    1.118864775    8.995861678    9.141094728    9.053977595
    1.126043406    8.984785940    9.129954651    9.042878850
    1.133222037    8.973674354    9.118777659    9.031743796
    1.140400668    8.962527378    9.107564213    9.020572894
    1.147579299    8.951345471    9.096314773    9.009366602
    1.154757930    8.940129091    9.085029796    8.998125377
    1.161936561    8.928878693    9.073709740    8.986849676
    1.169115192    8.917594732    9.062355059    8.975539953
    1.176293823    8.906277661    9.050966209    8.964196662
    1.183472454    8.894927932    9.039543641    8.952820254
    1.190651085    8.883545995    9.028087809    8.941411180
    1.197829716    8.872132299    9.016599162    8.929969889
    1.205008347    8.860687291    9.005078149    8.918496830
    1.212186978    8.849211417    8.993525218    8.906992448
    1.219365609    8.837705121    8.981940816    8.895457188
    1.226544240    8.826168847    8.970325386    8.883891494
    1.233722871    8.814603034    8.958679372    8.872295807
    1.240901503    8.803008124    8.947003216    8.860670568
    1.248080134    8.791384553    8.935297358    8.849016216
    1.255258765    8.779732758    8.923562236    8.837333187
    1.262437396    8.768053174    8.911798289    8.825621917
    1.269616027    8.756346233    8.900005952    8.813882840
    1.276794658    8.744612368    8.888185658    8.802116389
    1.283973289    8.732852007    8.876337840    8.790322993
    1.291151920    8.721065578    8.864462930    8.778503082
    1.298330551    8.709253508    8.852561355    8.766657083
    1.305509182    8.697416222    8.840633543    8.754785422
    1.312687813    8.685554140    8.828679921    8.742888522
    1.319866444    8.673667685    8.816700912    8.730966805
    1.327045075    8.661757275    8.804696939    8.719020691
    1.334223706    8.649823327    8.792668422    8.707050600
    1.341402337    8.637866257    8.780615780    8.695056947
    1.348580968    8.625886478    8.768539430    8.683040147
    1.355759599    8.613884402    8.756439787    8.671000614
    1.362938230    8.601860438    8.744317264    8.658938759
    1.370116861    8.589814994    8.732172274    8.646854990
    1.377295492    8.577748476    8.720005226    8.634749715
    1.384474124    8.565661287    8.707816528    8.622623340
    1.391652755    8.553553830    8.695606586    8.610476269
    1.398831386    8.541426505    8.683375804    8.598308902
    1.406010017    8.529279709    8.671124585    8.586121640
    1.413188648    8.517113839    8.658853328    8.573914880
    1.420367279    8.504929289    8.646562432    8.561689019
    1.427545910    8.492726451    8.634252293    8.549444449
    1.434724541    8.480505715    8.621923307    8.537181564
    1.441903172    8.468267468    8.609575865    8.524900752
    1.449081803    8.456012097    8.597210358    8.512602402
    1.456260434    8.443739986    8.584827175    8.500286900
    1.463439065    8.431451516    8.572426702    8.487954629
    1.470617696    8.419147067    8.560009323    8.475605970
    1.477796327    8.406827017    8.547575422    8.463241305
    1.484974958    8.394491742    8.535125379    8.450861010
    1.492153589    8.382141615    8.522659572    8.438465461
    1.499332220    8.369777007    8.510178377    8.426055031
    1.506510851    8.357398288    8.497682169    8.413630093
    1.513689482    8.345005824    8.485171321    8.401191014
    1.520868114    8.332599982    8.472646201    8.388738163
    1.528046745    8.320181123    8.460107179    8.376271905
    1.535225376    8.307749609    8.447554621    8.363792602
    1.542404007    8.295305798    8.434988890    8.351300616
    1.549582638    8.282850047    8.422410347    8.338796304
    1.556761269    8.270382709    8.409819354    8.326280025
    1.563939900    8.257904138    8.397216267    8.313752131
    1.571118531    8.245414682    8.384601441    8.301212977
    1.578297162    8.232914690    8.371975230    8.288662910
    1.585475793    8.220404507    8.359337985    8.276102281
    1.592654424    8.207884478    8.346690055    8.263531433
    1.599833055    8.195354942    8.334031787    8.250950712
    1.607011686    8.182816239    8.321363525    8.238360459
    1.614190317    8.170268705    8.308685613    8.225761012
    1.621368948    8.157712676    8.295998389    8.213152709
    1.628547579    8.145148484    8.283302192    8.200535885
    1.635726210    8.132576459    8.270597359    8.187910872
    1.642904841    8.119996929    8.257884223    8.175278002
    1.650083472    8.107410220    8.245163116    8.162637602
    1.657262104    8.094816655    8.232434366    8.149989998
    1.664440735    8.082216556    8.219698302    8.137335515
    1.671619366    8.069610242    8.206955248    8.124674474
    1.678797997    8.056998030    8.194205527    8.112007195
    1.685976628    8.044380234    8.181449459    8.099333994
    1.693155259    8.031757167    8.168687364    8.086655188
    1.700333890    8.019129140    8.155919558    8.073971089
    1.707512521    8.006496459    8.143146353    8.061282007
    1.714691152    7.993859432    8.130368063    8.048588252
    1.721869783    7.981218362    8.117584996    8.035890128
    1.729048414    7.968573550    8.104797461    8.023187942
    1.736227045    7.955925295    8.092005762    8.010481993
    1.743405676    7.943273894    8.079210203    7.997772583
    1.750584307    7.930619642    8.066411083    7.985060007
    1.757762938    7.917962831    8.053608703    7.972344563
    1.764941569    7.905303752    8.040803358    7.959626541
    1.772120200    7.892642693    8.027995342    7.946906234
    1.779298831    7.879979940    8.015184947    7.934183930
    1.786477462    7.867315776    8.002372464    7.921459915
    1.793656093    7.854650482    7.989558179    7.908734473
    1.800834725    7.841984339    7.976742378    7.896007887
    1.808013356    7.829317623    7.963925345    7.883280436
    1.815191987    7.816650608    7.951107360    7.870552397
    1.822370618    7.803983568    7.938288702    7.857824047
    1.829549249    7.791316773    7.925469647    7.845095657
    1.836727880    7.778650491    7.912650471    7.832367501
    1.843906511    7.765984989    7.899831445    7.819639845
    1.851085142    7.753320529    7.887012840    7.806912957
    1.858263773    7.740657375    7.874194923    7.794187101
    1.865442404    7.727995784    7.861377960    7.781462540
    1.872621035    7.715336016    7.848562215    7.768739533
    1.879799666    7.702678325    7.835747948    7.756018339
    1.886978297    7.690022964    7.822935420    7.743299213
    1.894156928    7.677370183    7.810124887    7.730582410
    1.901335559    7.664720233    7.797316605    7.717868180
    1.908514190    7.652073358    7.784510825    7.705156772
    1.915692821    7.639429805    7.771707799    7.692448435
    1.922871452    7.626789814    7.758907775    7.679743413
    1.930050083    7.614153627    7.746110999    7.667041949
    1.937228715    7.601521481    7.733317716    7.654344284
    1.944407346    7.588893613    7.720528168    7.641650657
    1.951585977    7.576270255    7.707742594    7.628961304
    1.958764608    7.563651640    7.694961233    7.616276460
    1.965943239    7.551037998    7.682184320    7.603596356
    1.973121870    7.538429556    7.669412090    7.590921224
    1.980300501    7.525826539    7.656644772    7.578251291
    1.987479132    7.513229172    7.643882598    7.565586784
    1.994657763    7.500637674    7.631125794    7.552927927
    2.001836394    7.488052266    7.618374586    7.540274941
    2.009015025    7.475473164    7.605629197    7.527628046
    2.016193656    7.462900584    7.592889848    7.514987461
    2.023372287    7.450334740    7.580156758    7.502353401
    2.030550918    7.437775840    7.567430145    7.489726079
    2.037729549    7.425224096    7.554710222    7.477105708
    2.044908180    7.412679714    7.541997205    7.464492498
    2.052086811    7.400142899    7.529291302    7.451886655
    2.059265442    7.387613853    7.516592724    7.439288386
    2.066444073    7.375092779    7.503901677    7.426697893
    2.073622705    7.362579874    7.491218366    7.414115380
    2.080801336    7.350075336    7.478542994    7.401541045
    2.087979967    7.337579361    7.465875762    7.388975086
    2.095158598    7.325092140    7.453216869    7.376417698
    2.102337229    7.312613865    7.440566512    7.363869077
    2.109515860    7.300144726    7.427924886    7.351329412
    2.116694491    7.287684909    7.415292184    7.338798895
    2.123873122    7.275234600    7.402668597    7.326277712
    2.131051753    7.262793982    7.390054315    7.313766051
    2.138230384    7.250363236    7.377449523    7.301264094
    2.145409015    7.237942543    7.364854409    7.288772025
    2.152587646    7.225532080    7.352269155    7.276290022
    2.159766277    7.213132022    7.339693942    7.263818266
    2.166944908    7.200742544    7.327128950    7.251356931
    2.174123539    7.188363817    7.314574358    7.238906193
    2.181302170    7.175996012    7.302030340    7.226466224
    2.188480801    7.163639297    7.289497071    7.214037195
    2.195659432    7.151293838    7.276974722    7.201619275
    2.202838063    7.138959800    7.264463464    7.189212631
    2.210016694    7.126637346    7.251963466    7.176817428
    2.217195326    7.114326637    7.239474893    7.164433830
    2.224373957    7.102027832    7.226997911    7.152061998
    2.231552588    7.089741088    7.214532682    7.139702093
    2.238731219    7.077466561    7.202079368    7.127354272
    2.245909850    7.065204405    7.189638127    7.115018691
    2.253088481    7.052954772    7.177209117    7.102695505
    2.260267112    7.040717812    7.164792495    7.090384867
    2.267445743    7.028493674    7.152388413    7.078086927
    2.274624374    7.016282504    7.139997023    7.065801835
    2.281803005    7.004084447    7.127618477    7.053529739
    2.288981636    6.991899648    7.115252923    7.041270783
    2.296160267    6.979728247    7.102900508    7.029025111
    2.303338898    6.967570385    7.090561377    7.016792867
    2.310517529    6.955426200    7.078235674    7.004574191
    2.317696160    6.943295828    7.065923539    6.992369221
    2.324874791    6.931179404    7.053625114    6.980178095
    2.332053422    6.919077061    7.041340537    6.968000948
    2.339232053    6.906988932    7.029069945    6.955837915
    2.346410684    6.894915146    7.016813472    6.943689126
    2.353589316    6.882855832    7.004571251    6.931554714
    2.360767947    6.870811115    6.992343416    6.919434806
    2.367946578    6.858781122    6.980130095    6.907329531
    2.375125209    6.846765976    6.967931417    6.895239013
    2.382303840    6.834765798    6.955747510    6.883163377
    2.389482471    6.822780709    6.943578497    6.871102746
    2.396661102    6.810810828    6.931424504    6.859057240
    2.403839733    6.798856271    6.919285652    6.847026979
    2.411018364    6.786917156    6.907162061    6.835012080
    2.418196995    6.774993595    6.895053851    6.823012660
    2.425375626    6.763085701    6.882961139    6.811028833
    2.432554257    6.751193585    6.870884040    6.799060713
    2.439732888    6.739317358    6.858822669    6.787108411
    2.446911519    6.727457126    6.846777138    6.775172037
    2.454090150    6.715612997    6.834747560    6.763251700
    2.461268781    6.703785075    6.822734043    6.751347507
    2.468447412    6.691973464    6.810736695    6.739459564
    2.475626043    6.680178267    6.798755625    6.727587974
    2.482804674    6.668399584    6.786790936    6.715732841
    2.489983306    6.656637513    6.774842732    6.703894265
    2.497161937    6.644892154    6.762911116    6.692072347
    2.504340568    6.633163603    6.750996189    6.680267185
    2.511519199    6.621451953    6.739098050    6.668478876
    2.518697830    6.609757300    6.727216798    6.656707515
    2.525876461    6.598079735    6.715352527    6.644953196
    2.533055092    6.586419349    6.703505335    6.633216013
    2.540233723    6.574776232    6.691675315    6.621496056
