# energy grid [eV]     ieps_x  ieps_y  ieps_z
#
    0.200000000   10.307567190    5.264987687   10.518358869
    0.207178631   10.305273550    5.264119853   10.515989226
    0.214357262   10.302900277    5.263221803   10.513537322
    0.221535893   10.300447499    5.262293577   10.511003291
    0.228714524   10.297915349    5.261335216   10.508387270
    0.235893155   10.295303963    5.260346762   10.505689401
    0.243071786   10.292613480    5.259328260   10.502909830
    0.250250417   10.289844047    5.258279753   10.500048708
    0.257429048   10.286995812    5.257201288   10.497106190
    0.264607679   10.284068926    5.256092913   10.494082435
    0.271786311   10.281063548    5.254954676   10.490977607
    0.278964942   10.277979837    5.253786627   10.487791872
    0.286143573   10.274817960    5.252588817   10.484525402
    0.293322204   10.271578083    5.251361299   10.481178374
    0.300500835   10.268260382    5.250104127   10.477750966
    0.307679466   10.264865031    5.248817356   10.474243364
    0.314858097   10.261392212    5.247501042   10.470655756
    0.322036728   10.257842109    5.246155242   10.466988332
    0.329215359   10.254214911    5.244780015   10.463241291
    0.336393990   10.250510810    5.243375421   10.459414832
    0.343572621   10.246730003    5.241941521   10.455509159
    0.350751252   10.242872687    5.240478378   10.451524480
    0.357929883   10.238939069    5.238986055   10.447461007
    0.365108514   10.234929354    5.237464617   10.443318956
    0.372287145   10.230843755    5.235914130   10.439098548
    0.379465776   10.226682484    5.234334661   10.434800005
    0.386644407   10.222445762    5.232726277   10.430423555
    0.393823038   10.218133810    5.231089050   10.425969430
    0.401001669   10.213746854    5.229423049   10.421437863
    0.408180301   10.209285122    5.227728345   10.416829094
    0.415358932   10.204748848    5.226005013   10.412143365
    0.422537563   10.200138268    5.224253125   10.407380922
    0.429716194   10.195453621    5.222472758   10.402542015
    0.436894825   10.190695151    5.220663986   10.397626896
    0.444073456   10.185863103    5.218826889   10.392635822
    0.451252087   10.180957728    5.216961543   10.387569053
    0.458430718   10.175979279    5.215068029   10.382426853
    0.465609349   10.170928013    5.213146428   10.377209489
    0.472787980   10.165804189    5.211196821   10.371917232
    0.479966611   10.160608071    5.209219290   10.366550354
    0.487145242   10.155339924    5.207213920   10.361109134
    0.494323873   10.150000018    5.205180796   10.355593852
    0.501502504   10.144588626    5.203120003   10.350004792
    0.508681135   10.139106022    5.201031629   10.344342240
    0.515859766   10.133552487    5.198915761   10.338606486
    0.523038397   10.127928302    5.196772489   10.332797824
    0.530217028   10.122233750    5.194601902   10.326916551
    0.537395659   10.116469121    5.192404091   10.320962965
    0.544574290   10.110634705    5.190179149   10.314937370
    0.551752922   10.104730795    5.187927168   10.308840070
    0.558931553   10.098757687    5.185648242   10.302671374
    0.566110184   10.092715682    5.183342467   10.296431594
    0.573288815   10.086605080    5.181009937   10.290121044
    0.580467446   10.080426186    5.178650750   10.283740040
    0.587646077   10.074179309    5.176265002   10.277288904
    0.594824708   10.067864757    5.173852794   10.270767956
    0.602003339   10.061482844    5.171414224   10.264177524
    0.609181970   10.055033885    5.168949393   10.257517934
    0.616360601   10.048518197    5.166458401   10.250789518
    0.623539232   10.041936101    5.163941352   10.243992609
    0.630717863   10.035287920    5.161398347   10.237127543
    0.637896494   10.028573980    5.158829491   10.230194658
    0.645075125   10.021794607    5.156234889   10.223194295
    0.652253756   10.014950131    5.153614646   10.216126798
    0.659432387   10.008040886    5.150968868   10.208992512
    0.666611018   10.001067205    5.148297662   10.201791785
    0.673789649    9.994029425    5.145601137   10.194524968
    0.680968280    9.986927886    5.142879401   10.187192413
    0.688146912    9.979762929    5.140132563   10.179794476
    0.695325543    9.972534896    5.137360735   10.172331513
    0.702504174    9.965244134    5.134564026   10.164803883
    0.709682805    9.957890989    5.131742549   10.157211949
    0.716861436    9.950475811    5.128896417   10.149556074
    0.724040067    9.942998952    5.126025741   10.141836623
    0.731218698    9.935460765    5.123130637   10.134053963
    0.738397329    9.927861604    5.120211220   10.126208464
    0.745575960    9.920201828    5.117267603   10.118300498
    0.752754591    9.912481794    5.114299904   10.110330436
    0.759933222    9.904701864    5.111308239   10.102298656
    0.767111853    9.896862399    5.108292726   10.094205533
    0.774290484    9.888963764    5.105253481   10.086051445
    0.781469115    9.881006324    5.102190625   10.077836773
    0.788647746    9.872990447    5.099104277   10.069561900
    0.795826377    9.864916501    5.095994555   10.061227207
    0.803005008    9.856784857    5.092861581   10.052833081
    0.810183639    9.848595885    5.089705476   10.044379908
    0.817362270    9.840349961    5.086526361   10.035868075
    0.824540902    9.832047458    5.083324359   10.027297974
    0.831719533    9.823688752    5.080099592   10.018669993
    0.838898164    9.815274220    5.076852184   10.009984527
    0.846076795    9.806804242    5.073582258   10.001241967
    0.853255426    9.798279197    5.070289939    9.992442709
    0.860434057    9.789699466    5.066975352    9.983587150
    0.867612688    9.781065431    5.063638622    9.974675686
    0.874791319    9.772377475    5.060279875    9.965708717
    0.881969950    9.763635984    5.056899238    9.956686640
    0.889148581    9.754841342    5.053496837    9.947609858
    0.896327212    9.745993936    5.050072800    9.938478772
    0.903505843    9.737094154    5.046627253    9.929293784
    0.910684474    9.728142383    5.043160327    9.920055298
    0.917863105    9.719139014    5.039672148    9.910763719
    0.925041736    9.710084436    5.036162846    9.901419452
    0.932220367    9.700979040    5.032632552    9.892022904
    0.939398998    9.691823218    5.029081393    9.882574481
    0.946577629    9.682617362    5.025509501    9.873074591
    0.953756260    9.673361866    5.021917006    9.863523643
    0.960934891    9.664057124    5.018304039    9.853922045
    0.968113523    9.654703530    5.014670731    9.844270209
    0.975292154    9.645301479    5.011017214    9.834568544
    0.982470785    9.635851366    5.007343620    9.824817461
    0.989649416    9.626353588    5.003650081    9.815017372
    0.996828047    9.616808542    4.999936729    9.805168688
    1.004006678    9.607216625    4.996203698    9.795271823
    1.011185309    9.597578234    4.992451121    9.785327189
    1.018363940    9.587893766    4.988679131    9.775335200
    1.025542571    9.578163621    4.984887861    9.765296268
    1.032721202    9.568388197    4.981077446    9.755210808
    1.039899833    9.558567892    4.977248019    9.745079234
    1.047078464    9.548703106    4.973399716    9.734901960
    1.054257095    9.538794238    4.969532670    9.724679402
    1.061435726    9.528841687    4.965647017    9.714411972
    1.068614357    9.518845853    4.961742891    9.704100088
    1.075792988    9.508807135    4.957820428    9.693744163
    1.082971619    9.498725934    4.953879764    9.683344612
    1.090150250    9.488602648    4.949921032    9.672901850
    1.097328881    9.478437678    4.945944371    9.662416293
    1.104507513    9.468231423    4.941949914    9.651888355
    1.111686144    9.457984283    4.937937799    9.641318451
    1.118864775    9.447696658    4.933908161    9.630706996
    1.126043406    9.437368947    4.929861136    9.620054404
    1.133222037    9.427001548    4.925796862    9.609361089
    1.140400668    9.416594862    4.921715474    9.598627467
    1.147579299    9.406149287    4.917617109    9.587853950
    1.154757930    9.395665222    4.913501903    9.577040953
    1.161936561    9.385143064    4.909369993    9.566188888
    1.169115192    9.374583213    4.905221517    9.555298169
    1.176293823    9.363986064    4.901056610    9.544369208
    1.183472454    9.353352017    4.896875409    9.533402417
    1.190651085    9.342681467    4.892678052    9.522398208
    1.197829716    9.331974811    4.888464676    9.511356992
    1.205008347    9.321232445    4.884235416    9.500279180
    1.212186978    9.310454764    4.879990411    9.489165182
    1.219365609    9.299642163    4.875729796    9.478015408
    1.226544240    9.288795038    4.871453709    9.466830267
    1.233722871    9.277913780    4.867162287    9.455610167
    1.240901503    9.266998785    4.862855667    9.444355516
    1.248080134    9.256050444    4.858533984    9.433066721
    1.255258765    9.245069148    4.854197377    9.421744189
    1.262437396    9.234055291    4.849845981    9.410388326
    1.269616027    9.223009261    4.845479933    9.398999535
    1.276794658    9.211931449    4.841099371    9.387578222
    1.283973289    9.200822244    4.836704429    9.376124789
    1.291151920    9.189682034    4.832295245    9.364639640
    1.298330551    9.178511207    4.827871954    9.353123175
    1.305509182    9.167310148    4.823434693    9.341575796
    1.312687813    9.156079245    4.818983598    9.329997903
    1.319866444    9.144818881    4.814518805    9.318389893
    1.327045075    9.133529441    4.810040449    9.306752167
    1.334223706    9.122211308    4.805548666    9.295085119
    1.341402337    9.110864863    4.801043592    9.283389147
    1.348580968    9.099490489    4.796525361    9.271664644
    1.355759599    9.088088564    4.791994109    9.259912006
    1.362938230    9.076659469    4.787449971    9.248131625
    1.370116861    9.065203581    4.782893081    9.236323892
    1.377295492    9.053721277    4.778323575    9.224489198
    1.384474124    9.042212933    4.773741585    9.212627933
    1.391652755    9.030678925    4.769147248    9.200740485
    1.398831386    9.019119625    4.764540696    9.188827240
    1.406010017    9.007535406    4.759922063    9.176888585
    1.413188648    8.995926640    4.755291483    9.164924905
    1.420367279    8.984293697    4.750649088    9.152936582
    1.427545910    8.972636945    4.745995013    9.140924000
    1.434724541    8.960956754    4.741329390    9.128887538
    1.441903172    8.949253488    4.736652351    9.116827577
    1.449081803    8.937527514    4.731964028    9.104744494
    1.456260434    8.925779196    4.727264554    9.092638667
    1.463439065    8.914008896    4.722554060    9.080510471
    1.470617696    8.902216976    4.717832678    9.068360280
    1.477796327    8.890403796    4.713100539    9.056188467
    1.484974958    8.878569714    4.708357773    9.043995403
    1.492153589    8.866715089    4.703604511    9.031781459
    1.499332220    8.854840276    4.698840884    9.019547002
    1.506510851    8.842945630    4.694067021    9.007292400
    1.513689482    8.831031503    4.689283052    8.995018019
    1.520868114    8.819098249    4.684489107    8.982724222
    1.528046745    8.807146217    4.679685313    8.970411372
    1.535225376    8.795175757    4.674871801    8.958079830
    1.542404007    8.783187216    4.670048697    8.945729956
    1.549582638    8.771180939    4.665216130    8.933362107
    1.556761269    8.759157272    4.660374228    8.920976640
    1.563939900    8.747116558    4.655523117    8.908573910
    1.571118531    8.735059137    4.650662925    8.896154270
    1.578297162    8.722985351    4.645793778    8.883718071
    1.585475793    8.710895538    4.640915803    8.871265665
    1.592654424    8.698790034    4.636029124    8.858797398
    1.599833055    8.686669175    4.631133867    8.846313618
    1.607011686    8.674533295    4.626230157    8.833814670
    1.614190317    8.662382726    4.621318119    8.821300898
    1.621368948    8.650217799    4.616397876    8.808772643
    1.628547579    8.638038842    4.611469553    8.796230245
    1.635726210    8.625846184    4.606533273    8.783674043
    1.642904841    8.613640149    4.601589159    8.771104374
    1.650083472    8.601421063    4.596637332    8.758521572
    1.657262104    8.589189247    4.591677916    8.745925971
    1.664440735    8.576945023    4.586711032    8.733317903
    1.671619366    8.564688710    4.581736802    8.720697696
    1.678797997    8.552420625    4.576755345    8.708065680
    1.685976628    8.540141084    4.571766782    8.695422181
    1.693155259    8.527850402    4.566771233    8.682767522
    1.700333890    8.515548890    4.561768818    8.670102028
    1.707512521    8.503236861    4.556759655    8.657426019
    1.714691152    8.490914622    4.551743864    8.644739814
    1.721869783    8.478582482    4.546721561    8.632043730
    1.729048414    8.466240745    4.541692865    8.619338084
    1.736227045    8.453889717    4.536657894    8.606623189
    1.743405676    8.441529698    4.531616762    8.593899358
    1.750584307    8.429160990    4.526569587    8.581166899
    1.757762938    8.416783892    4.521516485    8.568426122
    1.764941569    8.404398700    4.516457571    8.555677334
    1.772120200    8.392005709    4.511392958    8.542920839
    1.779298831    8.379605214    4.506322763    8.530156939
    1.786477462    8.367197505    4.501247098    8.517385937
    1.793656093    8.354782873    4.496166077    8.504608130
    1.800834725    8.342361606    4.491079812    8.491823817
    1.808013356    8.329933991    4.485988416    8.479033293
    1.815191987    8.317500311    4.480892000    8.466236852
    1.822370618    8.305060850    4.475790677    8.453434785
    1.829549249    8.292615890    4.470684556    8.440627382
    1.836727880    8.280165708    4.465573748    8.427814932
    1.843906511    8.267710583    4.460458362    8.414997720
    1.851085142    8.255250791    4.455338508    8.402176030
    1.858263773    8.242786605    4.450214295    8.389350146
    1.865442404    8.230318297    4.445085831    8.376520348
    1.872621035    8.217846138    4.439953223    8.363686914
    1.879799666    8.205370396    4.434816579    8.350850121
    1.886978297    8.192891339    4.429676005    8.338010244
    1.894156928    8.180409230    4.424531607    8.325167556
    1.901335559    8.167924333    4.419383491    8.312322328
    1.908514190    8.155436909    4.414231762    8.299474829
    1.915692821    8.142947218    4.409076525    8.286625328
    1.922871452    8.130455517    4.403917882    8.273774088
    1.930050083    8.117962062    4.398755939    8.260921374
    1.937228715    8.105467108    4.393590797    8.248067448
    1.944407346    8.092970906    4.388422560    8.235212569
    1.951585977    8.080473707    4.383251328    8.222356995
    1.958764608    8.067975760    4.378077204    8.209500983
    1.965943239    8.055477311    4.372900287    8.196644785
    1.973121870    8.042978606    4.367720678    8.183788656
    1.980300501    8.030479887    4.362538477    8.170932844
    1.987479132    8.017981396    4.357353783    8.158077599
    1.994657763    8.005483373    4.352166694    8.145223167
    2.001836394    7.992986056    4.346977308    8.132369793
    2.009015025    7.980489680    4.341785723    8.119517719
    2.016193656    7.967994479    4.336592035    8.106667188
    2.023372287    7.955500687    4.331396341    8.093818437
    2.030550918    7.943008533    4.326198737    8.080971704
    2.037729549    7.930518247    4.320999318    8.068127225
    2.044908180    7.918030055    4.315798178    8.055285232
    2.052086811    7.905544183    4.310595412    8.042445959
    2.059265442    7.893060854    4.305391113    8.029609633
    2.066444073    7.880580291    4.300185374    8.016776484
    2.073622705    7.868102712    4.294978287    8.003946738
    2.080801336    7.855628336    4.289769945    7.991120618
    2.087979967    7.843157379    4.284560439    7.978298347
    2.095158598    7.830690056    4.279349859    7.965480146
    2.102337229    7.818226579    4.274138295    7.952666233
    2.109515860    7.805767161    4.268925838    7.939856825
    2.116694491    7.793312009    4.263712576    7.927052138
    2.123873122    7.780861332    4.258498598    7.914252384
    2.131051753    7.768415335    4.253283992    7.901457774
    2.138230384    7.755974222    4.248068845    7.888668519
    2.145409015    7.743538196    4.242853244    7.875884826
    2.152587646    7.731107457    4.237637275    7.863106902
    2.159766277    7.718682204    4.232421023    7.850334949
    2.166944908    7.706262634    4.227204575    7.837569171
    2.174123539    7.693848943    4.221988015    7.824809768
    2.181302170    7.681441323    4.216771426    7.812056938
    2.188480801    7.669039968    4.211554892    7.799310880
    2.195659432    7.656645066    4.206338496    7.786571788
    2.202838063    7.644256807    4.201122320    7.773839854
    2.210016694    7.631875378    4.195906446    7.761115272
    2.217195326    7.619500963    4.190690956    7.748398231
    2.224373957    7.607133746    4.185475929    7.735688919
    2.231552588    7.594773909    4.180261447    7.722987522
    2.238731219    7.582421632    4.175047587    7.710294226
    2.245909850    7.570077093    4.169834431    7.697609212
    2.253088481    7.557740468    4.164622055    7.684932662
    2.260267112    7.545411933    4.159410538    7.672264756
    2.267445743    7.533091662    4.154199957    7.659605671
    2.274624374    7.520779826    4.148990389    7.646955584
    2.281803005    7.508476595    4.143781910    7.634314668
    2.288981636    7.496182137    4.138574596    7.621683096
    2.296160267    7.483896619    4.133368521    7.609061039
    2.303338898    7.471620208    4.128163761    7.596448666
    2.310517529    7.459353065    4.122960388    7.583846144
    2.317696160    7.447095353    4.117758478    7.571253641
    2.324874791    7.434847233    4.112558102    7.558671319
    2.332053422    7.422608863    4.107359333    7.546099341
    2.339232053    7.410380401    4.102162243    7.533537868
    2.346410684    7.398162001    4.096966903    7.520987060
    2.353589316    7.385953818    4.091773384    7.508447073
    2.360767947    7.373756005    4.086581755    7.495918064
    2.367946578    7.361568712    4.081392087    7.483400187
    2.375125209    7.349392088    4.076204449    7.470893595
    2.382303840    7.337226281    4.071018908    7.458398439
    2.389482471    7.325071438    4.065835534    7.445914868
    2.396661102    7.312927703    4.060654393    7.433443030
    2.403839733    7.300795219    4.055475552    7.420983072
    2.411018364    7.288674128    4.050299079    7.408535138
    2.418196995    7.276564569    4.045125038    7.396099371
    2.425375626    7.264466682    4.039953495    7.383675913
    2.432554257    7.252380604    4.034784515    7.371264904
    2.439732888    7.240306469    4.029618162    7.358866483
    2.446911519    7.228244412    4.024454499    7.346480785
    2.454090150    7.216194567    4.019293591    7.334107948
    2.461268781    7.204157062    4.014135499    7.321748103
    2.468447412    7.192132030    4.008980287    7.309401385
    2.475626043    7.180119597    4.003828014    7.297067923
    2.482804674    7.168119890    3.998678743    7.284747847
    2.489983306    7.156133035    3.993532535    7.272441284
    2.497161937    7.144159155    3.988389448    7.260148362
    2.504340568    7.132198373    3.983249543    7.247869205
    2.511519199    7.120250811    3.978112879    7.235603935
    2.518697830    7.108316586    3.972979515    7.223352677
    2.525876461    7.096395819    3.967849507    7.211115548
    2.533055092    7.084488625    3.962722915    7.198892670
    2.540233723    7.072595120    3.957599795    7.186684158
