# energy grid [eV]     ieps_x  ieps_y  ieps_z
#
    0.200000000    9.511730617    9.322827568    9.793957280
    0.207178631    9.509343852    9.320568182    9.791495620
    0.214357262    9.506874732    9.318230757    9.788948971
    0.221535893    9.504323441    9.315815457    9.786317517
    0.228714524    9.501690169    9.313322454    9.783601448
    0.235893155    9.498975110    9.310751923    9.780800960
    0.243071786    9.496178464    9.308104046    9.777916255
    0.250250417    9.493300437    9.305379009    9.774947540
    0.257429048    9.490341241    9.302577002    9.771895027
    0.264607679    9.487301091    9.299698221    9.768758935
    0.271786311    9.484180209    9.296742866    9.765539485
    0.278964942    9.480978822    9.293711143    9.762236907
    0.286143573    9.477697163    9.290603261    9.758851435
    0.293322204    9.474335466    9.287419435    9.755383307
    0.300500835    9.470893976    9.284159884    9.751832768
    0.307679466    9.467372939    9.280824832    9.748200066
    0.314858097    9.463772606    9.277414506    9.744485455
    0.322036728    9.460093233    9.273929140    9.740689196
    0.329215359    9.456335083    9.270368969    9.736811550
    0.336393990    9.452498421    9.266734234    9.732852788
    0.343572621    9.448583517    9.263025182    9.728813182
    0.350751252    9.444590646    9.259242061    9.724693010
    0.357929883    9.440520088    9.255385124    9.720492554
    0.365108514    9.436372126    9.251454630    9.716212103
    0.372287145    9.432147048    9.247450840    9.711851946
    0.379465776    9.427845147    9.243374019    9.707412381
    0.386644407    9.423466719    9.239224436    9.702893707
    0.393823038    9.419012064    9.235002365    9.698296230
    0.401001669    9.414481487    9.230708082    9.693620256
    0.408180301    9.409875296    9.226341867    9.688866100
    0.415358932    9.405193804    9.221904006    9.684034078
    0.422537563    9.400437327    9.217394784    9.679124510
    0.429716194    9.395606184    9.212814494    9.674137722
    0.436894825    9.390700698    9.208163429    9.669074042
    0.444073456    9.385721198    9.203441888    9.663933802
    0.451252087    9.380668014    9.198650172    9.658717338
    0.458430718    9.375541479    9.193788585    9.653424990
    0.465609349    9.370341932    9.188857435    9.648057101
    0.472787980    9.365069712    9.183857032    9.642614018
    0.479966611    9.359725164    9.178787691    9.637096090
    0.487145242    9.354308636    9.173649728    9.631503672
    0.494323873    9.348820476    9.168443462    9.625837120
    0.501502504    9.343261040    9.163169217    9.620096794
    0.508681135    9.337630683    9.157827318    9.614283058
    0.515859766    9.331929765    9.152418093    9.608396277
    0.523038397    9.326158647    9.146941873    9.602436822
    0.530217028    9.320317695    9.141398992    9.596405064
    0.537395659    9.314407276    9.135789786    9.590301378
    0.544574290    9.308427761    9.130114593    9.584126144
    0.551752922    9.302379522    9.124373756    9.577879741
    0.558931553    9.296262935    9.118567617    9.571562553
    0.566110184    9.290078379    9.112696522    9.565174967
    0.573288815    9.283826232    9.106760821    9.558717371
    0.580467446    9.277506879    9.100760863    9.552190157
    0.587646077    9.271120703    9.094697002    9.545593719
    0.594824708    9.264668093    9.088569592    9.538928453
    0.602003339    9.258149438    9.082378991    9.532194757
    0.609181970    9.251565129    9.076125558    9.525393032
    0.616360601    9.244915559    9.069809654    9.518523683
    0.623539232    9.238201126    9.063431643    9.511587113
    0.630717863    9.231422224    9.056991888    9.504583731
    0.637896494    9.224579256    9.050490758    9.497513945
    0.645075125    9.217672620    9.043928621    9.490378168
    0.652253756    9.210702722    9.037305846    9.483176813
    0.659432387    9.203669964    9.030622808    9.475910294
    0.666611018    9.196574755    9.023879878    9.468579030
    0.673789649    9.189417500    9.017077433    9.461183439
    0.680968280    9.182198611    9.010215850    9.453723942
    0.688146912    9.174918499    9.003295506    9.446200960
    0.695325543    9.167577575    8.996316783    9.438614918
    0.702504174    9.160176253    8.989280060    9.430966241
    0.709682805    9.152714950    8.982185722    9.423255357
    0.716861436    9.145194081    8.975034151    9.415482692
    0.724040067    9.137614064    8.967825733    9.407648678
    0.731218698    9.129975318    8.960560855    9.399753745
    0.738397329    9.122278263    8.953239903    9.391798325
    0.745575960    9.114523321    8.945863268    9.383782853
    0.752754591    9.106710913    8.938431338    9.375707762
    0.759933222    9.098841463    8.930944505    9.367573488
    0.767111853    9.090915395    8.923403161    9.359380469
    0.774290484    9.082933135    8.915807698    9.351129143
    0.781469115    9.074895107    8.908158510    9.342819948
    0.788647746    9.066801740    8.900455992    9.334453325
    0.795826377    9.058653460    8.892700540    9.326029714
    0.803005008    9.050450695    8.884892549    9.317549556
    0.810183639    9.042193875    8.877032416    9.309013294
    0.817362270    9.033883429    8.869120540    9.300421372
    0.824540902    9.025519788    8.861157319    9.291774233
    0.831719533    9.017103381    8.853143151    9.283072321
    0.838898164    9.008634640    8.845078436    9.274316081
    0.846076795    9.000113997    8.836963575    9.265505960
    0.853255426    8.991541884    8.828798968    9.256642403
    0.860434057    8.982918732    8.820585017    9.247725857
    0.867612688    8.974244976    8.812322122    9.238756768
    0.874791319    8.965521047    8.804010685    9.229735585
    0.881969950    8.956747380    8.795651110    9.220662755
    0.889148581    8.947924407    8.787243798    9.211538725
    0.896327212    8.939052562    8.778789153    9.202363945
    0.903505843    8.930132279    8.770287578    9.193138862
    0.910684474    8.921163992    8.761739475    9.183863925
    0.917863105    8.912148135    8.753145249    9.174539583
    0.925041736    8.903085142    8.744505303    9.165166285
    0.932220367    8.893975446    8.735820041    9.155744480
    0.939398998    8.884819482    8.727089866    9.146274616
    0.946577629    8.875617682    8.718315183    9.136757143
    0.953756260    8.866370482    8.709496396    9.127192508
    0.960934891    8.857078314    8.700633908    9.117581161
    0.968113523    8.847741612    8.691728122    9.107923551
    0.975292154    8.838360808    8.682779444    9.098220125
    0.982470785    8.828936335    8.673788275    9.088471331
    0.989649416    8.819468626    8.664755021    9.078677618
    0.996828047    8.809958112    8.655680082    9.068839433
    1.004006678    8.800405226    8.646563864    9.058957223
    1.011185309    8.790810399    8.637406767    9.049031434
    1.018363940    8.781174061    8.628209195    9.039062514
    1.025542571    8.771496642    8.618971550    9.029050908
    1.032721202    8.761778574    8.609694233    9.018997062
    1.039899833    8.752020284    8.600377646    9.008901420
    1.047078464    8.742222203    8.591022189    8.998764427
    1.054257095    8.732384757    8.581628263    8.988586527
    1.061435726    8.722508374    8.572196269    8.978368163
    1.068614357    8.712593481    8.562726605    8.968109778
    1.075792988    8.702640505    8.553219670    8.957811813
    1.082971619    8.692649870    8.543675863    8.947474709
    1.090150250    8.682622002    8.534095581    8.937098908
    1.097328881    8.672557324    8.524479223    8.926684848
    1.104507513    8.662456259    8.514827184    8.916232970
    1.111686144    8.652319229    8.505139860    8.905743709
    1.118864775    8.642146656    8.495417647    8.895217505
    1.126043406    8.631938961    8.485660939    8.884654793
    1.133222037    8.621696562    8.475870130    8.874056008
    1.140400668    8.611419879    8.466045612    8.863421585
    1.147579299    8.601109329    8.456187779    8.852751958
    1.154757930    8.590765328    8.446297021    8.842047558
    1.161936561    8.580388293    8.436373728    8.831308818
    1.169115192    8.569978638    8.426418292    8.820536167
    1.176293823    8.559536775    8.416431099    8.809730036
    1.183472454    8.549063119    8.406412539    8.798890851
    1.190651085    8.538558079    8.396362999    8.788019040
    1.197829716    8.528022067    8.386282863    8.777115029
    1.205008347    8.517455490    8.376172518    8.766179243
    1.212186978    8.506858757    8.366032346    8.755212105
    1.219365609    8.496232274    8.355862732    8.744214037
    1.226544240    8.485576447    8.345664057    8.733185460
    1.233722871    8.474891680    8.335436702    8.722126795
    1.240901503    8.464178374    8.325181046    8.711038458
    1.248080134    8.453436933    8.314897469    8.699920868
    1.255258765    8.442667756    8.304586348    8.688774441
    1.262437396    8.431871241    8.294248059    8.677599589
    1.269616027    8.421047786    8.283882978    8.666396727
    1.276794658    8.410197788    8.273491478    8.655166266
    1.283973289    8.399321641    8.263073933    8.643908616
    1.291151920    8.388419737    8.252630713    8.632624186
    1.298330551    8.377492470    8.242162191    8.621313382
    1.305509182    8.366540229    8.231668733    8.609976611
    1.312687813    8.355563403    8.221150709    8.598614277
    1.319866444    8.344562380    8.210608485    8.587226782
    1.327045075    8.333537545    8.200042425    8.575814527
    1.334223706    8.322489282    8.189452895    8.564377912
    1.341402337    8.311417975    8.178840256    8.552917335
    1.348580968    8.300324005    8.168204870    8.541433192
    1.355759599    8.289207752    8.157547097    8.529925878
    1.362938230    8.278069593    8.146867294    8.518395785
    1.370116861    8.266909904    8.136165820    8.506843306
    1.377295492    8.255729062    8.125443029    8.495268830
    1.384474124    8.244527439    8.114699276    8.483672745
    1.391652755    8.233305406    8.103934913    8.472055436
    1.398831386    8.222063334    8.093150292    8.460417290
    1.406010017    8.210801590    8.082345762    8.448758689
    1.413188648    8.199520542    8.071521673    8.437080014
    1.420367279    8.188220554    8.060678369    8.425381644
    1.427545910    8.176901990    8.049816198    8.413663957
    1.434724541    8.165565210    8.038935502    8.401927329
    1.441903172    8.154210574    8.028036624    8.390172134
    1.449081803    8.142838441    8.017119904    8.378398744
    1.456260434    8.131449166    8.006185681    8.366607529
    1.463439065    8.120043103    7.995234293    8.354798858
    1.470617696    8.108620607    7.984266077    8.342973099
    1.477796327    8.097182026    7.973281365    8.331130614
    1.484974958    8.085727711    7.962280491    8.319271769
    1.492153589    8.074258008    7.951263786    8.307396923
    1.499332220    8.062773263    7.940231580    8.295506436
    1.506510851    8.051273819    7.929184199    8.283600666
    1.513689482    8.039760019    7.918121972    8.271679967
    1.520868114    8.028232201    7.907045221    8.259744694
    1.528046745    8.016690704    7.895954269    8.247795198
    1.535225376    8.005135865    7.884849439    8.235831828
    1.542404007    7.993568016    7.873731049    8.223854932
    1.549582638    7.981987492    7.862599418    8.211864857
    1.556761269    7.970394621    7.851454861    8.199861945
    1.563939900    7.958789734    7.840297692    8.187846539
    1.571118531    7.947173156    7.829128226    8.175818979
    1.578297162    7.935545212    7.817946771    8.163779602
    1.585475793    7.923906226    7.806753639    8.151728744
    1.592654424    7.912256518    7.795549136    8.139666740
    1.599833055    7.900596407    7.784333567    8.127593921
    1.607011686    7.888926211    7.773107238    8.115510617
    1.614190317    7.877246244    7.761870451    8.103417156
    1.621368948    7.865556820    7.750623506    8.091313864
    1.628547579    7.853858251    7.739366701    8.079201065
    1.635726210    7.842150845    7.728100334    8.067079081
    1.642904841    7.830434910    7.716824700    8.054948231
    1.650083472    7.818710751    7.705540093    8.042808834
    1.657262104    7.806978673    7.694246804    8.030661204
    1.664440735    7.795238976    7.682945124    8.018505657
    1.671619366    7.783491961    7.671635339    8.006342503
    1.678797997    7.771737924    7.660317738    7.994172053
    1.685976628    7.759977162    7.648992603    7.981994613
    1.693155259    7.748209968    7.637660219    7.969810489
    1.700333890    7.736436634    7.626320866    7.957619986
    1.707512521    7.724657450    7.614974823    7.945423404
    1.714691152    7.712872704    7.603622367    7.933221043
    1.721869783    7.701082680    7.592263775    7.921013200
    1.729048414    7.689287664    7.580899320    7.908800170
    1.736227045    7.677487937    7.569529273    7.896582247
    1.743405676    7.665683779    7.558153905    7.884359722
    1.750584307    7.653875467    7.546773485    7.872132884
    1.757762938    7.642063279    7.535388279    7.859902020
    1.764941569    7.630247487    7.523998550    7.847667415
    1.772120200    7.618428364    7.512604564    7.835429352
    1.779298831    7.606606180    7.501206580    7.823188113
    1.786477462    7.594781202    7.489804857    7.810943974
    1.793656093    7.582953697    7.478399654    7.798697215
    1.800834725    7.571123929    7.466991225    7.786448109
    1.808013356    7.559292160    7.455579825    7.774196928
    1.815191987    7.547458650    7.444165706    7.761943944
    1.822370618    7.535623657    7.432749117    7.749689426
    1.829549249    7.523787438    7.421330308    7.737433639
    1.836727880    7.511950246    7.409909524    7.725176848
    1.843906511    7.500112334    7.398487011    7.712919315
    1.851085142    7.488273953    7.387063010    7.700661302
    1.858263773    7.476435350    7.375637765    7.688403066
    1.865442404    7.464596772    7.364211513    7.676144863
    1.872621035    7.452758464    7.352784492    7.663886948
    1.879799666    7.440920667    7.341356938    7.651629574
    1.886978297    7.429083623    7.329929085    7.639372989
    1.894156928    7.417247570    7.318501165    7.627117443
    1.901335559    7.405412745    7.307073408    7.614863182
    1.908514190    7.393579382    7.295646043    7.602610449
    1.915692821    7.381747714    7.284219296    7.590359488
    1.922871452    7.369917973    7.272793393    7.578110537
    1.930050083    7.358090386    7.261368556    7.565863836
    1.937228715    7.346265181    7.249945007    7.553619620
    1.944407346    7.334442584    7.238522965    7.541378123
    1.951585977    7.322622817    7.227102648    7.529139578
    1.958764608    7.310806101    7.215684272    7.516904214
    1.965943239    7.298992657    7.204268052    7.504672260
    1.973121870    7.287182700    7.192854199    7.492443942
    1.980300501    7.275376448    7.181442925    7.480219485
    1.987479132    7.263574114    7.170034439    7.467999109
    1.994657763    7.251775909    7.158628947    7.455783037
    2.001836394    7.239982043    7.147226655    7.443571485
    2.009015025    7.228192725    7.135827767    7.431364671
    2.016193656    7.216408161    7.124432484    7.419162809
    2.023372287    7.204628555    7.113041008    7.406966111
    2.030550918    7.192854109    7.101653535    7.394774788
    2.037729549    7.181085025    7.090270264    7.382589048
    2.044908180    7.169321501    7.078891389    7.370409099
    2.052086811    7.157563733    7.067517104    7.358235145
    2.059265442    7.145811918    7.056147599    7.346067388
    2.066444073    7.134066248    7.044783066    7.333906031
    2.073622705    7.122326915    7.033423691    7.321751271
    2.080801336    7.110594109    7.022069662    7.309603306
    2.087979967    7.098868017    7.010721163    7.297462333
    2.095158598    7.087148825    6.999378378    7.285328543
    2.102337229    7.075436719    6.988041487    7.273202128
    2.109515860    7.063731880    6.976710671    7.261083279
    2.116694491    7.052034489    6.965386108    7.248972183
    2.123873122    7.040344724    6.954067973    7.236869027
    2.131051753    7.028662765    6.942756443    7.224773993
    2.138230384    7.016988784    6.931451689    7.212687266
    2.145409015    7.005322957    6.920153883    7.200609024
    2.152587646    6.993665456    6.908863195    7.188539448
    2.159766277    6.982016450    6.897579794    7.176478714
    2.166944908    6.970376108    6.886303845    7.164426997
    2.174123539    6.958744597    6.875035514    7.152384470
    2.181302170    6.947122082    6.863774964    7.140351306
    2.188480801    6.935508726    6.852522357    7.128327673
    2.195659432    6.923904691    6.841277852    7.116313740
    2.202838063    6.912310136    6.830041608    7.104309672
    2.210016694    6.900725221    6.818813783    7.092315636
    2.217195326    6.889150102    6.807594531    7.080331793
    2.224373957    6.877584934    6.796384007    7.068358304
    2.231552588    6.866029870    6.785182361    7.056395328
    2.238731219    6.854485061    6.773989746    7.044443024
    2.245909850    6.842950659    6.762806310    7.032501547
    2.253088481    6.831426810    6.751632201    7.020571051
    2.260267112    6.819913663    6.740467564    7.008651689
    2.267445743    6.808411362    6.729312544    6.996743611
    2.274624374    6.796920050    6.718167284    6.984846967
    2.281803005    6.785439870    6.707031925    6.972961905
    2.288981636    6.773970962    6.695906608    6.961088569
    2.296160267    6.762513465    6.684791470    6.949227104
    2.303338898    6.751067515    6.673686649    6.937377652
    2.310517529    6.739633250    6.662592280    6.925540356
    2.317696160    6.728210802    6.651508497    6.913715353
    2.324874791    6.716800304    6.640435432    6.901902781
    2.332053422    6.705401887    6.629373217    6.890102777
    2.339232053    6.694015681    6.618321980    6.878315474
    2.346410684    6.682641814    6.607281850    6.866541006
    2.353589316    6.671280412    6.596252954    6.854779505
    2.360767947    6.659931600    6.585235417    6.843031099
    2.367946578    6.648595501    6.574229362    6.831295917
    2.375125209    6.637272237    6.563234912    6.819574085
    2.382303840    6.625961930    6.552252188    6.807865729
    2.389482471    6.614664697    6.541281310    6.796170972
    2.396661102    6.603380657    6.530322394    6.784489936
    2.403839733    6.592109925    6.519375559    6.772822742
    2.411018364    6.580852616    6.508440920    6.761169508
    2.418196995    6.569608843    6.497518590    6.749530353
    2.425375626    6.558378719    6.486608683    6.737905392
    2.432554257    6.547162353    6.475711309    6.726294739
    2.439732888    6.535959854    6.464826578    6.714698508
    2.446911519    6.524771330    6.453954600    6.703116810
    2.454090150    6.513596887    6.443095481    6.691549756
    2.461268781    6.502436630    6.432249326    6.679997454
    2.468447412    6.491290662    6.421416242    6.668460012
    2.475626043    6.480159086    6.410596331    6.656937535
    2.482804674    6.469042001    6.399789695    6.645430128
    2.489983306    6.457939508    6.388996434    6.633937893
    2.497161937    6.446851704    6.378216649    6.622460934
    2.504340568    6.435778685    6.367450437    6.610999349
    2.511519199    6.424720549    6.356697895    6.599553237
    2.518697830    6.413677387    6.345959119    6.588122697
    2.525876461    6.402649294    6.335234202    6.576707825
    2.533055092    6.391636360    6.324523239    6.565308715
    2.540233723    6.380638675    6.313826322    6.553925460
