# energy grid [eV]     epsr_x  epsr_y  epsr_z
#
    0.200000000   13.513895285    8.959269086   11.928952227
    0.207178631   13.516715131    8.960895933   11.931341511
    0.214357262   13.519635825    8.962580887   11.933816242
    0.221535893   13.522657514    8.964324027   11.936376546
    0.228714524   13.525780352    8.966125433   11.939022554
    0.235893155   13.529004498    8.967985187   11.941754401
    0.243071786   13.532330117    8.969903377   11.944572225
    0.250250417   13.535757379    8.971880092   11.947476171
    0.257429048   13.539286459    8.973915423   11.950466387
    0.264607679   13.542917537    8.976009465   11.953543025
    0.271786311   13.546650799    8.978162315   11.956706244
    0.278964942   13.550486436    8.980374073   11.959956205
    0.286143573   13.554424646    8.982644842   11.963293075
    0.293322204   13.558465630    8.984974729   11.966717025
    0.300500835   13.562609597    8.987363843   11.970228232
    0.307679466   13.566856759    8.989812294   11.973826875
    0.314858097   13.571207335    8.992320197   11.977513141
    0.322036728   13.575661551    8.994887670   11.981287220
    0.329215359   13.580219635    8.997514833   11.985149307
    0.336393990   13.584881824    9.000201810   11.989099601
    0.343572621   13.589648359    9.002948726   11.993138306
    0.350751252   13.594519487    9.005755711   11.997265634
    0.357929883   13.599495462    9.008622898   12.001481797
    0.365108514   13.604576541    9.011550421   12.005787015
    0.372287145   13.609762990    9.014538418   12.010181513
    0.379465776   13.615055078    9.017587032   12.014665519
    0.386644407   13.620453083    9.020696405   12.019239268
    0.393823038   13.625957286    9.023866686   12.023902999
    0.401001669   13.631567975    9.027098026   12.028656957
    0.408180301   13.637285445    9.030390577   12.033501390
    0.415358932   13.643109996    9.033744497   12.038436554
    0.422537563   13.649041934    9.037159945   12.043462709
    0.429716194   13.655081573    9.040637084   12.048580119
    0.436894825   13.661229230    9.044176081   12.053789056
    0.444073456   13.667485231    9.047777105   12.059089794
    0.451252087   13.673849907    9.051440329   12.064482614
    0.458430718   13.680323596    9.055165929   12.069967804
    0.465609349   13.686906642    9.058954083   12.075545654
    0.472787980   13.693599394    9.062804976   12.081216463
    0.479966611   13.700402210    9.066718791   12.086980533
    0.487145242   13.707315454    9.070695719   12.092838173
    0.494323873   13.714339495    9.074735953   12.098789697
    0.501502504   13.721474710    9.078839687   12.104835424
    0.508681135   13.728721483    9.083007122   12.110975679
    0.515859766   13.736080203    9.087238461   12.117210795
    0.523038397   13.743551268    9.091533909   12.123541108
    0.530217028   13.751135081    9.095893678   12.129966961
    0.537395659   13.758832053    9.100317979   12.136488703
    0.544574290   13.766642602    9.104807030   12.143106688
    0.551752922   13.774567153    9.109361052   12.149821278
    0.558931553   13.782606136    9.113980269   12.156632839
    0.566110184   13.790759992    9.118664908   12.163541744
    0.573288815   13.799029167    9.123415202   12.170548373
    0.580467446   13.807414114    9.128231385   12.177653110
    0.587646077   13.815915294    9.133113696   12.184856348
    0.594824708   13.824533177    9.138062378   12.192158485
    0.602003339   13.833268236    9.143077679   12.199559926
    0.609181970   13.842120957    9.148159847   12.207061081
    0.616360601   13.851091831    9.153309138   12.214662368
    0.623539232   13.860181356    9.158525810   12.222364211
    0.630717863   13.869390039    9.163810125   12.230167042
    0.637896494   13.878718395    9.169162348   12.238071299
    0.645075125   13.888166946    9.174582752   12.246077425
    0.652253756   13.897736224    9.180071608   12.254185872
    0.659432387   13.907426767    9.185629197   12.262397100
    0.666611018   13.917239123    9.191255800   12.270711573
    0.673789649   13.927173846    9.196951704   12.279129764
    0.680968280   13.937231500    9.202717200   12.287652153
    0.688146912   13.947412658    9.208552584   12.296279228
    0.695325543   13.957717901    9.214458155   12.305011482
    0.702504174   13.968147818    9.220434216   12.313849419
    0.709682805   13.978703008    9.226481076   12.322793548
    0.716861436   13.989384078    9.232599047   12.331844385
    0.724040067   14.000191643    9.238788447   12.341002456
    0.731218698   14.011126330    9.245049598   12.350268294
    0.738397329   14.022188773    9.251382825   12.359642440
    0.745575960   14.033379614    9.257788460   12.369125441
    0.752754591   14.044699508    9.264266838   12.378717855
    0.759933222   14.056149117    9.270818300   12.388420247
    0.767111853   14.067729113    9.277443190   12.398233190
    0.774290484   14.079440179    9.284141859   12.408157265
    0.781469115   14.091283004    9.290914661   12.418193063
    0.788647746   14.103258292    9.297761955   12.428341182
    0.795826377   14.115366754    9.304684108   12.438602229
    0.803005008   14.127609112    9.311681487   12.448976822
    0.810183639   14.139986097    9.318754469   12.459465583
    0.817362270   14.152498453    9.325903434   12.470069149
    0.824540902   14.165146933    9.333128765   12.480788162
    0.831719533   14.177932301    9.340430855   12.491623274
    0.838898164   14.190855331    9.347810098   12.502575147
    0.846076795   14.203916808    9.355266896   12.513644453
    0.853255426   14.217117530    9.362801656   12.524831872
    0.860434057   14.230458305    9.370414790   12.536138095
    0.867612688   14.243939952    9.378106715   12.547563823
    0.874791319   14.257563301    9.385877855   12.559109767
    0.881969950   14.271329195    9.393728640   12.570776646
    0.889148581   14.285238490    9.401659503   12.582565192
    0.896327212   14.299292050    9.409670887   12.594476147
    0.903505843   14.313490754    9.417763237   12.606510261
    0.910684474   14.327835494    9.425937006   12.618668299
    0.917863105   14.342327172    9.434192654   12.630951033
    0.925041736   14.356966704    9.442530645   12.643359247
    0.932220367   14.371755020    9.450951451   12.655893738
    0.939398998   14.386693059    9.459455548   12.668555312
    0.946577629   14.401781779    9.468043421   12.681344787
    0.953756260   14.417022145    9.476715560   12.694262995
    0.960934891   14.432415141    9.485472463   12.707310775
    0.968113523   14.447961761    9.494314632   12.720488983
    0.975292154   14.463663015    9.503242578   12.733798485
    0.982470785   14.479519926    9.512256818   12.747240157
    0.989649416   14.495533531    9.521357876   12.760814892
    0.996828047   14.511704883    9.530546282   12.774523593
    1.004006678   14.528035048    9.539822576   12.788367175
    1.011185309   14.544525108    9.549187302   12.802346570
    1.018363940   14.561176159    9.558641013   12.816462718
    1.025542571   14.577989315    9.568184268   12.830716578
    1.032721202   14.594965702    9.577817635   12.845109117
    1.039899833   14.612106465    9.587541689   12.859641322
    1.047078464   14.629412762    9.597357013   12.874314189
    1.054257095   14.646885769    9.607264195   12.889128729
    1.061435726   14.664526678    9.617263835   12.904085961
    1.068614357   14.682336697    9.627356535   12.919186898
    1.075792988   14.700317051    9.637542907   12.934432561
    1.082971619   14.718468986    9.647823578   12.949824089
    1.090150250   14.736793765    9.658199188   12.965362640
    1.097328881   14.755292665    9.668670372   12.981049283
    1.104507513   14.773966981    9.679237775   12.996885108
    1.111686144   14.792818029    9.689902053   13.012871241
    1.118864775   14.811847142    9.700663870   13.029008832
    1.126043406   14.831055673    9.711523902   13.045299049
    1.133222037   14.850444992    9.722482832   13.061743077
    1.140400668   14.870016491    9.733541352   13.078342119
    1.147579299   14.889771581    9.744700164   13.095097394
    1.154757930   14.909711694    9.755959980   13.112010141
    1.161936561   14.929838280    9.767321520   13.129081614
    1.169115192   14.950152813    9.778785515   13.146313089
    1.176293823   14.970656784    9.790352706   13.163705858
    1.183472454   14.991351711    9.802023843   13.181261234
    1.190651085   15.012239128    9.813799687   13.198980547
    1.197829716   15.033320595    9.825681010   13.216865150
    1.205008347   15.054597694    9.837668594   13.234916413
    1.212186978   15.076072028    9.849763230   13.253135728
    1.219365609   15.097745226    9.861965721   13.271524508
    1.226544240   15.119618937    9.874276883   13.290084185
    1.233722871   15.141694839    9.886697541   13.308816217
    1.240901503   15.163974630    9.899228530   13.327722079
    1.248080134   15.186460035    9.911870701   13.346803271
    1.255258765   15.209152805    9.924624912   13.366061315
    1.262437396   15.232054714    9.937492035   13.385497756
    1.269616027   15.255167566    9.950472955   13.405114164
    1.276794658   15.278493187    9.963568568   13.424912130
    1.283973289   15.302033435    9.976779783   13.444893273
    1.291151920   15.325790192    9.990107521   13.465059233
    1.298330551   15.349765370   10.003552716   13.485411679
    1.305509182   15.373960908   10.017116315   13.505952302
    1.312687813   15.398378775   10.030799281   13.526682824
    1.319866444   15.423020971   10.044602586   13.547604989
    1.327045075   15.447889523   10.058527219   13.568720571
    1.334223706   15.472986491   10.072574182   13.590031370
    1.341402337   15.498313965   10.086744491   13.611539218
    1.348580968   15.523874068   10.101039177   13.633245970
    1.355759599   15.549668954   10.115459285   13.655153517
    1.362938230   15.575700812   10.130005875   13.677263774
    1.370116861   15.601971861   10.144680024   13.699578690
    1.377295492   15.628484357   10.159482821   13.722100244
    1.384474124   15.655240592   10.174415375   13.744830448
    1.391652755   15.682242889   10.189478807   13.767771345
    1.398831386   15.709493612   10.204674257   13.790925012
    1.406010017   15.736995159   10.220002881   13.814293559
    1.413188648   15.764749965   10.235465850   13.837879130
    1.420367279   15.792760506   10.251064356   13.861683906
    1.427545910   15.821029296   10.266799605   13.885710102
    1.434724541   15.849558886   10.282672822   13.909959971
    1.441903172   15.878351872   10.298685250   13.934435802
    1.449081803   15.907410889   10.314838152   13.959139923
    1.456260434   15.936738613   10.331132807   13.984074700
    1.463439065   15.966337762   10.347570513   14.009242537
    1.470617696   15.996211090   10.364152578   14.034645876
    1.477796327   16.026361376   10.380880315   14.060287189
    1.484974958   16.056791477   10.397755083   14.086169007
    1.492153589   16.087504359   10.414778320   14.112293942
    1.499332220   16.118502978   10.431951438   14.138664617
    1.506510851   16.149790310   10.449275844   14.165283679
    1.513689482   16.181369378   10.466752968   14.192153827
    1.520868114   16.213243253   10.484384269   14.219277802
    1.528046745   16.245415098   10.502171234   14.246658405
    1.535225376   16.277888153   10.520115373   14.274298499
    1.542404007   16.310665665   10.538218222   14.302201010
    1.549582638   16.343750929   10.556481340   14.330368901
    1.556761269   16.377147305   10.574906308   14.358805164
    1.563939900   16.410858210   10.593494736   14.387512853
    1.571118531   16.444887125   10.612248257   14.416495083
    1.578297162   16.479237589   10.631168529   14.445755026
    1.585475793   16.513913202   10.650257238   14.475295911
    1.592654424   16.548917626   10.669516096   14.505121027
    1.599833055   16.584254587   10.688946843   14.535233725
    1.607011686   16.619927876   10.708551247   14.565637414
    1.614190317   16.655941349   10.728331104   14.596335569
    1.621368948   16.692298932   10.748288240   14.627331729
    1.628547579   16.729004617   10.768424510   14.658629498
    1.635726210   16.766062471   10.788741800   14.690232550
    1.642904841   16.803476630   10.809242027   14.722144628
    1.650083472   16.841251307   10.829927138   14.754369545
    1.657262104   16.879390788   10.850799116   14.786911188
    1.664440735   16.917899439   10.871859974   14.819773519
    1.671619366   16.956781705   10.893111759   14.852960576
    1.678797997   16.996042110   10.914556555   14.886476476
    1.685976628   17.035685265   10.936196478   14.920325417
    1.693155259   17.075715862   10.958033682   14.954511681
    1.700333890   17.116138684   10.980070357   14.989039632
    1.707512521   17.156958600   11.002308732   15.023913723
    1.714691152   17.198180573   11.024751074   15.059138495
    1.721869783   17.239809658   11.047399687   15.094718584
    1.729048414   17.281851006   11.070256918   15.130658716
    1.736227045   17.324309866   11.093325156   15.166963717
    1.743405676   17.367191590   11.116606828   15.203638510
    1.750584307   17.410501630   11.140104409   15.240688122
    1.757762938   17.454245546   11.163820414   15.278117683
    1.764941569   17.498429004   11.187757404   15.315932430
    1.772120200   17.543057782   11.211917986   15.354137705
    1.779298831   17.588137771   11.236304805   15.392738947
    1.786477462   17.633674973   11.260920551   15.431741699
    1.793656093   17.679675526   11.285767998   15.471151715
    1.800834725   17.726145692   11.310849979   15.510974894
    1.808013356   17.773091846   11.336169340   15.551217157
    1.815191987   17.820520490   11.361728976   15.591884558
    1.822370618   17.868438257   11.387531843   15.632983302
    1.829549249   17.916851908   11.413580945   15.674519742
    1.836727880   17.965768362   11.439879360   15.716500370
    1.843906511   18.015194717   11.466430256   15.758931813
    1.851085142   18.065138181   11.493236826   15.801820849
    1.858263773   18.115606110   11.520302326   15.845174472
    1.865442404   18.166606024   11.547630079   15.888999831
    1.872621035   18.218145595   11.575223466   15.933304185
    1.879799666   18.270232661   11.603085937   15.978094967
    1.886978297   18.322875234   11.631221013   16.023379798
    1.894156928   18.376081501   11.659632284   16.069166483
    1.901335559   18.429859827   11.688323417   16.115463015
    1.908514190   18.484218760   11.717298150   16.162277578
    1.915692821   18.539167042   11.746560299   16.209618564
    1.922871452   18.594713622   11.776113757   16.257494580
    1.930050083   18.650867626   11.805962498   16.305914421
    1.937228715   18.707638363   11.836110576   16.354887070
    1.944407346   18.765035345   11.866562130   16.404421716
    1.951585977   18.823068423   11.897321385   16.454527918
    1.958764608   18.881747704   11.928392676   16.505215560
    1.965943239   18.941083391   11.959780423   16.556494614
    1.973121870   19.001085927   11.991489128   16.608375267
    1.980300501   19.061766029   12.023523394   16.660868012
    1.987479132   19.123134681   12.055887929   16.713983642
    1.994657763   19.185203133   12.088587543   16.767733242
    2.001836394   19.247982908   12.121627157   16.822128201
    2.009015025   19.311485809   12.155011797   16.877180218
    2.016193656   19.375723919   12.188746598   16.932901312
    2.023372287   19.440709619   12.222836808   16.989303840
    2.030550918   19.506455643   12.257287836   17.046400504
    2.037729549   19.572975041   12.292105210   17.104204366
    2.044908180   19.640281166   12.327294565   17.162728864
    2.052086811   19.708387731   12.362861675   17.221987821
    2.059265442   19.777308785   12.398812448   17.281995468
    2.066444073   19.847058748   12.435152930   17.342766452
    2.073622705   19.917652424   12.471889319   17.404315857
    2.080801336   19.989105009   12.509027953   17.466659216
    2.087979967   20.061432103   12.546575307   17.529812522
    2.095158598   20.134649720   12.584538056   17.593792273
    2.102337229   20.208774282   12.622923115   17.658615514
    2.109515860   20.283822618   12.661737479   17.724299781
    2.116694491   20.359812251   12.700988355   17.790863181
    2.123873122   20.436761204   12.740683161   17.858324336
    2.131051753   20.514687646   12.780829409   17.926702293
    2.138230384   20.593610195   12.821434893   17.996017052
    2.145409015   20.673548086   12.862507701   18.066289581
    2.152587646   20.754521865   12.904056029   18.137541214
    2.159766277   20.836552844   12.946088282   18.209793977
    2.166944908   20.919662033   12.988613123   18.283070529
    2.174123539   21.003870970   13.031639468   18.357394321
    2.181302170   21.089202069   13.075176491   18.432789696
    2.188480801   21.175678523   13.119233626   18.509281870
    2.195659432   21.263324268   13.163820572   18.586896936
    2.202838063   21.352163998   13.208947331   18.665662010
    2.210016694   21.442223198   13.254624249   18.745605394
    2.217195326   21.533528161   13.300861944   18.826756289
    2.224373957   21.626106025   13.347671344   18.909144906
    2.231552588   21.719984813   13.395063722   18.992802660
    2.238731219   21.815193463   13.443050716   19.077762209
    2.245909850   21.911761881   13.491644334   19.164057506
    2.253088481   22.009721042   13.540856977   19.251723888
    2.260267112   22.109102995   13.590701456   19.340798144
    2.267445743   22.209940902   13.641191016   19.431318596
    2.274624374   22.312269044   13.692339340   19.523325126
    2.281803005   22.416122899   13.744160572   19.616859292
    2.288981636   22.521539241   13.796669335   19.711964452
    2.296160267   22.628556221   13.849880817   19.808685883
    2.303338898   22.737213427   13.903810797   19.907070872
    2.310517529   22.847551871   13.958475549   20.007168773
    2.317696160   22.959614051   14.013891941   20.109031200
    2.324874791   23.073443864   14.070077553   20.212712275
    2.332053422   23.189086848   14.127050630   20.318268530
    2.339232053   23.306590670   14.184830095   20.425759120
    2.346410684   23.426006281   14.243435632   20.535246776
    2.353589316   23.547386620   14.302887733   20.646797372
    2.360767947   23.670784847   14.363207729   20.760479327
    2.367946578   23.796256440   14.424417830   20.876364630
    2.375125209   23.923859826   14.486541251   20.994529201
    2.382303840   24.053656494   14.549602326   21.115053010
    2.389482471   24.185710307   14.613626376   21.238020224
    2.396661102   24.320087885   14.678639840   21.363520133
    2.403839733   24.456859071   14.744670407   21.491647494
    2.411018364   24.596096811   14.811747059   21.622501738
    2.418196995   24.737877516   14.879900278   21.756188019
    2.425375626   24.882281495   14.949162191   21.892818010
    2.432554257   25.029392920   15.019566386   22.032509933
    2.439732888   25.179299972   15.091147991   22.175388582
    2.446911519   25.332095383   15.163944107   22.321587027
    2.454090150   25.487877068   15.237994626   22.471250851
    2.461268781   25.646748035   15.313341430   22.624533885
    2.468447412   25.808816614   15.390028244   22.781597320
    2.475626043   25.974197171   15.468101488   22.942614147
    2.482804674   26.143010595   15.547610534   23.107770330
    2.489983306   26.315384846   15.628607939   23.277265795
    2.497161937   26.491455390   15.711149588   23.451315386
    2.504340568   26.671365731   15.795295080   23.630150195
    2.511519199   26.855267951   15.881107990   23.814019399
    2.518697830   27.043324092   15.968656486   24.003192331
    2.525876461   27.235708219   16.058014549   24.197960896
    2.533055092   27.432605454   16.149260978   24.398641705
    2.540233723   27.634213060   16.242480121   24.605578940
