# energy grid [eV]     epsr_x  epsr_y  epsr_z
#
    0.200000000   10.022378182    7.861880541   12.183240872
    0.207178631   10.024255910    7.863220163   12.185589511
    0.214357262   10.026200761    7.864607608   12.188022059
    0.221535893   10.028212829    7.866042939   12.190538629
    0.228714524   10.030292214    7.867526218   12.193139342
    0.235893155   10.032439018    7.869057513   12.195824318
    0.243071786   10.034653347    7.870636891   12.198593685
    0.250250417   10.036935311    7.872264422   12.201447574
    0.257429048   10.039285023    7.873940179   12.204386120
    0.264607679   10.041702598    7.875664237   12.207409462
    0.271786311   10.044188155    7.877436673   12.210517743
    0.278964942   10.046741820    7.879257565   12.213711111
    0.286143573   10.049363717    7.881126996   12.216989718
    0.293322204   10.052053977    7.883045049   12.220353718
    0.300500835   10.054812735    7.885011809   12.223803272
    0.307679466   10.057640127    7.887027365   12.227338545
    0.314858097   10.060536294    7.889091808   12.230959705
    0.322036728   10.063501381    7.891205230   12.234666925
    0.329215359   10.066535536    7.893367727   12.238460381
    0.336393990   10.069638910    7.895579395   12.242340256
    0.343572621   10.072811660    7.897840334   12.246306735
    0.350751252   10.076053944    7.900150647   12.250360009
    0.357929883   10.079365925    7.902510438   12.254500271
    0.365108514   10.082747771    7.904919813   12.258727721
    0.372287145   10.086199650    7.907378881   12.263042562
    0.379465776   10.089721737    7.909887755   12.267445002
    0.386644407   10.093314211    7.912446548   12.271935254
    0.393823038   10.096977252    7.915055376   12.276513535
    0.401001669   10.100711047    7.917714359   12.281180066
    0.408180301   10.104515785    7.920423616   12.285935072
    0.415358932   10.108391659    7.923183273   12.290778786
    0.422537563   10.112338867    7.925993455   12.295711441
    0.429716194   10.116357611    7.928854290   12.300733279
    0.436894825   10.120448094    7.931765910   12.305844544
    0.444073456   10.124610528    7.934728449   12.311045485
    0.451252087   10.128845124    7.937742042   12.316336356
    0.458430718   10.133152101    7.940806829   12.321717417
    0.465609349   10.137531680    7.943922950   12.327188932
    0.472787980   10.141984088    7.947090551   12.332751169
    0.479966611   10.146509552    7.950309776   12.338404401
    0.487145242   10.151108309    7.953580775   12.344148908
    0.494323873   10.155780596    7.956903700   12.349984973
    0.501502504   10.160526657    7.960278706   12.355912885
    0.508681135   10.165346737    7.963705950   12.361932937
    0.515859766   10.170241088    7.967185591   12.368045428
    0.523038397   10.175209967    7.970717792   12.374250662
    0.530217028   10.180253632    7.974302718   12.380548948
    0.537395659   10.185372350    7.977940537   12.386940600
    0.544574290   10.190566389    7.981631421   12.393425939
    0.551752922   10.195836022    7.985375543   12.400005288
    0.558931553   10.201181529    7.989173079   12.406678978
    0.566110184   10.206603192    7.993024208   12.413447344
    0.573288815   10.212101298    7.996929114   12.420310728
    0.580467446   10.217676141    8.000887981   12.427269477
    0.587646077   10.223328017    8.004900996   12.434323941
    0.594824708   10.229057228    8.008968352   12.441474480
    0.602003339   10.234864080    8.013090242   12.448721456
    0.609181970   10.240748887    8.017266864   12.456065238
    0.616360601   10.246711964    8.021498416   12.463506201
    0.623539232   10.252753633    8.025785102   12.471044726
    0.630717863   10.258874220    8.030127129   12.478681199
    0.637896494   10.265074059    8.034524705   12.486416011
    0.645075125   10.271353484    8.038978044   12.494249563
    0.652253756   10.277712840    8.043487359   12.502182257
    0.659432387   10.284152473    8.048052871   12.510214504
    0.666611018   10.290672736    8.052674801   12.518346720
    0.673789649   10.297273988    8.057353375   12.526579328
    0.680968280   10.303956592    8.062088820   12.534912757
    0.688146912   10.310720917    8.066881370   12.543347442
    0.695325543   10.317567338    8.071731258   12.551883825
    0.702504174   10.324496235    8.076638723   12.560522354
    0.709682805   10.331507994    8.081604008   12.569263483
    0.716861436   10.338603008    8.086627357   12.578107672
    0.724040067   10.345781673    8.091709021   12.587055391
    0.731218698   10.353044393    8.096849250   12.596107113
    0.738397329   10.360391578    8.102048301   12.605263320
    0.745575960   10.367823642    8.107306434   12.614524499
    0.752754591   10.375341008    8.112623911   12.623891145
    0.759933222   10.382944103    8.118001000   12.633363761
    0.767111853   10.390633361    8.123437970   12.642942856
    0.774290484   10.398409223    8.128935097   12.652628945
    0.781469115   10.406272134    8.134492657   12.662422552
    0.788647746   10.414222547    8.140110934   12.672324209
    0.795826377   10.422260923    8.145790212   12.682334452
    0.803005008   10.430387728    8.151530781   12.692453827
    0.810183639   10.438603434    8.157332935   12.702682888
    0.817362270   10.446908521    8.163196971   12.713022196
    0.824540902   10.455303476    8.169123191   12.723472319
    0.831719533   10.463788792    8.175111900   12.734033833
    0.838898164   10.472364970    8.181163407   12.744707322
    0.846076795   10.481032516    8.187278028   12.755493379
    0.853255426   10.489791947    8.193456079   12.766392604
    0.860434057   10.498643785    8.199697883   12.777405606
    0.867612688   10.507588558    8.206003766   12.788533001
    0.874791319   10.516626804    8.212374061   12.799775415
    0.881969950   10.525759069    8.218809101   12.811133481
    0.889148581   10.534985903    8.225309227   12.822607842
    0.896327212   10.544307868    8.231874782   12.834199148
    0.903505843   10.553725531    8.238506117   12.845908060
    0.910684474   10.563239470    8.245203584   12.857735246
    0.917863105   10.572850267    8.251967541   12.869681384
    0.925041736   10.582558517    8.258798352   12.881747160
    0.932220367   10.592364819    8.265696384   12.893933271
    0.939398998   10.602269783    8.272662009   12.906240422
    0.946577629   10.612274027    8.279695605   12.918669329
    0.953756260   10.622378178    8.286797554   12.931220715
    0.960934891   10.632582871    8.293968243   12.943895315
    0.968113523   10.642888751    8.301208065   12.956693873
    0.975292154   10.653296472    8.308517418   12.969617144
    0.982470785   10.663806696    8.315896703   12.982665891
    0.989649416   10.674420096    8.323346330   12.995840890
    0.996828047   10.685137352    8.330866711   13.009142924
    1.004006678   10.695959158    8.338458266   13.022572790
    1.011185309   10.706886213    8.346121417   13.036131293
    1.018363940   10.717919229    8.353856596   13.049819250
    1.025542571   10.729058926    8.361664238   13.063637489
    1.032721202   10.740306037    8.369544783   13.077586849
    1.039899833   10.751661302    8.377498679   13.091668181
    1.047078464   10.763125475    8.385526378   13.105882345
    1.054257095   10.774699317    8.393628339   13.120230215
    1.061435726   10.786383603    8.401805026   13.134712675
    1.068614357   10.798179118    8.410056910   13.149330623
    1.075792988   10.810086657    8.418384468   13.164084968
    1.082971619   10.822107028    8.426788183   13.178976629
    1.090150250   10.834241049    8.435268544   13.194006541
    1.097328881   10.846489553    8.443826047   13.209175650
    1.104507513   10.858853380    8.452461195   13.224484913
    1.111686144   10.871333386    8.461174495   13.239935304
    1.118864775   10.883930438    8.469966464   13.255527807
    1.126043406   10.896645416    8.478837624   13.271263419
    1.133222037   10.909479212    8.487788504   13.287143152
    1.140400668   10.922432731    8.496819641   13.303168033
    1.147579299   10.935506892    8.505931577   13.319339099
    1.154757930   10.948702627    8.515124863   13.335657404
    1.161936561   10.962020881    8.524400056   13.352124017
    1.169115192   10.975462604    8.533757721   13.368740017
    1.176293823   10.989028744    8.543198430   13.385506502
    1.183472454   11.002720238    8.552722762   13.402424578
    1.190651085   11.016538135    8.562331305   13.419495378
    1.197829716   11.030483563    8.572024658   13.436720049
    1.205008347   11.044557531    8.581803424   13.454099749
    1.212186978   11.058761042    8.591668213   13.471635649
    1.219365609   11.073095145    8.601619645   13.489328939
    1.226544240   11.087560915    8.611658346   13.507180825
    1.233722871   11.102159446    8.621784954   13.525192529
    1.240901503   11.116891848    8.632000113   13.543365294
    1.248080134   11.131759248    8.642304476   13.561700375
    1.255258765   11.146762790    8.652698706   13.580199048
    1.262437396   11.161903636    8.663183474   13.598862605
    1.269616027   11.177182964    8.673759460   13.617692358
    1.276794658   11.192601970    8.684427353   13.636689634
    1.283973289   11.208161869    8.695187852   13.655855782
    1.291151920   11.223863894    8.706041666   13.675192168
    1.298330551   11.239709297    8.716989511   13.694700177
    1.305509182   11.255699347    8.728032116   13.714381216
    1.312687813   11.271835337    8.739170217   13.734236709
    1.319866444   11.288118575    8.750404564   13.754268100
    1.327045075   11.304550394    8.761735912   13.774476857
    1.334223706   11.321132143    8.773165031   13.794864465
    1.341402337   11.337865195    8.784692699   13.815432433
    1.348580968   11.354750943    8.796319706   13.836182290
    1.355759599   11.371790804    8.808046853   13.857115587
    1.362938230   11.388986215    8.819874950   13.878233898
    1.370116861   11.406338637    8.831804821   13.899538820
    1.377295492   11.423849552    8.843837300   13.921031971
    1.384474124   11.441520469    8.855973234   13.942714995
    1.391652755   11.459352919    8.868213479   13.964589558
    1.398831386   11.477348458    8.880558905   13.986657352
    1.406010017   11.495508665    8.893010396   14.008920092
    1.413188648   11.513835149    8.905568845   14.031379520
    1.420367279   11.532329541    8.918235160   14.054037403
    1.427545910   11.550993500    8.931010260   14.076895532
    1.434724541   11.569828713    8.943895080   14.099955728
    1.441903172   11.588836893    8.956890565   14.123219836
    1.449081803   11.608019782    8.969997677   14.146689731
    1.456260434   11.627379151    8.983217388   14.170367314
    1.463439065   11.646916800    8.996550686   14.194254514
    1.470617696   11.666634559    9.009998572   14.218353284
    1.477796327   11.686534288    9.023562059   14.242665603
    1.484974958   11.706617879    9.037242181   14.267193496
    1.492153589   11.726887261    9.051039993   14.291939042
    1.499332220   11.747344389    9.064956557   14.316904317
    1.506510851   11.767991253    9.078992946   14.342091424
    1.513689482   11.788829876    9.093150252   14.367502505
    1.520868114   11.809862319    9.107429586   14.393139737
    1.528046745   11.831090676    9.121832072   14.419005331
    1.535225376   11.852517077    9.136358855   14.445101535
    1.542404007   11.874143693    9.151011094   14.471430629
    1.549582638   11.895972728    9.165789966   14.497994931
    1.556761269   11.918006429    9.180696666   14.524796794
    1.563939900   11.940247081    9.195732408   14.551838608
    1.571118531   11.962697010    9.210898423   14.579122802
    1.578297162   11.985358583    9.226195960   14.606651842
    1.585475793   12.008234210    9.241626291   14.634428235
    1.592654424   12.031326345    9.257190702   14.662454527
    1.599833055   12.054637486    9.272890504   14.690733305
    1.607011686   12.078170176    9.288727024   14.719267198
    1.614190317   12.101927007    9.304701612   14.748058877
    1.621368948   12.125910617    9.320815639   14.777111058
    1.628547579   12.150123692    9.337070496   14.806426500
    1.635726210   12.174568971    9.353467598   14.836008008
    1.642904841   12.199249241    9.370008380   14.865858432
    1.650083472   12.224167345    9.386694301   14.895980670
    1.657262104   12.249326178    9.403526843   14.926377670
    1.664440735   12.274728689    9.420507509   14.957052423
    1.671619366   12.300377885    9.437637825   14.988007971
    1.678797997   12.326276832    9.454919351   15.019247418
    1.685976628   12.352428657    9.472353673   15.050773920
    1.693155259   12.378836544    9.489942396   15.082590679
    1.700333890   12.405503741    9.507687146   15.114700949
    1.707512521   12.432433555    9.525589576   15.147108038
    1.714691152   12.459629355    9.543651354   15.179815300
    1.721869783   12.487094572    9.561874173   15.212826146
    1.729048414   12.514832752    9.580259819   15.246144107
    1.736227045   12.542847503    9.598810101   15.279772769
    1.743405676   12.571142473    9.617526798   15.313715725
    1.750584307   12.599721384    9.636411726   15.347976636
    1.757762938   12.628588044    9.655466740   15.382559240
    1.764941569   12.657746339    9.674693736   15.417467344
    1.772120200   12.687200228    9.694094638   15.452704824
    1.779298831   12.716953759    9.713671406   15.488275627
    1.786477462   12.747011107    9.733426033   15.524183775
    1.793656093   12.777376513    9.753360547   15.560433363
    1.800834725   12.808054285    9.773477010   15.597028556
    1.808013356   12.839048828    9.793777523   15.633973596
    1.815191987   12.870364650    9.814264222   15.671272806
    1.822370618   12.902006358    9.834939280   15.708930590
    1.829549249   12.933978662    9.855804911   15.746951432
    1.836727880   12.966286368    9.876863366   15.785339903
    1.843906511   12.998934372    9.898116933   15.824100657
    1.851085142   13.031927660    9.919567939   15.863238436
    1.858263773   13.065271438    9.941218773   15.902758081
    1.865442404   13.098971068    9.963071869   15.942664530
    1.872621035   13.133031906    9.985129690   15.982962806
    1.879799666   13.167459427   10.007394740   16.023658029
    1.886978297   13.202259258   10.029869576   16.064755424
    1.894156928   13.237437171   10.052556803   16.106260318
    1.901335559   13.272999076   10.075459077   16.148178143
    1.908514190   13.308951024   10.098579103   16.190514442
    1.915692821   13.345299213   10.121919639   16.233274869
    1.922871452   13.382049992   10.145483497   16.276465193
    1.930050083   13.419209864   10.169273540   16.320091298
    1.937228715   13.456785493   10.193292690   16.364159192
    1.944407346   13.494783711   10.217543925   16.408675005
    1.951585977   13.533211518   10.242030282   16.453644996
    1.958764608   13.572076094   10.266754857   16.499075553
    1.965943239   13.611384800   10.291720811   16.544973200
    1.973121870   13.651145185   10.316931366   16.591344594
    1.980300501   13.691364998   10.342389809   16.638196539
    1.987479132   13.732052197   10.368099496   16.685535998
    1.994657763   13.773214947   10.394063849   16.733370070
    2.001836394   13.814861622   10.420286356   16.781705998
    2.009015025   13.857000825   10.446770578   16.830551185
    2.016193656   13.899641396   10.473520174   16.879913238
    2.023372287   13.942792419   10.500538879   16.929799928
    2.030550918   13.986463224   10.527830483   16.980219165
    2.037729549   14.030663404   10.555398861   17.031179045
    2.044908180   14.075402816   10.583247976   17.082687852
    2.052086811   14.120691589   10.611381875   17.134754056
    2.059265442   14.166540119   10.639804697   17.187386305
    2.066444073   14.212959086   10.668520675   17.240593436
    2.073622705   14.259959584   10.697534129   17.294384590
    2.080801336   14.307553148   10.726849479   17.348769146
    2.087979967   14.355751514   10.756471235   17.403756594
    2.095158598   14.404566681   10.786404042   17.459356670
    2.102337229   14.454011055   10.816652676   17.515579389
    2.109515860   14.504097453   10.847221967   17.572434974
    2.116694491   14.554839094   10.878116856   17.629933905
    2.123873122   14.606249618   10.909342414   17.688086930
    2.131051753   14.658343096   10.940903836   17.746905072
    2.138230384   14.711134055   10.972806443   17.806399637
    2.145409015   14.764637491   11.005055689   17.866582218
    2.152587646   14.818868893   11.037657157   17.927464709
    2.159766277   14.873844265   11.070616573   17.989059317
    2.166944908   14.929580148   11.103939804   18.051378568
    2.174123539   14.986093649   11.137632866   18.114435323
    2.181302170   15.043402458   11.171701928   18.178242789
    2.188480801   15.101524883   11.206153319   18.242814526
    2.195659432   15.160479874   11.240993528   18.308164457
    2.202838063   15.220287045   11.276229206   18.374306851
    2.210016694   15.280966713   11.311867170   18.441256385
    2.217195326   15.342539938   11.347914415   18.509028319
    2.224373957   15.405028489   11.384378041   18.577638264
    2.231552588   15.468455071   11.421265504   18.647102198
    2.238731219   15.532843466   11.458584751   18.717436677
    2.245909850   15.598218083   11.496343586   18.788658665
    2.253088481   15.664604154   11.534549896   18.860785608
    2.260267112   15.732027940   11.573211853   18.933835503
    2.267445743   15.800516981   11.612338065   19.007826890
    2.274624374   15.870100009   11.651937455   19.082778821
    2.281803005   15.940806624   11.692019014   19.158710750
    2.288981636   16.012667659   11.732592004   19.235642777
    2.296160267   16.085715557   11.773666030   19.313596596
    2.303338898   16.159984066   11.815250993   19.392594442
    2.310517529   16.235508209   11.857357095   19.472658409
    2.317696160   16.312324591   11.899994870   19.553811401
    2.324874791   16.390471504   11.943175194   19.636077275
    2.332053422   16.469988982   11.986909296   19.719480759
    2.339232053   16.550918910   12.031208778   19.804047452
    2.346410684   16.633305134   12.076085647   19.889803877
    2.353589316   16.717193588   12.121552314   19.976777499
    2.360767947   16.802632419   12.167621591   20.064996739
    2.367946578   16.889672141   12.214306778   20.154491080
    2.375125209   16.978365782   12.261621705   20.245291136
    2.382303840   17.068769052   12.309580638   20.337428642
    2.389482471   17.160940526   12.358198352   20.430936555
    2.396661102   17.254941881   12.407490206   20.525849124
    2.403839733   17.350838187   12.457472205   20.622201952
    2.411018364   17.448697967   12.508160941   20.720032074
    2.418196995   17.548593449   12.559573636   20.819378043
    2.425375626   17.650600859   12.611728210   20.920280015
    2.432554257   17.754800444   12.664643294   21.022779830
    2.439732888   17.861276373   12.718338209   21.126921078
    2.446911519   17.970119010   12.772833245   21.232749348
    2.454090150   18.081427747   12.828149982   21.340312518
    2.461268781   18.195305113   12.884310562   21.449660449
    2.468447412   18.311858069   12.941337919   21.560845176
    2.475626043   18.431201245   12.999256455   21.673921270
    2.482804674   18.553457461   13.058091714   21.788946013
    2.489983306   18.678758360   13.117870291   21.905979598
    2.497161937   18.807244206   13.178620135   22.025085112
    2.504340568   18.939064821   13.240370668   22.146328798
    2.511519199   19.074380970   13.303152890   22.269780830
    2.518697830   19.213365282   13.366999485   22.395515338
    2.525876461   19.356203219   13.431944954   22.523610086
    2.533055092   19.503094455   13.498025763   22.654147238
    2.540233723   19.654254336   13.565280512   22.787213798
