# energy grid [eV]     epsr_x  epsr_y  epsr_z
#
    0.200000000   14.331014177   14.407193522   15.309428033
    0.207178631   14.334630294   14.410670646   15.313341414
    0.214357262   14.338376680   14.414272946   15.317395815
    0.221535893   14.342253627   14.418000694   15.321591558
    0.228714524   14.346261441   14.421854175   15.325928978
    0.235893155   14.350400438   14.425833684   15.330408423
    0.243071786   14.354670947   14.429939526   15.335030254
    0.250250417   14.359073307   14.434172018   15.339794845
    0.257429048   14.363607869   14.438531487   15.344702581
    0.264607679   14.368274997   14.443018271   15.349753861
    0.271786311   14.373075067   14.447632721   15.354949100
    0.278964942   14.378008466   14.452375198   15.360288724
    0.286143573   14.383075595   14.457246075   15.365773173
    0.293322204   14.388276868   14.462245737   15.371402901
    0.300500835   14.393612710   14.467374581   15.377178378
    0.307679466   14.399083560   14.472633017   15.383100086
    0.314858097   14.404689871   14.478021467   15.389168525
    0.322036728   14.410432110   14.483540365   15.395384207
    0.329215359   14.416310757   14.489190160   15.401747661
    0.336393990   14.422326305   14.494971311   15.408259431
    0.343572621   14.428479264   14.500884295   15.414920078
    0.350751252   14.434770156   14.506929598   15.421730179
    0.357929883   14.441199522   14.513107725   15.428690326
    0.365108514   14.447767913   14.519419190   15.435801130
    0.372287145   14.454475900   14.525864527   15.443063220
    0.379465776   14.461324069   14.532444282   15.450477241
    0.386644407   14.468313021   14.539159017   15.458043857
    0.393823038   14.475443376   14.546009310   15.465763751
    0.401001669   14.482715770   14.552995755   15.473637626
    0.408180301   14.490130856   14.560118965   15.481666203
    0.415358932   14.497689308   14.567379567   15.489850225
    0.422537563   14.505391815   14.574778206   15.498190454
    0.429716194   14.513239088   14.582315548   15.506687676
    0.436894825   14.521231858   14.589992275   15.515342697
    0.444073456   14.529370874   14.597809088   15.524156348
    0.451252087   14.537656908   14.605766711   15.533129480
    0.458430718   14.546090754   14.613865885   15.542262973
    0.465609349   14.554673226   14.622107375   15.551557727
    0.472787980   14.563405164   14.630491965   15.561014673
    0.479966611   14.572287431   14.639020465   15.570634766
    0.487145242   14.581320914   14.647693707   15.580418989
    0.494323873   14.590506528   14.656512547   15.590368354
    0.501502504   14.599845212   14.665477866   15.600483905
    0.508681135   14.609337934   14.674590575   15.610766715
    0.515859766   14.618985692   14.683851607   15.621217890
    0.523038397   14.628789513   14.693261928   15.631838571
    0.530217028   14.638750457   14.702822533   15.642629933
    0.537395659   14.648869613   14.712534447   15.653593189
    0.544574290   14.659148109   14.722398728   15.664729590
    0.551752922   14.669587107   14.732416469   15.676040428
    0.558931553   14.680187806   14.742588799   15.687527038
    0.566110184   14.690951445   14.752916883   15.699190798
    0.573288815   14.701879305   14.763401928   15.711033134
    0.580467446   14.712972712   14.774045182   15.723055521
    0.587646077   14.724233034   14.784847935   15.735259487
    0.594824708   14.735661693   14.795811526   15.747646613
    0.602003339   14.747260159   14.806937343   15.760218540
    0.609181970   14.759029959   14.818226824   15.772976971
    0.616360601   14.770972675   14.829681465   15.785923673
    0.623539232   14.783089954   14.841302820   15.799060483
    0.630717863   14.795383507   14.853092504   15.812389312
    0.637896494   14.807855115   14.865052200   15.825912152
    0.645075125   14.820506634   14.877183664   15.839631076
    0.652253756   14.833340002   14.889488726   15.853548250
    0.659432387   14.846357242   14.901969299   15.867665938
    0.666611018   14.859560469   14.914627386   15.881986506
    0.673789649   14.872951899   14.927465082   15.896512436
    0.680968280   14.886533858   14.940484587   15.911246329
    0.688146912   14.900308786   14.953688212   15.926190918
    0.695325543   14.914279254   14.967078388   15.941349082
    0.702504174   14.928447969   14.980657678   15.956723852
    0.709682805   14.942817791   14.994428787   15.972318432
    0.716861436   14.957391746   15.008394578   15.988136211
    0.724040067   14.972173043   15.022558084   16.004180781
    0.731218698   14.987165089   15.036922526   16.020455958
    0.738397329   15.002371516   15.051491335   16.036965808
    0.745575960   15.017796200   15.066268169   16.053714667
    0.752754591   15.033443291   15.081256941   16.070707178
    0.759933222   15.049317244   15.096461847   16.087948320
    0.767111853   15.065422857   15.111887400   16.105443451
    0.774290484   15.081765308   15.127538465   16.123198355
    0.781469115   15.098350213   15.143420307   16.141219290
    0.788647746   15.115183677   15.159538636   16.159513057
    0.795826377   15.132272363   15.175899675   16.178087068
    0.803005008   15.149623574   15.192510223   16.196949435
    0.810183639   15.167245347   15.209377739   16.216109069
    0.817362270   15.185146565   15.226510443   16.235575803
    0.824540902   15.203337096   15.243917430   16.255360534
    0.831719533   15.221827953   15.261608810   16.275475398
    0.838898164   15.240631498   15.279595877   16.295933980
    0.846076795   15.259761683   15.297891315   16.316751570
    0.853255426   15.279234350   15.316509446   16.337945476
    0.860434057   15.299067609   15.335466539   16.359535413
    0.867612688   15.319282299   15.354781194   16.381543986
    0.874791319   15.339902585   15.374474818   16.403997299
    0.881969950   15.360956706   15.394572230   16.426925726
    0.889148581   15.382477947   15.415102430   16.450364898
    0.896327212   15.404505897   15.436099591   16.474356981
    0.903505843   15.427088112   15.457604349   16.498952349
    0.910684474   15.450282318   15.479665499   16.524211797
    0.917863105   15.474159387   15.502342258   16.550209505
    0.925041736   15.498807388   15.525707313   16.577037055
    0.932220367   15.524337188   15.549850983   16.604808949
    0.939398998   15.550890247   15.574886960   16.633670257
    0.946577629   15.578649568   15.600960301   16.663807308
    0.953756260   15.607855049   15.628258548   16.695462627
    0.960934891   15.638824546   15.657026998   16.728955433
    0.968113523   15.671980727   15.687588452   16.764707981
    0.975292154   15.707877166   15.720363993   16.803272232
    0.982470785   15.747189593   15.755875037   16.845327101
    0.989649416   15.790529078   15.794641850   16.891519839
    0.996828047   15.837499321   15.836633850   16.941639898
    1.004006678   15.882761400   15.878934128   16.991142224
    1.011185309   15.902715413   15.907791829   17.019350911
    1.018363940   15.842346420   15.890747474   16.977791014
    1.025542571   15.721495323   15.840048123   16.884313156
    1.032721202   15.679163900   15.838471776   16.861910492
    1.039899833   15.710172942   15.879061156   16.903318073
    1.047078464   15.750361127   15.906585306   16.939993700
    1.054257095   15.752603872   15.852881426   16.902524468
    1.061435726   15.720468613   15.731727988   16.802105645
    1.068614357   15.722691918   15.685857156   16.769873646
    1.075792988   15.760199051   15.716356026   16.806995528
    1.082971619   15.807375967   15.769282663   16.864048026
    1.090150250   15.854643558   15.824059796   16.922240430
    1.097328881   15.900252640   15.876486070   16.977788940
    1.104507513   15.944480132   15.926678302   17.030833053
    1.111686144   15.988005814   15.975671290   17.082311082
    1.118864775   16.031548511   16.024633649   17.133239722
    1.126043406   16.075796996   16.074704664   17.184572312
    1.133222037   16.121322989   16.126816562   17.237089003
    1.140400668   16.168130726   16.180840395   17.290860282
    1.147579299   16.213719208   16.231941653   17.342920374
    1.154757930   16.246424360   16.258075380   17.379256168
    1.161936561   16.238176695   16.206383507   17.366090797
    1.169115192   16.196892208   16.091537802   17.312964140
    1.176293823   16.194666045   16.048656323   17.306678826
    1.183472454   16.232503477   16.079355432   17.348436714
    1.190651085   16.283236293   16.132296765   17.405509589
    1.197829716   16.336538896   16.187669207   17.465438400
    1.205008347   16.390454205   16.241247070   17.525835323
    1.212186978   16.445251100   16.292814959   17.587015496
    1.219365609   16.501495709   16.342499431   17.649793385
    1.226544240   16.558916129   16.388618850   17.714525048
    1.233722871   16.615532166   16.426069703   17.780496519
    1.240901503   16.673571068   16.457205113   17.849803624
    1.248080134   16.741814140   16.497269640   17.928579813
    1.255258765   16.816964724   16.546031821   18.013100645
    1.262437396   16.876186545   16.594597478   18.079038122
    1.269616027   16.852490480   16.629181399   18.051337715
    1.276794658   16.685810321   16.638795167   17.862390935
    1.283973289   16.551626643   16.655549569   17.710693062
    1.291151920   16.565153377   16.700191684   17.727777272
    1.298330551   16.636356741   16.753993146   17.817567824
    1.305509182   16.683177413   16.792984395   17.903165751
    1.312687813   16.657581573   16.796257800   17.931192315
    1.319866444   16.614102402   16.786002143   17.870355038
    1.327045075   16.614520577   16.794921379   17.776556442
    1.334223706   16.663690896   16.837231100   17.777148239
    1.341402337   16.735880512   16.899599036   17.849995557
    1.348580968   16.811740901   16.968792725   17.941977772
    1.355759599   16.886125439   17.041466499   18.035477309
    1.362938230   16.959007850   17.118189855   18.127951192
    1.370116861   17.031563889   17.200389978   18.220553700
    1.377295492   17.105078718   17.288274911   18.314233384
    1.384474124   17.180274165   17.375002147   18.405438406
    1.391652755   17.255525327   17.426756012   18.473889534
    1.398831386   17.324099743   17.354105384   18.471378035
    1.406010017   17.382172206   17.141130008   18.410640730
    1.413188648   17.428791788   16.999079613   18.375817079
    1.420367279   17.441678015   16.967637578   18.328749588
    1.427545910   17.429091274   16.992569634   18.303145397
    1.434724541   17.351327804   17.050478284   18.328385159
    1.441903172   17.219026538   17.113428510   18.368638721
    1.449081803   17.193004315   17.188894619   18.436423508
    1.456260434   17.259262135   17.272871789   18.522870475
    1.463439065   17.351648313   17.357577750   18.612788712
    1.470617696   17.446027537   17.440583970   18.701310753
    1.477796327   17.535421718   17.519062533   18.786284199
    1.484974958   17.611978465   17.582628753   18.861668127
    1.492153589   17.669215712   17.621441729   18.921869791
    1.499332220   17.730851948   17.667339671   18.986699608
    1.506510851   17.814299213   17.743478100   19.070696399
    1.513689482   17.910819826   17.836871560   19.166533051
    1.520868114   18.013839356   17.937801869   19.269544466
    1.528046745   18.115854264   18.036417676   19.377534204
    1.535225376   18.188984930   18.098914189   19.482287192
    1.542404007   18.169739691   18.049349048   19.563100803
    1.549582638   18.086956724   17.922782393   19.627611416
    1.556761269   18.092467558   17.905506223   19.710539071
    1.563939900   18.141260397   17.965438707   19.730606691
    1.571118531   18.096341829   17.975865868   19.544656448
    1.578297162   17.957771024   17.900819274   19.307286410
    1.585475793   17.909320485   17.877395849   19.285602315
    1.592654424   17.981007763   17.952163024   19.401677684
    1.599833055   18.088275525   18.061389723   19.510375897
    1.607011686   18.182386086   18.161886276   19.498702986
    1.614190317   18.256811691   18.222828702   19.376608949
    1.621368948   18.332299642   18.258182575   19.281054546
    1.628547579   18.428625939   18.331392311   19.320003303
    1.635726210   18.539251066   18.438909704   19.444492628
    1.642904841   18.650045263   18.553389468   19.584420422
    1.650083472   18.739078127   18.646340492   19.699504117
    1.657262104   18.768874330   18.676121483   19.749366475
    1.664440735   18.774081884   18.680323744   19.767750625
    1.671619366   18.846063099   18.758309064   19.844363695
    1.678797997   18.968556318   18.892835240   19.963716172
    1.685976628   19.100349146   19.039320156   20.086904682
    1.693155259   19.192768208   19.143223276   20.172686656
    1.700333890   19.159038891   19.098766508   20.156250816
    1.707512521   19.006324630   18.882532957   20.079148795
    1.714691152   18.861847801   18.678909135   20.082983146
    1.721869783   18.811721775   18.660381156   20.162876753
    1.729048414   18.888024907   18.789879270   20.274590575
    1.736227045   19.020448078   18.971415512   20.393563816
    1.743405676   19.163905023   19.162309867   20.511819432
    1.750584307   19.307261066   19.332166848   20.626960935
    1.757762938   19.449269335   19.394567616   20.733247884
    1.764941569   19.587048855   19.200361357   20.819258415
    1.772120200   19.704753027   18.908875815   20.892874133
    1.779298831   19.746099296   18.799409517   20.959042256
    1.786477462   19.657018355   18.741597324   20.987102325
    1.793656093   19.564757587   18.740879360   21.000150504
    1.800834725   19.592401771   18.844386681   21.053497621
    1.808013356   19.709259614   18.992065011   21.150904909
    1.815191987   19.856108086   19.143951540   21.264572925
    1.822370618   20.009113263   19.289585405   21.381420876
    1.829549249   20.158757004   19.425903638   21.498338243
    1.836727880   20.281986124   19.541508101   21.613432803
    1.843906511   20.312446948   19.600478751   21.721101308
    1.851085142   20.226344345   19.590957862   21.818792939
    1.858263773   20.200544009   19.615537596   21.918530167
    1.865442404   20.265931754   19.703645653   22.005795435
    1.872621035   20.319473576   19.812701976   22.049232394
    1.879799666   20.380212958   19.924484510   22.095399101
    1.886978297   20.495708717   20.036322445   22.194002119
    1.894156928   20.638251054   20.147294233   22.321089258
    1.901335559   20.787004872   20.257599223   22.457517213
    1.908514190   20.937554792   20.368082754   22.598695487
    1.915692821   21.090736866   20.479689926   22.744798155
    1.922871452   21.247835240   20.593080872   22.896287932
    1.930050083   21.406627384   20.707605609   23.049624252
    1.937228715   21.553847888   20.818937438   23.189253810
    1.944407346   21.667710725   20.921417619   23.295544976
    1.951585977   21.725545038   21.013919840   23.362532266
    1.958764608   21.692126918   21.093436785   23.362920431
    1.965943239   21.603848349   21.168983239   23.317330535
    1.973121870   21.589950115   21.239094268   23.333134266
    1.980300501   21.688966830   21.287387322   23.443887990
    1.987479132   21.848625950   21.350881008   23.607247776
    1.994657763   22.041226712   21.436138622   23.789814307
    2.001836394   22.241042177   21.502098553   23.958000371
    2.009015025   22.431065571   21.586576535   24.115575429
    2.016193656   22.568986726   21.696475834   24.222982885
    2.023372287   22.639508863   21.805870283   24.276585977
    2.030550918   22.741937203   21.930738150   24.376706203
    2.037729549   22.859395314   22.047063966   24.469109115
    2.044908180   22.896917799   22.088823147   24.421222936
    2.052086811   22.892403929   22.088566622   24.296490454
    2.059265442   23.011519888   22.171360517   24.345803875
    2.066444073   23.191546279   22.316769186   24.496671865
    2.073622705   23.351064920   22.476756169   24.645250174
    2.080801336   23.469847099   22.634121825   24.804323406
    2.087979967   23.382267942   22.774602394   24.909309535
    2.095158598   23.163248063   22.907244184   24.979938769
    2.102337229   23.138865708   23.030453227   25.121946761
    2.109515860   23.266303285   23.155498978   25.323228515
    2.116694491   23.484749686   23.316488393   25.552306700
    2.123873122   23.715932565   23.476707165   25.765420953
    2.131051753   23.914466115   23.584531392   25.962558435
    2.138230384   24.057626614   23.634056408   26.140152893
    2.145409015   24.088457399   23.658330136   26.250756228
    2.152587646   24.102372266   23.715924145   26.363701668
    2.159766277   24.232433557   23.851819659   26.545455255
    2.166944908   24.380587516   23.955939263   26.682614356
    2.174123539   24.453423624   23.984056520   26.703485263
    2.181302170   24.584541449   24.095780916   26.806988978
    2.188480801   24.816706118   24.322505522   27.066061690
    2.195659432   25.025244500   24.580923068   27.373130773
    2.202838063   25.175291766   24.797047088   27.673411276
    2.210016694   25.295218885   24.861191414   27.938300488
    2.217195326   25.382458057   24.784182392   28.081542783
    2.224373957   25.549257277   24.762913497   27.998913882
    2.231552588   25.788471123   24.763280008   27.673970553
    2.238731219   26.068921408   24.833900261   27.549016056
    2.245909850   26.373258131   25.016216615   27.711497681
    2.253088481   26.676247249   25.262736952   28.021647658
    2.260267112   26.926651735   25.511368426   28.383815115
    2.267445743   27.142049721   25.767988795   28.718644027
    2.274624374   27.290085105   26.057446109   28.933922198
    2.281803005   27.271845470   26.349433255   29.017285549
    2.288981636   27.235426826   26.632008932   29.152628871
    2.296160267   27.356873819   26.888290633   29.405349943
    2.303338898   27.582309774   27.069457381   29.719046514
    2.310517529   27.859110150   27.165569051   30.073520324
    2.317696160   28.108705010   27.092608124   30.446663908
    2.324874791   28.309861804   26.957447655   30.800606994
    2.332053422   28.522227341   26.910247009   31.155524836
    2.339232053   28.778189266   26.977139401   31.535109086
    2.346410684   29.011228310   27.023132806   31.883295620
    2.353589316   29.276238164   27.116116278   32.184404817
    2.360767947   29.578125192   27.371120161   32.486320025
    2.367946578   29.898343508   27.727313689   32.786886589
    2.375125209   30.274578016   28.109539679   33.088231883
    2.382303840   30.748662223   28.477412339   33.439318745
    2.389482471   31.313170111   28.836722193   33.874540577
    2.396661102   31.935858940   29.206535749   34.398931870
    2.403839733   32.572110923   29.606206966   34.963470035
    2.411018364   33.167560474   30.050473238   35.529623457
    2.418196995   33.585959112   30.353637078   35.964065461
    2.425375626   33.523076373   30.086355640   35.953602901
    2.432554257   32.640585786   29.293635953   35.305288994
    2.439732888   31.456424658   28.806743265   34.628545204
    2.446911519   30.904757385   28.842243236   34.583319880
    2.454090150   31.200461701   29.229940231   35.120799829
    2.461268781   31.897518684   29.738395833   35.878100473
    2.468447412   32.510803957   30.188631514   36.523775707
    2.475626043   32.782725551   30.510415336   36.777009965
    2.482804674   32.848894333   30.755818916   36.737772980
    2.489983306   33.312767661   31.116572115   37.094526132
    2.497161937   34.146428134   31.567902832   37.839084359
    2.504340568   35.013043436   31.991780370   38.628004537
    2.511519199   35.677044312   32.417787285   39.333348952
    2.518697830   35.808730651   32.893537063   39.872309475
    2.525876461   35.493718452   33.401858878   40.317654683
    2.533055092   35.708813547   33.947080903   41.055681800
    2.540233723   36.486557934   34.519812824   42.062962450
