# energy grid [eV]     epsr_x  epsr_y  epsr_z
#
    0.200000000   14.578908931   14.084391585   14.930356504
    0.207178631   14.582646761   14.088096461   14.934224485
    0.214357262   14.586520732   14.091937410   14.938234996
    0.221535893   14.590531329   14.095915045   14.942388737
    0.228714524   14.594679055   14.100030009   14.946686441
    0.235893155   14.598964439   14.104282977   14.951128878
    0.243071786   14.603388033   14.108674655   14.955716855
    0.250250417   14.607950413   14.113205782   14.960451221
    0.257429048   14.612652183   14.117877133   14.965332865
    0.264607679   14.617493969   14.122689519   14.970362721
    0.271786311   14.622476430   14.127643790   14.975541766
    0.278964942   14.627600249   14.132740836   14.980871027
    0.286143573   14.632866143   14.137981587   14.986351580
    0.293322204   14.638274858   14.143367018   14.991984557
    0.300500835   14.643827173   14.148898150   14.997771141
    0.307679466   14.649523901   14.154576052   15.003712576
    0.314858097   14.655365892   14.160401845   15.009810171
    0.322036728   14.661354034   14.166376701   15.016065295
    0.329215359   14.667489253   14.172501852   15.022479391
    0.336393990   14.673772518   14.178778588   15.029053975
    0.343572621   14.680204841   14.185208263   15.035790641
    0.350751252   14.686787282   14.191792296   15.042691066
    0.357929883   14.693520950   14.198532181   15.049757017
    0.365108514   14.700407005   14.205429485   15.056990356
    0.372287145   14.707446665   14.212485857   15.064393046
    0.379465776   14.714641203   14.219703032   15.071967158
    0.386644407   14.721991958   14.227082835   15.079714881
    0.393823038   14.729500336   14.234627193   15.087638529
    0.401001669   14.737167814   14.242338133   15.095740550
    0.408180301   14.744995945   14.250217800   15.104023536
    0.415358932   14.752986366   14.258268457   15.112490238
    0.422537563   14.761140801   14.266492498   15.121143574
    0.429716194   14.769461072   14.274892458   15.129986647
    0.436894825   14.777949103   14.283471025   15.139022757
    0.444073456   14.786606928   14.292231048   15.148255422
    0.451252087   14.795436706   14.301175558   15.157688395
    0.458430718   14.804440724   14.310307776   15.167325685
    0.465609349   14.813621415   14.319631135   15.177171585
    0.472787980   14.822981368   14.329149296   15.187230694
    0.479966611   14.832523344   14.338866173   15.197507950
    0.487145242   14.842250292   14.348785950   15.208008664
    0.494323873   14.852165369   14.358913113   15.218738560
    0.501502504   14.862271961   14.369252480   15.229703816
    0.508681135   14.872573706   14.379809229   15.240911116
    0.515859766   14.883074526   14.390588941   15.252367706
    0.523038397   14.893778653   14.401597644   15.264081459
    0.530217028   14.904690672   14.412841856   15.276060948
    0.537395659   14.915815560   14.424328644   15.288315535
    0.544574290   14.927158732   14.436065689   15.300855467
    0.551752922   14.938726105   14.448061357   15.313691990
    0.558931553   14.950524158   14.460324780   15.326837486
    0.566110184   14.962560012   14.472865960   15.340305625
    0.573288815   14.974841521   14.485695872   15.354111549
    0.580467446   14.987377383   14.498826601   15.368272089
    0.587646077   15.000177263   14.512271490   15.382806021
    0.594824708   15.013251951   14.526045322   15.397734369
    0.602003339   15.026613545   14.540164524   15.413080772
    0.609181970   15.040275676   14.554647422   15.428871922
    0.616360601   15.054253779   14.569514532   15.445138102
    0.623539232   15.068565427   14.584788914   15.461913833
    0.630717863   15.083230745   14.600496597   15.479238683
    0.637896494   15.098272923   14.616667094   15.497158255
    0.645075125   15.113718861   14.633334023   15.515725434
    0.652253756   15.129599991   14.650535878   15.535001951
    0.659432387   15.145953319   14.668316975   15.555060381
    0.666611018   15.162822780   14.686728625   15.575986702
    0.673789649   15.180261013   14.705830618   15.597883632
    0.680968280   15.198331696   14.725693087   15.620875002
    0.688146912   15.217112677   14.746398907   15.645111583
    0.695325543   15.236700224   14.768046777   15.670778922
    0.702504174   15.257214834   14.790755257   15.698108030
    0.709682805   15.278809307   14.814668085   15.727390101
    0.716861436   15.301679998   14.839961272   15.758996961
    0.724040067   15.326082552   14.866852645   15.793409501
    0.731218698   15.352353461   14.895614714   15.831256602
    0.738397329   15.380937736   14.926591847   15.873365293
    0.745575960   15.412416868   14.960222018   15.920812865
    0.752754591   15.447505687   14.997059479   15.974929226
    0.759933222   15.486885322   15.037777307   16.037028794
    0.767111853   15.530335375   15.083057426   16.106977354
    0.774290484   15.573076971   15.132998228   16.177110842
    0.781469115   15.593159406   15.184937353   16.211216521
    0.788647746   15.536723594   15.230917889   16.119979335
    0.795826377   15.415762397   15.275365517   15.924151115
    0.803005008   15.370652132   15.346288738   15.858885451
    0.810183639   15.407101146   15.447225572   15.934526264
    0.817362270   15.470973621   15.566710320   16.060168359
    0.824540902   15.534304102   15.677062393   16.181751043
    0.831719533   15.562130932   15.670371606   16.207766917
    0.838898164   15.477832911   15.276545646   15.926706815
    0.846076795   15.289347189   14.521891169   15.359935399
    0.853255426   15.195630871   14.108838732   15.057023408
    0.860434057   15.212879778   14.093100480   15.062230513
    0.867612688   15.264217284   14.201242837   15.162549251
    0.874791319   15.318242611   14.321145835   15.270836930
    0.881969950   15.367990300   14.427426794   15.367601723
    0.889148581   15.413012095   14.517936449   15.451429657
    0.896327212   15.454176992   14.595301422   15.524589588
    0.903505843   15.492431423   14.662500617   15.589594457
    0.910684474   15.528556285   14.721979932   15.648522620
    0.917863105   15.563158599   14.775603632   15.702990509
    0.925041736   15.596708901   14.824771300   15.754253718
    0.932220367   15.629579585   14.870540101   15.803312406
    0.939398998   15.662075801   14.913721207   15.850997840
    0.946577629   15.694459364   14.954950563   15.898041511
    0.953756260   15.726967801   14.994740074   15.945133269
    0.960934891   15.759830694   15.033515165   15.992975138
    0.968113523   15.793285057   15.071643298   16.042336521
    0.975292154   15.827590735   15.109456901   16.094113514
    0.982470785   15.863044296   15.147273394   16.149383711
    0.989649416   15.899980608   15.185414519   16.209403492
    0.996828047   15.938714986   15.224226806   16.275320366
    1.004006678   15.979234961   15.264104152   16.346680542
    1.011185309   16.019898122   15.305509781   16.415151464
    1.018363940   16.052924768   15.348980707   16.442810539
    1.025542571   16.058944836   15.395050369   16.335842890
    1.032721202   16.041608919   15.443854233   16.110873642
    1.039899833   16.051599751   15.493314805   16.009689019
    1.047078464   16.091554107   15.532278902   16.038795270
    1.054257095   16.142013041   15.527309082   16.088639012
    1.061435726   16.195537791   15.462747796   16.114450847
    1.068614357   16.252277088   15.429872121   16.152164245
    1.075792988   16.313446947   15.461381450   16.217270595
    1.082971619   16.379976123   15.518981786   16.292719166
    1.090150250   16.453476493   15.583490221   16.370951420
    1.097328881   16.536236965   15.650908292   16.451755196
    1.104507513   16.631054216   15.721805116   16.537103189
    1.111686144   16.740476320   15.797858802   16.629170234
    1.118864775   16.863134464   15.880349358   16.727912986
    1.126043406   16.978392859   15.966900635   16.822339782
    1.133222037   16.993628548   16.040233558   16.860669064
    1.140400668   16.683097640   16.048118408   16.715471562
    1.147579299   16.082551823   15.944710603   16.405736332
    1.154757930   15.734068582   15.777703222   16.236922714
    1.161936561   15.705629334   15.701236613   16.253473260
    1.169115192   15.817162913   15.766137263   16.356179093
    1.176293823   15.955261354   15.877667728   16.471974129
    1.183472454   16.068774754   15.935752844   16.541343347
    1.190651085   16.109458119   15.791168302   16.464982599
    1.197829716   16.077456625   15.460980847   16.258271938
    1.205008347   16.068022068   15.297421026   16.170687451
    1.212186978   16.105730081   15.327842812   16.218240958
    1.219365609   16.181592347   15.426067928   16.306566496
    1.226544240   16.272138433   15.534541116   16.397667757
    1.233722871   16.360514317   15.635529279   16.481913476
    1.240901503   16.428735208   15.717172309   16.552076377
    1.248080134   16.433616940   15.751515099   16.589220097
    1.255258765   16.358388422   15.728382418   16.586445816
    1.262437396   16.321269210   15.728643393   16.599372267
    1.269616027   16.360159263   15.778639265   16.646122324
    1.276794658   16.426120691   15.845831383   16.704339651
    1.283973289   16.495004160   15.914336420   16.763101718
    1.291151920   16.561158888   15.980713555   16.820022775
    1.298330551   16.624185819   16.045039477   16.875116788
    1.305509182   16.684811806   16.108146986   16.928894683
    1.312687813   16.743894141   16.170979575   16.981913569
    1.319866444   16.802228466   16.234491407   17.034697917
    1.327045075   16.860550380   16.299681603   17.087750204
    1.334223706   16.919575240   16.367652159   17.141578490
    1.341402337   16.980019043   16.439618308   17.196709968
    1.348580968   17.042505899   16.516668625   17.253626211
    1.355759599   17.107010469   16.598476133   17.312373023
    1.362938230   17.170472209   16.677858915   17.370884670
    1.370116861   17.218577334   16.722081862   17.419200452
    1.377295492   17.216414588   16.651576994   17.432871119
    1.384474124   17.172532357   16.485419624   17.417954140
    1.391652755   17.177324038   16.428059109   17.437617451
    1.398831386   17.233473755   16.482018874   17.491250656
    1.406010017   17.306762569   16.559866593   17.547308866
    1.413188648   17.384147012   16.627544586   17.593540674
    1.420367279   17.463804668   16.704997428   17.648951929
    1.427545910   17.544839612   16.798789786   17.718317490
    1.434724541   17.620626536   16.889068316   17.783100050
    1.441903172   17.670321728   16.941191553   17.809111219
    1.449081803   17.684518509   16.940583733   17.780949681
    1.456260434   17.724123459   16.973055221   17.781291977
    1.463439065   17.811124807   17.068985087   17.841085937
    1.470617696   17.914045753   17.181075965   17.926036107
    1.477796327   17.991417832   17.241344137   18.018326600
    1.484974958   17.979575632   17.142599177   18.111561742
    1.492153589   17.910755576   16.949321358   18.196045867
    1.499332220   17.889415627   16.873138390   18.241523776
    1.506510851   17.864074260   16.858135089   18.223776661
    1.513689482   17.858848409   16.897679878   18.225563980
    1.520868114   17.848766427   17.005215618   18.279711387
    1.528046745   17.785519561   17.139281159   18.347985515
    1.535225376   17.800874983   17.279302593   18.446251110
    1.542404007   17.901964689   17.413122944   18.563583994
    1.549582638   17.994322907   17.505561815   18.639882750
    1.556761269   17.984291892   17.486916367   18.581803128
    1.563939900   17.901353427   17.406259643   18.453129215
    1.571118531   17.905285945   17.407203643   18.455177798
    1.578297162   17.985079578   17.410526701   18.550997997
    1.585475793   18.092708788   17.319078279   18.664196301
    1.592654424   18.199252116   17.260664424   18.775814517
    1.599833055   18.257049501   17.308977173   18.798676836
    1.607011686   18.239534071   17.360425586   18.543291013
    1.614190317   18.244818711   17.409282120   18.165542429
    1.621368948   18.323016130   17.501501459   18.069566204
    1.628547579   18.424063421   17.582459527   18.175778107
    1.635726210   18.510440225   17.589590695   18.327780181
    1.642904841   18.596794512   17.603441872   18.478925499
    1.650083472   18.687847453   17.688256914   18.609130747
    1.657262104   18.747292389   17.789321659   18.686480286
    1.664440735   18.801598539   17.896381095   18.748947718
    1.671619366   18.904714612   18.030898679   18.861531323
    1.678797997   19.026310761   18.164839860   18.996541534
    1.685976628   19.092765286   18.216272894   19.089895445
    1.693155259   18.997678894   18.048644708   19.046780386
    1.700333890   18.816703439   17.766234972   18.909981350
    1.707512521   18.790495023   17.688799433   18.897688006
    1.714691152   18.891360965   17.778261168   18.990807772
    1.721869783   19.020152239   17.904557285   19.077571935
    1.729048414   19.147122062   18.026921560   19.140365344
    1.736227045   19.279594887   18.151850353   19.235652968
    1.743405676   19.407466032   18.274216936   19.348534266
    1.750584307   19.520608330   18.395331725   19.466656273
    1.757762938   19.589634266   18.519109661   19.588892669
    1.764941569   19.601199405   18.632251936   19.687965883
    1.772120200   19.635287511   18.706867019   19.727961358
    1.779298831   19.689495187   18.728188273   19.677725486
    1.786477462   19.752332929   18.771768085   19.655945870
    1.793656093   19.806642268   18.841682426   19.704346688
    1.800834725   19.894604102   18.884797440   19.803177832
    1.808013356   20.028917158   18.936916140   19.950681504
    1.815191987   20.151268731   18.995711721   20.106516954
    1.822370618   20.220053047   19.008336459   20.204046926
    1.829549249   20.233979458   18.942897331   20.169374568
    1.836727880   20.223136638   18.915522663   20.030486831
    1.843906511   20.202280700   18.999579095   19.948734990
    1.851085142   20.105297447   19.126611921   19.991790836
    1.858263773   19.945860536   19.243877131   20.080281893
    1.865442404   19.910149404   19.353516123   20.192575011
    1.872621035   20.035113592   19.482044433   20.347625513
    1.879799666   20.218592281   19.613272511   20.526596613
    1.886978297   20.402208822   19.723974417   20.712132216
    1.894156928   20.591951865   19.844839519   20.895571027
    1.901335559   20.768561324   19.994077492   21.032548823
    1.908514190   20.861469615   20.139556814   21.018374762
    1.915692821   20.880176040   20.274014801   20.889171408
    1.922871452   20.955847998   20.425832386   20.890492188
    1.930050083   21.075837986   20.588303899   20.993126709
    1.937228715   21.213226290   20.723267068   21.127856530
    1.944407346   21.334541140   20.731214005   21.292880682
    1.951585977   21.345983315   20.529542477   21.445282547
    1.958764608   21.216239013   20.236495263   21.529412761
    1.965943239   21.043790880   20.038237311   21.581628023
    1.973121870   21.001550595   20.072867062   21.707370983
    1.980300501   21.102222969   20.241183788   21.789354155
    1.987479132   21.266923290   20.409484219   21.684323519
    1.994657763   21.395965757   20.530055238   21.536660684
    2.001836394   21.526636092   20.639549228   21.435308498
    2.009015025   21.702171858   20.738809284   21.453110954
    2.016193656   21.875283983   20.811951843   21.554004645
    2.023372287   21.927078733   20.832320136   21.677989094
    2.030550918   21.738628894   20.690347422   21.779789000
    2.037729549   21.582269965   20.578983963   21.904295447
    2.044908180   21.600061199   20.579080792   22.049739768
    2.052086811   21.655084044   20.572131483   22.169371944
    2.059265442   21.739901577   20.554543057   22.222753868
    2.066444073   21.817153354   20.493603865   22.158720695
    2.073622705   21.931753776   20.541308725   22.144388869
    2.080801336   22.089195756   20.721869645   22.185265438
    2.087979967   22.268707772   20.927541585   22.255411925
    2.095158598   22.469217196   21.076460870   22.429088937
    2.102337229   22.676451545   21.162174124   22.676852318
    2.109515860   22.896777468   21.287292215   22.967084713
    2.116694491   23.141511211   21.477581866   23.285811536
    2.123873122   23.405881771   21.698061833   23.601843425
    2.131051753   23.664557746   21.909690337   23.824478665
    2.138230384   23.886462987   22.079423580   23.771499173
    2.145409015   24.109706281   22.225289572   23.539080006
    2.152587646   24.390259664   22.377070181   23.553014063
    2.159766277   24.715756548   22.543156697   23.765585701
    2.166944908   25.045247364   22.756614069   24.005050913
    2.174123539   25.203192076   22.949628095   24.056602928
    2.181302170   24.862493200   22.964637973   23.855654071
    2.188480801   23.935153052   22.761363863   23.676076344
    2.195659432   23.312190625   22.683336477   23.723074851
    2.202838063   23.389800344   22.853337977   24.029023023
    2.210016694   23.733282088   23.086348680   24.439104177
    2.217195326   23.926242754   23.197243733   24.684428987
    2.224373957   23.835775109   23.156527275   24.573053968
    2.231552588   23.672103368   23.184335646   24.262502444
    2.238731219   23.645781398   23.327081541   23.945296546
    2.245909850   23.816413484   23.513316946   23.852196700
    2.253088481   24.131360480   23.757963136   24.147552958
    2.260267112   24.522645861   24.042780273   24.592674667
    2.267445743   24.892001276   24.282362056   24.876965071
    2.274624374   25.139964037   24.387310440   24.720218835
    2.281803005   25.223794956   24.409727275   24.318533414
    2.288981636   25.280781876   24.461760925   24.236027458
    2.296160267   25.408282272   24.533879834   24.453250405
    2.303338898   25.596322165   24.639326132   24.836698776
    2.310517529   25.760679255   24.749807144   25.231086349
    2.317696160   25.766530841   24.773619722   25.502246714
    2.324874791   25.806629030   24.844182537   25.825508112
    2.332053422   26.034524782   25.097890370   26.303073616
    2.339232053   26.309025484   25.421536031   26.691518130
    2.346410684   26.610947989   25.726535758   26.625633762
    2.353589316   26.877556543   25.952371965   25.816682366
    2.360767947   27.132970293   26.143747147   25.096513407
    2.367946578   27.391694965   26.354399979   25.145777190
    2.375125209   27.644035599   26.589008067   25.557393903
    2.382303840   27.741509277   26.706441115   25.821364328
    2.389482471   27.673301934   26.705459288   25.800900177
    2.396661102   27.833588712   26.894563353   25.954146208
    2.403839733   28.209782235   27.257837343   26.311910565
    2.411018364   28.411750742   27.473082824   26.397510770
    2.418196995   28.109759815   27.290985535   25.563086283
    2.425375626   27.577700145   26.951677186   24.273121821
    2.432554257   27.334685595   26.819523068   23.727870608
    2.439732888   27.377968909   26.920419875   23.939065996
    2.446911519   27.629146945   27.228097249   24.458531014
    2.454090150   28.019885627   27.663483648   25.001474976
    2.461268781   28.481331524   28.022471616   25.526264382
    2.468447412   28.952871810   28.254492270   26.024231733
    2.475626043   29.431898089   28.573937453   26.508235442
    2.482804674   29.765723312   28.879790056   26.944049192
    2.489983306   29.696533798   28.753718968   27.183505424
    2.497161937   29.432342634   28.302095640   27.100130065
    2.504340568   29.473292954   28.229990793   26.884424234
    2.511519199   29.817624615   28.536004820   26.885210694
    2.518697830   30.296641348   28.966358295   27.141756053
    2.525876461   30.782254717   29.387794396   27.551979548
    2.533055092   31.238876604   29.786486971   27.986723149
    2.540233723   31.705977558   30.225946598   28.395081121
