# energy grid [eV]     epsr_x  epsr_y  epsr_z
#
    0.200000000   11.576255903   13.375313020   11.749775704
    0.207178631   11.578639532   13.378184025   11.752015456
    0.214357262   11.581108420   13.381157758   11.754335240
    0.221535893   11.583662695   13.384234378   11.756735167
    0.228714524   11.586302488   13.387414045   11.759215352
    0.235893155   11.589027936   13.390696928   11.761775912
    0.243071786   11.591839178   13.394083200   11.764416971
    0.250250417   11.594736361   13.397573041   11.767138656
    0.257429048   11.597719633   13.401166636   11.769941096
    0.264607679   11.600789150   13.404864175   11.772824427
    0.271786311   11.603945069   13.408665854   11.775788786
    0.278964942   11.607187556   13.412571876   11.778834317
    0.286143573   11.610516777   13.416582447   11.781961165
    0.293322204   11.613932906   13.420697783   11.785169483
    0.300500835   11.617436122   13.424918102   11.788459423
    0.307679466   11.621026605   13.429243629   11.791831146
    0.314858097   11.624704543   13.433674596   11.795284814
    0.322036728   11.628470129   13.438211240   11.798820595
    0.329215359   11.632323559   13.442853804   11.802438659
    0.336393990   11.636265034   13.447602536   11.806139183
    0.343572621   11.640294762   13.452457693   11.809922346
    0.350751252   11.644412953   13.457419535   11.813788331
    0.357929883   11.648619824   13.462488329   11.817737328
    0.365108514   11.652915597   13.467664349   11.821769528
    0.372287145   11.657300497   13.472947875   11.825885130
    0.379465776   11.661774757   13.478339192   11.830084333
    0.386644407   11.666338611   13.483838592   11.834367343
    0.393823038   11.670992303   13.489446375   11.838734371
    0.401001669   11.675736078   13.495162844   11.843185630
    0.408180301   11.680570189   13.500988310   11.847721340
    0.415358932   11.685494892   13.506923093   11.852341724
    0.422537563   11.690510449   13.512967514   11.857047010
    0.429716194   11.695617129   13.519121906   11.861837429
    0.436894825   11.700815204   13.525386606   11.866713220
    0.444073456   11.706104952   13.531761957   11.871674624
    0.451252087   11.711486657   13.538248309   11.876721886
    0.458430718   11.716960607   13.544846021   11.881855258
    0.465609349   11.722527098   13.551555456   11.887074995
    0.472787980   11.728186430   13.558376986   11.892381358
    0.479966611   11.733938907   13.565310988   11.897774612
    0.487145242   11.739784842   13.572357847   11.903255027
    0.494323873   11.745724551   13.579517955   11.908822876
    0.501502504   11.751758356   13.586791710   11.914478441
    0.508681135   11.757886587   13.594179520   11.920222006
    0.515859766   11.764109577   13.601681797   11.926053860
    0.523038397   11.770427666   13.609298962   11.931974298
    0.530217028   11.776841200   13.617031443   11.937983619
    0.537395659   11.783350532   13.624879675   11.944082128
    0.544574290   11.789956018   13.632844101   11.950270135
    0.551752922   11.796658024   13.640925172   11.956547956
    0.558931553   11.803456918   13.649123344   11.962915909
    0.566110184   11.810353078   13.657439085   11.969374322
    0.573288815   11.817346886   13.665872867   11.975923524
    0.580467446   11.824438730   13.674425171   11.982563852
    0.587646077   11.831629006   13.683096488   11.989295647
    0.594824708   11.838918115   13.691887312   11.996119257
    0.602003339   11.846306466   13.700798151   12.003035034
    0.609181970   11.853794473   13.709829517   12.010043336
    0.616360601   11.861382557   13.718981932   12.017144527
    0.623539232   11.869071146   13.728255926   12.024338977
    0.630717863   11.876860675   13.737652036   12.031627060
    0.637896494   11.884751585   13.747170810   12.039009157
    0.645075125   11.892744325   13.756812803   12.046485656
    0.652253756   11.900839350   13.766578579   12.054056949
    0.659432387   11.909037122   13.776468711   12.061723433
    0.666611018   11.917338111   13.786483780   12.069485515
    0.673789649   11.925742793   13.796624376   12.077343605
    0.680968280   11.934251652   13.806891101   12.085298119
    0.688146912   11.942865179   13.817284561   12.093349480
    0.695325543   11.951583873   13.827805375   12.101498118
    0.702504174   11.960408241   13.838454171   12.109744467
    0.709682805   11.969338795   13.849231585   12.118088971
    0.716861436   11.978376058   13.860138264   12.126532078
    0.724040067   11.987520557   13.871174863   12.135074242
    0.731218698   11.996772831   13.882342048   12.143715924
    0.738397329   12.006133424   13.893640496   12.152457594
    0.745575960   12.015602890   13.905070892   12.161299726
    0.752754591   12.025181788   13.916633932   12.170242801
    0.759933222   12.034870689   13.928330321   12.179287308
    0.767111853   12.044670170   13.940160777   12.188433743
    0.774290484   12.054580817   13.952126027   12.197682609
    0.781469115   12.064603224   13.964226808   12.207034415
    0.788647746   12.074737995   13.976463869   12.216489678
    0.795826377   12.084985742   13.988837969   12.226048922
    0.803005008   12.095347085   14.001349879   12.235712678
    0.810183639   12.105822653   14.014000379   12.245481487
    0.817362270   12.116413086   14.026790264   12.255355894
    0.824540902   12.127119032   14.039720338   12.265336454
    0.831719533   12.137941146   14.052791415   12.275423729
    0.838898164   12.148880097   14.066004325   12.285618288
    0.846076795   12.159936560   14.079359907   12.295920709
    0.853255426   12.171111220   14.092859013   12.306331577
    0.860434057   12.182404773   14.106502506   12.316851488
    0.867612688   12.193817925   14.120291264   12.327481041
    0.874791319   12.205351390   14.134226174   12.338220849
    0.881969950   12.217005894   14.148308139   12.349071528
    0.889148581   12.228782174   14.162538074   12.360033708
    0.896327212   12.240680974   14.176916905   12.371108023
    0.903505843   12.252703053   14.191445574   12.382295118
    0.910684474   12.264849177   14.206125035   12.393595646
    0.917863105   12.277120125   14.220956256   12.405010271
    0.925041736   12.289516686   14.235940219   12.416539662
    0.932220367   12.302039661   14.251077919   12.428184501
    0.939398998   12.314689861   14.266370367   12.439945479
    0.946577629   12.327468110   14.281818587   12.451823293
    0.953756260   12.340375242   14.297423618   12.463818653
    0.960934891   12.353412105   14.313186513   12.475932278
    0.968113523   12.366579558   14.329108342   12.488164896
    0.975292154   12.379878470   14.345190188   12.500517246
    0.982470785   12.393309725   14.361433152   12.512990075
    0.989649416   12.406874218   14.377838348   12.525584143
    0.996828047   12.420572859   14.394406907   12.538300219
    1.004006678   12.434406568   14.411139978   12.551139082
    1.011185309   12.448376279   14.428038723   12.564101523
    1.018363940   12.462482939   14.445104322   12.577188341
    1.025542571   12.476727510   14.462337975   12.590400351
    1.032721202   12.491110966   14.479740894   12.603738374
    1.039899833   12.505634295   14.497314312   12.617203246
    1.047078464   12.520298500   14.515059478   12.630795812
    1.054257095   12.535104598   14.532977661   12.644516931
    1.061435726   12.550053619   14.551070145   12.658367470
    1.068614357   12.565146609   14.569338235   12.672348310
    1.075792988   12.580384625   14.587783251   12.686460335
    1.082971619   12.595768734   14.606406525   12.700704415
    1.090150250   12.611300013   14.625209406   12.715081428
    1.097328881   12.626979594   14.644193301   12.729592385
    1.104507513   12.642808626   14.663359634   12.744238314
    1.111686144   12.658788236   14.682709816   12.759020129
    1.118864775   12.674919568   14.702245279   12.773938766
    1.126043406   12.691203790   14.721967484   12.788995199
    1.133222037   12.707642092   14.741877915   12.804190421
    1.140400668   12.724235679   14.761978077   12.819525444
    1.147579299   12.740985774   14.782269500   12.835001292
    1.154757930   12.757893619   14.802753736   12.850619003
    1.161936561   12.774960474   14.823432357   12.866379632
    1.169115192   12.792187616   14.844306961   12.882284246
    1.176293823   12.809576342   14.865379168   12.898333928
    1.183472454   12.827127966   14.886650624   12.914529776
    1.190651085   12.844843823   14.908122997   12.930872903
    1.197829716   12.862725267   14.929797979   12.947364436
    1.205008347   12.880773665   14.951677284   12.964005511
    1.212186978   12.898990392   14.973762638   12.980797262
    1.219365609   12.917376848   14.996055794   12.997740841
    1.226544240   12.935934515   15.018558599   13.014837512
    1.233722871   12.954664884   15.041272908   13.032088534
    1.240901503   12.973569411   15.064200550   13.049495100
    1.248080134   12.992649582   15.087343391   13.067058434
    1.255258765   13.011906916   15.110703334   13.084779794
    1.262437396   13.031342958   15.134282316   13.102660458
    1.269616027   13.050959278   15.158082303   13.120701728
    1.276794658   13.070757469   15.182105293   13.138904921
    1.283973289   13.090739149   15.206353313   13.157271374
    1.291151920   13.110905959   15.230828421   13.175802443
    1.298330551   13.131259566   15.255532707   13.194499505
    1.305509182   13.151801663   15.280468294   13.213363956
    1.312687813   13.172533965   15.305637336   13.232397211
    1.319866444   13.193458213   15.331042017   13.251600707
    1.327045075   13.214576169   15.356684550   13.270975903
    1.334223706   13.235889641   15.382567204   13.290524277
    1.341402337   13.257400475   15.408692289   13.310247330
    1.348580968   13.279110521   15.435062131   13.330146587
    1.355759599   13.301021655   15.461679088   13.350223591
    1.362938230   13.323135788   15.488545562   13.370479912
    1.370116861   13.345454864   15.515663993   13.390917141
    1.377295492   13.367980855   15.543036863   13.411536894
    1.384474124   13.390715767   15.570666691   13.432340811
    1.391652755   13.413661637   15.598556040   13.453330556
    1.398831386   13.436820535   15.626707511   13.474507819
    1.406010017   13.460194563   15.655123748   13.495874316
    1.413188648   13.483785857   15.683807440   13.517431786
    1.420367279   13.507596588   15.712761317   13.539181997
    1.427545910   13.531628961   15.741988156   13.561126745
    1.434724541   13.555885218   15.771490777   13.583267852
    1.441903172   13.580367636   15.801272050   13.605607167
    1.449081803   13.605078532   15.831334890   13.628146569
    1.456260434   13.630020257   15.861682260   13.650887966
    1.463439065   13.655195204   15.892317175   13.673833295
    1.470617696   13.680605804   15.923242699   13.696984524
    1.477796327   13.706254530   15.954461948   13.720343652
    1.484974958   13.732143893   15.985978089   13.743912708
    1.492153589   13.758276450   16.017794346   13.767693754
    1.499332220   13.784654799   16.049913995   13.791688885
    1.506510851   13.811281582   16.082340370   13.815900229
    1.513689482   13.838159485   16.115076862   13.840329947
    1.520868114   13.865291241   16.148126919   13.864980237
    1.528046745   13.892679630   16.181494051   13.889853329
    1.535225376   13.920327479   16.215181828   13.914951491
    1.542404007   13.948237665   16.249193883   13.940277029
    1.549582638   13.976413112   16.283533912   13.965832285
    1.556761269   14.004856798   16.318205676   13.991619638
    1.563939900   14.033571749   16.353213000   14.017641504
    1.571118531   14.062561045   16.388559779   14.043900340
    1.578297162   14.091827828   16.424249985   14.070398653
    1.585475793   14.121375298   16.460287667   14.097138991
    1.592654424   14.151206701   16.496676931   14.124123932
    1.599833055   14.181325342   16.533421959   14.151356095
    1.607011686   14.211734587   16.570527011   14.178838158
    1.614190317   14.242437857   16.607996421   14.206572850
    1.621368948   14.273438621   16.645834587   14.234562932
    1.628547579   14.304740430   16.684046007   14.262811209
    1.635726210   14.336346959   16.722635326   14.291320540
    1.642904841   14.368261907   16.761607231   14.320093833
    1.650083472   14.400489009   16.800966458   14.349134047
    1.657262104   14.433032078   16.840717846   14.378444191
    1.664440735   14.465895011   16.880866336   14.408027331
    1.671619366   14.499081778   16.921416967   14.437886582
    1.678797997   14.532596425   16.962374871   14.468025118
    1.685976628   14.566443078   17.003745285   14.498446167
    1.693155259   14.600625940   17.045533544   14.529153016
    1.700333890   14.635149294   17.087745089   14.560149011
    1.707512521   14.670017510   17.130385468   14.591437557
    1.714691152   14.705235039   17.173460339   14.623022122
    1.721869783   14.740806423   17.216975470   14.654906236
    1.729048414   14.776736290   17.260936748   14.687093490
    1.736227045   14.813029361   17.305350174   14.719587549
    1.743405676   14.849690447   17.350221867   14.752392138
    1.750584307   14.886724458   17.395558076   14.785511049
    1.757762938   14.924136425   17.441365195   14.818948180
    1.764941569   14.961931468   17.487649744   14.852707483
    1.772120200   15.000114800   17.534418359   14.886792968
    1.779298831   15.038691746   17.581677821   14.921208722
    1.786477462   15.077667743   17.629435056   14.955958920
    1.793656093   15.117048342   17.677697136   14.991047817
    1.800834725   15.156839208   17.726471282   15.026479748
    1.808013356   15.197046121   17.775764863   15.062259134
    1.815191987   15.237674999   17.825585426   15.098390485
    1.822370618   15.278731887   17.875940684   15.134878397
    1.829549249   15.320222914   17.926838483   15.171727524
    1.836727880   15.362154339   17.978286829   15.208942608
    1.843906511   15.404532673   18.030293971   15.246528608
    1.851085142   15.447364583   18.082868380   15.284490590
    1.858263773   15.490656781   18.136018656   15.322833601
    1.865442404   15.534416106   18.189753555   15.361562791
    1.872621035   15.578649576   18.244082048   15.400683440
    1.879799666   15.623364380   18.299013325   15.440200949
    1.886978297   15.668567876   18.354556794   15.480120835
    1.894156928   15.714267592   18.410722077   15.520448733
    1.901335559   15.760471230   18.467519027   15.561190395
    1.908514190   15.807186673   18.524957727   15.602351697
    1.915692821   15.854421986   18.583048500   15.643938644
    1.922871452   15.902185429   18.641801917   15.685957368
    1.930050083   15.950485457   18.701228803   15.728414137
    1.937228715   15.999330730   18.761340247   15.771315356
    1.944407346   16.048730114   18.822147611   15.814667573
    1.951585977   16.098692689   18.883662536   15.858477480
    1.958764608   16.149227752   18.945896954   15.902751922
    1.965943239   16.200344862   19.008863098   15.947497899
    1.973121870   16.252053827   19.072573510   15.992722575
    1.980300501   16.304364669   19.137041052   16.038433275
    1.987479132   16.357287662   19.202278917   16.084637492
    1.994657763   16.410833351   19.268300641   16.131342899
    2.001836394   16.465012560   19.335120114   16.178557346
    2.009015025   16.519836393   19.402751590   16.226288873
    2.016193656   16.575316245   19.471209697   16.274545706
    2.023372287   16.631463800   19.540509429   16.323336257
    2.030550918   16.688291046   19.610666177   16.372669131
    2.037729549   16.745810367   19.681695874   16.422553203
    2.044908180   16.804034499   19.753614879   16.472997572
    2.052086811   16.862976467   19.826439869   16.524011509
    2.059265442   16.922649645   19.900188092   16.575604582
    2.066444073   16.983067796   19.974877318   16.627786612
    2.073622705   17.044245082   20.050525727   16.680567589
    2.080801336   17.106196075   20.127152036   16.733957774
    2.087979967   17.168935769   20.204775528   16.787967715
    2.095158598   17.232479599   20.283416061   16.842608245
    2.102337229   17.296843458   20.363094087   16.897890488
    2.109515860   17.362043712   20.443830672   16.953825861
    2.116694491   17.428097219   20.525647518   17.010426064
    2.123873122   17.495021356   20.608567000   17.067703064
    2.131051753   17.562834039   20.692612192   17.125669122
    2.138230384   17.631553734   20.777806878   17.184337190
    2.145409015   17.701199464   20.864175550   17.243720653
    2.152587646   17.771790776   20.951743335   17.303832867
    2.159766277   17.843347845   21.040536059   17.364687544
    2.166944908   17.915891836   21.130580943   17.426298907
    2.174123539   17.989444707   21.221906213   17.488681595
    2.181302170   18.064028720   21.314540358   17.551850642
    2.188480801   18.139666907   21.408513892   17.615821903
    2.195659432   18.216383165   21.503857877   17.680611598
    2.202838063   18.294202212   21.600603760   17.746236141
    2.210016694   18.373149643   21.698784330   17.812712480
    2.217195326   18.453251973   21.798433709   17.880058174
    2.224373957   18.534536704   21.899587296   17.948291536
    2.231552588   18.617032325   22.002281787   18.017431416
    2.238731219   18.700768345   22.106555217   18.087497142
    2.245909850   18.785775348   22.212447026   18.158508693
    2.253088481   18.872085060   22.319998126   18.230486733
    2.260267112   18.959730570   22.429251067   18.303452725
    2.267445743   19.048746305   22.540250092   18.377428912
    2.274624374   19.139167804   22.653041037   18.452438203
    2.281803005   19.231031824   22.767671401   18.528504290
    2.288981636   19.324376481   22.884190508   18.605651719
    2.296160267   19.419242282   23.002650370   18.683906010
    2.303338898   19.515671464   23.123105244   18.763293574
    2.310517529   19.613707353   23.245610578   18.843841658
    2.317696160   19.713396237   23.370224399   18.925578855
    2.324874791   19.814785697   23.497008538   19.008535135
    2.332053422   19.917924882   23.626027365   19.092741335
    2.339232053   20.022865450   23.757347571   19.178229344
    2.346410684   20.129661526   23.891038288   19.265032327
    2.353589316   20.238369817   24.027172050   19.353184895
    2.360767947   20.349049749   24.165825021   19.442723160
    2.367946578   20.461763613   24.307077022   19.533684772
    2.375125209   20.576576758   24.451011726   19.626109010
    2.382303840   20.693557786   24.597716924   19.720036889
    2.389482471   20.812778754   24.747284951   19.815511314
    2.396661102   20.934315368   24.899812721   19.912577142
    2.403839733   21.058247398   25.055402217   20.011281274
    2.411018364   21.184658986   25.214161211   20.111672840
    2.418196995   21.313638432   25.376202753   20.213803308
    2.425375626   21.445279635   25.541646053   20.317726781
    2.432554257   21.579682475   25.710617527   20.423500224
    2.439732888   21.716951856   25.883250817   20.531183447
    2.446911519   21.857198384   26.059686834   20.640839239
    2.454090150   22.000539499   26.240074915   20.752533692
    2.461268781   22.147100109   26.424573752   20.866336377
    2.468447412   22.297013048   26.613351730   20.982320885
    2.475626043   22.450419721   26.806587746   21.100565538
    2.482804674   22.607470419   27.004472079   21.221152101
    2.489983306   22.768326012   27.207207950   21.344167695
    2.497161937   22.933160000   27.415013403   21.469708099
    2.504340568   23.102156334   27.628120121   21.597872642
    2.511519199   23.275511093   27.846775323   21.728765324
    2.518697830   23.453437580   28.071246985   21.862497776
    2.525876461   23.636165435   28.301823186   21.999189679
    2.533055092   23.823941483   28.538811844   22.138969465
    2.540233723   24.017033922   28.782546387   22.281974912
