# energy grid [eV]     ieps_x  ieps_y  ieps_z
#
    0.200000000   10.112129490   10.069777435    1.142172513
    0.207178631   10.109770937   10.067467677    1.142121808
    0.214357262   10.107330723   10.065077938    1.142069400
    0.221535893   10.104809001   10.062608367    1.142015297
    0.228714524   10.102205929   10.060059120    1.141959508
    0.235893155   10.099521672   10.057430353    1.141902041
    0.243071786   10.096756396   10.054722231    1.141842906
    0.250250417   10.093910276   10.051934922    1.141782112
    0.257429048   10.090983488   10.049068597    1.141719667
    0.264607679   10.087976215   10.046123434    1.141655583
    0.271786311   10.084888644   10.043099614    1.141589868
    0.278964942   10.081720966   10.039997322    1.141522533
    0.286143573   10.078473377   10.036816748    1.141453587
    0.293322204   10.075146077   10.033558086    1.141383041
    0.300500835   10.071739272   10.030221536    1.141310905
    0.307679466   10.068253171   10.026807298    1.141237190
    0.314858097   10.064687987   10.023315581    1.141161906
    0.322036728   10.061043939   10.019746595    1.141085065
    0.329215359   10.057321249   10.016100556    1.141006677
    0.336393990   10.053520142   10.012377681    1.140926753
    0.343572621   10.049640851   10.008578194    1.140845305
    0.350751252   10.045683609   10.004702323    1.140762344
    0.357929883   10.041648656   10.000750297    1.140677881
    0.365108514   10.037536234    9.996722351    1.140591928
    0.372287145   10.033346590    9.992618724    1.140504496
    0.379465776   10.029079976    9.988439658    1.140415597
    0.386644407   10.024736645    9.984185398    1.140325243
    0.393823038   10.020316858    9.979856195    1.140233446
    0.401001669   10.015820875    9.975452301    1.140140218
    0.408180301   10.011248963    9.970973972    1.140045569
    0.415358932   10.006601393    9.966421469    1.139949514
    0.422537563   10.001878437    9.961795055    1.139852063
    0.429716194    9.997080373    9.957094998    1.139753229
    0.436894825    9.992207481    9.952321567    1.139653024
    0.444073456    9.987260046    9.947475037    1.139551460
    0.451252087    9.982238356    9.942555684    1.139448550
    0.458430718    9.977142701    9.937563788    1.139344305
    0.465609349    9.971973376    9.932499633    1.139238738
    0.472787980    9.966730678    9.927363505    1.139131861
    0.479966611    9.961414910    9.922155694    1.139023687
    0.487145242    9.956026375    9.916876491    1.138914227
    0.494323873    9.950565380    9.911526194    1.138803495
    0.501502504    9.945032237    9.906105099    1.138691502
    0.508681135    9.939427258    9.900613509    1.138578261
    0.515859766    9.933750761    9.895051728    1.138463785
    0.523038397    9.928003065    9.889420063    1.138348084
    0.530217028    9.922184492    9.883718823    1.138231172
    0.537395659    9.916295369    9.877948321    1.138113062
    0.544574290    9.910336023    9.872108873    1.137993764
    0.551752922    9.904306786    9.866200795    1.137873292
    0.558931553    9.898207991    9.860224409    1.137751657
    0.566110184    9.892039975    9.854180038    1.137628873
    0.573288815    9.885803076    9.848068006    1.137504950
    0.580467446    9.879497638    9.841888642    1.137379901
    0.587646077    9.873124002    9.835642276    1.137253738
    0.594824708    9.866682518    9.829329241    1.137126473
    0.602003339    9.860173533    9.822949871    1.136998118
    0.609181970    9.853597399    9.816504503    1.136868685
    0.616360601    9.846954471    9.809993478    1.136738185
    0.623539232    9.840245104    9.803417137    1.136606632
    0.630717863    9.833469657    9.796775823    1.136474035
    0.637896494    9.826628490    9.790069883    1.136340408
    0.645075125    9.819721967    9.783299664    1.136205761
    0.652253756    9.812750452    9.776465517    1.136070106
    0.659432387    9.805714312    9.769567793    1.135933455
    0.666611018    9.798613917    9.762606846    1.135795820
    0.673789649    9.791449637    9.755583032    1.135657210
    0.680968280    9.784221845    9.748496708    1.135517639
    0.688146912    9.776930917    9.741348234    1.135377117
    0.695325543    9.769577228    9.734137972    1.135235656
    0.702504174    9.762161157    9.726866284    1.135093266
    0.709682805    9.754683085    9.719533534    1.134949959
    0.716861436    9.747143394    9.712140089    1.134805745
    0.724040067    9.739542466    9.704686317    1.134660636
    0.731218698    9.731880687    9.697172587    1.134514642
    0.738397329    9.724158444    9.689599270    1.134367774
    0.745575960    9.716376124    9.681966739    1.134220043
    0.752754591    9.708534119    9.674275367    1.134071460
    0.759933222    9.700632818    9.666525530    1.133922034
    0.767111853    9.692672615    9.658717604    1.133771778
    0.774290484    9.684653903    9.650851967    1.133620700
    0.781469115    9.676577078    9.642928999    1.133468811
    0.788647746    9.668442536    9.634949080    1.133316122
    0.795826377    9.660250674    9.626912591    1.133162642
    0.803005008    9.652001892    9.618819917    1.133008383
    0.810183639    9.643696590    9.610671440    1.132853353
    0.817362270    9.635335168    9.602467546    1.132697563
    0.824540902    9.626918029    9.594208621    1.132541022
    0.831719533    9.618445575    9.585895052    1.132383741
    0.838898164    9.609918212    9.577527227    1.132225730
    0.846076795    9.601336344    9.569105536    1.132066996
    0.853255426    9.592700377    9.560630368    1.131907552
    0.860434057    9.584010717    9.552102115    1.131747405
    0.867612688    9.575267773    9.543521168    1.131586566
    0.874791319    9.566471952    9.534887919    1.131425043
    0.881969950    9.557623664    9.526202763    1.131262846
    0.889148581    9.548723318    9.517466092    1.131099984
    0.896327212    9.539771325    9.508678302    1.130936466
    0.903505843    9.530768096    9.499839788    1.130772302
    0.910684474    9.521714042    9.490950946    1.130607499
    0.917863105    9.512609575    9.482012173    1.130442068
    0.925041736    9.503455108    9.473023865    1.130276017
    0.932220367    9.494251054    9.463986420    1.130109355
    0.939398998    9.484997827    9.454900237    1.129942089
    0.946577629    9.475695839    9.445765713    1.129774230
    0.953756260    9.466345506    9.436583248    1.129605786
    0.960934891    9.456947242    9.427353241    1.129436764
    0.968113523    9.447501461    9.418076092    1.129267173
    0.975292154    9.438008578    9.408752200    1.129097022
    0.982470785    9.428469008    9.399381965    1.128926320
    0.989649416    9.418883168    9.389965789    1.128755073
    0.996828047    9.409251471    9.380504072    1.128583290
    1.004006678    9.399574334    9.370997214    1.128410980
    1.011185309    9.389852172    9.361445617    1.128238150
    1.018363940    9.380085401    9.351849681    1.128064807
    1.025542571    9.370274435    9.342209807    1.127890961
    1.032721202    9.360419692    9.332526398    1.127716619
    1.039899833    9.350521585    9.322799853    1.127541788
    1.047078464    9.340580530    9.313030574    1.127366476
    1.054257095    9.330596943    9.303218962    1.127190691
    1.061435726    9.320571238    9.293365418    1.127014440
    1.068614357    9.310503830    9.283470343    1.126837731
    1.075792988    9.300395133    9.273534137    1.126660570
    1.082971619    9.290245562    9.263557202    1.126482966
    1.090150250    9.280055530    9.253539937    1.126304926
    1.097328881    9.269825450    9.243482742    1.126126456
    1.104507513    9.259555737    9.233386017    1.125947565
    1.111686144    9.249246802    9.223250162    1.125768258
    1.118864775    9.238899057    9.213075576    1.125588544
    1.126043406    9.228512916    9.202862657    1.125408429
    1.133222037    9.218088788    9.192611805    1.125227919
    1.140400668    9.207627084    9.182323416    1.125047023
    1.147579299    9.197128216    9.171997889    1.124865746
    1.154757930    9.186592591    9.161635621    1.124684095
    1.161936561    9.176020620    9.151237007    1.124502077
    1.169115192    9.165412711    9.140802445    1.124319699
    1.176293823    9.154769271    9.130332330    1.124136968
    1.183472454    9.144090707    9.119827057    1.123953889
    1.190651085    9.133377425    9.109287019    1.123770469
    1.197829716    9.122629832    9.098712611    1.123586715
    1.205008347    9.111848331    9.088104226    1.123402632
    1.212186978    9.101033326    9.077462256    1.123218228
    1.219365609    9.090185221    9.066787092    1.123033509
    1.226544240    9.079304418    9.056079126    1.122848480
    1.233722871    9.068391317    9.045338747    1.122663148
    1.240901503    9.057446320    9.034566346    1.122477519
    1.248080134    9.046469826    9.023762310    1.122291599
    1.255258765    9.035462233    9.012927027    1.122105394
    1.262437396    9.024423939    9.002060884    1.121918910
    1.269616027    9.013355341    8.991164267    1.121732153
    1.276794658    9.002256833    8.980237561    1.121545129
    1.283973289    8.991128810    8.969281150    1.121357843
    1.291151920    8.979971666    8.958295418    1.121170301
    1.298330551    8.968785793    8.947280746    1.120982510
    1.305509182    8.957571583    8.936237516    1.120794474
    1.312687813    8.946329424    8.925166108    1.120606199
    1.319866444    8.935059706    8.914066901    1.120417691
    1.327045075    8.923762816    8.902940274    1.120228956
    1.334223706    8.912439142    8.891786603    1.120039998
    1.341402337    8.901089068    8.880606265    1.119850824
    1.348580968    8.889712978    8.869399633    1.119661438
    1.355759599    8.878311255    8.858167083    1.119471846
    1.362938230    8.866884280    8.846908986    1.119282054
    1.370116861    8.855432434    8.835625714    1.119092066
    1.377295492    8.843956095    8.824317637    1.118901888
    1.384474124    8.832455642    8.812985124    1.118711526
    1.391652755    8.820931449    8.801628542    1.118520983
    1.398831386    8.809383892    8.790248259    1.118330266
    1.406010017    8.797813345    8.778844640    1.118139378
    1.413188648    8.786220179    8.767418048    1.117948327
    1.420367279    8.774604764    8.755968847    1.117757115
    1.427545910    8.762967471    8.744497397    1.117565749
    1.434724541    8.751308666    8.733004059    1.117374233
    1.441903172    8.739628716    8.721489191    1.117182572
    1.449081803    8.727927986    8.709953150    1.116990770
    1.456260434    8.716206838    8.698396293    1.116798834
    1.463439065    8.704465635    8.686818975    1.116606766
    1.470617696    8.692704736    8.675221547    1.116414573
    1.477796327    8.680924501    8.663604363    1.116222258
    1.484974958    8.669125286    8.651967772    1.116029827
    1.492153589    8.657307447    8.640312123    1.115837283
    1.499332220    8.645471338    8.628637764    1.115644632
    1.506510851    8.633617312    8.616945040    1.115451878
    1.513689482    8.621745718    8.605234297    1.115259026
    1.520868114    8.609856906    8.593505876    1.115066079
    1.528046745    8.597951225    8.581760119    1.114873043
    1.535225376    8.586029018    8.569997367    1.114679921
    1.542404007    8.574090631    8.558217957    1.114486719
    1.549582638    8.562136407    8.546422227    1.114293439
    1.556761269    8.550166685    8.534610511    1.114100088
    1.563939900    8.538181806    8.522783144    1.113906668
    1.571118531    8.526182107    8.510940457    1.113713184
    1.578297162    8.514167923    8.499082781    1.113519640
    1.585475793    8.502139589    8.487210444    1.113326041
    1.592654424    8.490097437    8.475323775    1.113132390
    1.599833055    8.478041798    8.463423099    1.112938691
    1.607011686    8.465973001    8.451508739    1.112744949
    1.614190317    8.453891372    8.439581019    1.112551168
    1.621368948    8.441797237    8.427640259    1.112357351
    1.628547579    8.429690920    8.415686778    1.112163502
    1.635726210    8.417572742    8.403720894    1.111969626
    1.642904841    8.405443025    8.391742922    1.111775725
    1.650083472    8.393302085    8.379753176    1.111581805
    1.657262104    8.381150240    8.367751970    1.111387869
    1.664440735    8.368987805    8.355739613    1.111193920
    1.671619366    8.356815091    8.343716415    1.110999962
    1.678797997    8.344632411    8.331682682    1.110806000
    1.685976628    8.332440073    8.319638722    1.110612036
    1.693155259    8.320238386    8.307584836    1.110418074
    1.700333890    8.308027654    8.295521329    1.110224119
    1.707512521    8.295808182    8.283448499    1.110030173
    1.714691152    8.283580272    8.271366646    1.109836240
    1.721869783    8.271344223    8.259276067    1.109642323
    1.729048414    8.259100335    8.247177056    1.109448427
    1.736227045    8.246848903    8.235069908    1.109254555
    1.743405676    8.234590222    8.222954914    1.109060709
    1.750584307    8.222324585    8.210832364    1.108866894
    1.757762938    8.210052283    8.198702545    1.108673112
    1.764941569    8.197773606    8.186565746    1.108479368
    1.772120200    8.185488839    8.174422249    1.108285664
    1.779298831    8.173198269    8.162272339    1.108092004
    1.786477462    8.160902179    8.150116295    1.107898391
    1.793656093    8.148600851    8.137954398    1.107704829
    1.800834725    8.136294564    8.125786925    1.107511319
    1.808013356    8.123983597    8.113614152    1.107317867
    1.815191987    8.111668225    8.101436352    1.107124474
    1.822370618    8.099348722    8.089253797    1.106931144
    1.829549249    8.087025361    8.077066759    1.106737880
    1.836727880    8.074698412    8.064875506    1.106544685
    1.843906511    8.062368144    8.052680304    1.106351563
    1.851085142    8.050034823    8.040481418    1.106158515
    1.858263773    8.037698714    8.028279112    1.105965546
    1.865442404    8.025360080    8.016073647    1.105772657
    1.872621035    8.013019183    8.003865283    1.105579853
    1.879799666    8.000676280    7.991654277    1.105387136
    1.886978297    7.988331630    7.979440885    1.105194508
    1.894156928    7.975985487    7.967225362    1.105001973
    1.901335559    7.963638106    7.955007960    1.104809534
    1.908514190    7.951289738    7.942788930    1.104617193
    1.915692821    7.938940633    7.930568519    1.104424952
    1.922871452    7.926591039    7.918346977    1.104232816
    1.930050083    7.914241201    7.906124547    1.104040786
    1.937228715    7.901891365    7.893901472    1.103848866
    1.944407346    7.889541771    7.881677996    1.103657057
    1.951585977    7.877192662    7.869454357    1.103465363
    1.958764608    7.864844275    7.857230793    1.103273786
    1.965943239    7.852496848    7.845007541    1.103082329
    1.973121870    7.840150614    7.832784835    1.102890995
    1.980300501    7.827805808    7.820562908    1.102699785
    1.987479132    7.815462660    7.808341991    1.102508702
    1.994657763    7.803121400    7.796122312    1.102317750
    2.001836394    7.790782256    7.783904100    1.102126930
    2.009015025    7.778445452    7.771687579    1.101936245
    2.016193656    7.766111214    7.759472973    1.101745697
    2.023372287    7.753779762    7.747260505    1.101555289
    2.030550918    7.741451318    7.735050395    1.101365023
    2.037729549    7.729126099    7.722842861    1.101174901
    2.044908180    7.716804322    7.710638119    1.100984927
    2.052086811    7.704486203    7.698436385    1.100795101
    2.059265442    7.692171953    7.686237873    1.100605427
    2.066444073    7.679861784    7.674042792    1.100415906
    2.073622705    7.667555906    7.661851354    1.100226541
    2.080801336    7.655254525    7.649663765    1.100037334
    2.087979967    7.642957849    7.637480233    1.099848288
    2.095158598    7.630666080    7.625300961    1.099659404
    2.102337229    7.618379420    7.613126152    1.099470685
    2.109515860    7.606098072    7.600956008    1.099282133
    2.116694491    7.593822232    7.588790728    1.099093749
    2.123873122    7.581552097    7.576630508    1.098905536
    2.131051753    7.569287864    7.564475546    1.098717497
    2.138230384    7.557029725    7.552326034    1.098529632
    2.145409015    7.544777872    7.540182167    1.098341945
    2.152587646    7.532532495    7.528044133    1.098154436
    2.159766277    7.520293782    7.515912123    1.097967109
    2.166944908    7.508061919    7.503786323    1.097779965
    2.174123539    7.495837091    7.491666920    1.097593006
    2.181302170    7.483619481    7.479554097    1.097406233
    2.188480801    7.471409271    7.467448036    1.097219650
    2.195659432    7.459206639    7.455348919    1.097033257
    2.202838063    7.447011763    7.443256923    1.096847056
    2.210016694    7.434824821    7.431172228    1.096661050
    2.217195326    7.422645985    7.419095007    1.096475240
    2.224373957    7.410475430    7.407025435    1.096289628
    2.231552588    7.398313326    7.394963685    1.096104215
    2.238731219    7.386159842    7.382909927    1.095919005
    2.245909850    7.374015146    7.370864330    1.095733997
    2.253088481    7.361879405    7.358827062    1.095549194
    2.260267112    7.349752783    7.346798289    1.095364598
    2.267445743    7.337635442    7.334778175    1.095180210
    2.274624374    7.325527544    7.322766882    1.094996032
    2.281803005    7.313429248    7.310764572    1.094812065
    2.288981636    7.301340713    7.298771404    1.094628312
    2.296160267    7.289262095    7.286787536    1.094444773
    2.303338898    7.277193548    7.274813124    1.094261451
    2.310517529    7.265135225    7.262848323    1.094078346
    2.317696160    7.253087278    7.250893286    1.093895461
    2.324874791    7.241049857    7.238948165    1.093712797
    2.332053422    7.229023111    7.227013111    1.093530356
    2.339232053    7.217007186    7.215088270    1.093348138
    2.346410684    7.205002227    7.203173791    1.093166146
    2.353589316    7.193008378    7.191269818    1.092984380
    2.360767947    7.181025781    7.179376497    1.092802843
    2.367946578    7.169054578    7.167493968    1.092621536
    2.375125209    7.157094906    7.155622374    1.092440459
    2.382303840    7.145146903    7.143761853    1.092259615
    2.389482471    7.133210706    7.131912543    1.092079005
    2.396661102    7.121286448    7.120074582    1.091898630
    2.403839733    7.109374264    7.108248103    1.091718491
    2.411018364    7.097474284    7.096433240    1.091538591
    2.418196995    7.085586639    7.084630125    1.091358929
    2.425375626    7.073711456    7.072838889    1.091179507
    2.432554257    7.061848864    7.061059661    1.091000327
    2.439732888    7.049998987    7.049292569    1.090821390
    2.446911519    7.038161951    7.037537738    1.090642697
    2.454090150    7.026337877    7.025795294    1.090464249
    2.461268781    7.014526887    7.014065360    1.090286048
    2.468447412    7.002729102    7.002348057    1.090108094
    2.475626043    6.990944638    6.990643507    1.089930389
    2.482804674    6.979173614    6.978951829    1.089752934
    2.489983306    6.967416144    6.967273140    1.089575730
    2.497161937    6.955672344    6.955607556    1.089398777
    2.504340568    6.943942326    6.943955194    1.089222078
    2.511519199    6.932226201    6.932316165    1.089045634
    2.518697830    6.920524080    6.920690584    1.088869444
    2.525876461    6.908836072    6.909078559    1.088693511
    2.533055092    6.897162283    6.897480202    1.088517836
    2.540233723    6.885502819    6.885895621    1.088342419
