# energy grid [eV]     epsr_x  epsr_y  epsr_z
#
    0.200000000    2.831088458   16.115139116   16.038690358
    0.207178631    2.831296534   16.118724904   16.042334434
    0.214357262    2.831512003   16.122439048   16.046109016
    0.221535893    2.831734869   16.126281747   16.050014318
    0.228714524    2.831965138   16.130253211   16.054050558
    0.235893155    2.832202817   16.134353655   16.058217963
    0.243071786    2.832447912   16.138583301   16.062516766
    0.250250417    2.832700430   16.142942380   16.066947210
    0.257429048    2.832960376   16.147431129   16.071509544
    0.264607679    2.833227759   16.152049792   16.076204025
    0.271786311    2.833502585   16.156798621   16.081030919
    0.278964942    2.833784861   16.161677875   16.085990497
    0.286143573    2.834074596   16.166687822   16.091083040
    0.293322204    2.834371796   16.171828734   16.096308838
    0.300500835    2.834676471   16.177100895   16.101668186
    0.307679466    2.834988627   16.182504592   16.107161388
    0.314858097    2.835308274   16.188040124   16.112788757
    0.322036728    2.835635420   16.193707793   16.118550613
    0.329215359    2.835970073   16.199507913   16.124447284
    0.336393990    2.836312243   16.205440803   16.130479108
    0.343572621    2.836661940   16.211506791   16.136646429
    0.350751252    2.837019171   16.217706211   16.142949600
    0.357929883    2.837383948   16.224039408   16.149388983
    0.365108514    2.837756279   16.230506732   16.155964947
    0.372287145    2.838136175   16.237108543   16.162677871
    0.379465776    2.838523646   16.243845207   16.169528141
    0.386644407    2.838918703   16.250717101   16.176516153
    0.393823038    2.839321356   16.257724606   16.183642311
    0.401001669    2.839731616   16.264868116   16.190907028
    0.408180301    2.840149495   16.272148029   16.198310724
    0.415358932    2.840575003   16.279564754   16.205853830
    0.422537563    2.841008152   16.287118707   16.213536785
    0.429716194    2.841448954   16.294810313   16.221360037
    0.436894825    2.841897421   16.302640007   16.229324044
    0.444073456    2.842353565   16.310608229   16.237429271
    0.451252087    2.842817399   16.318715430   16.245676194
    0.458430718    2.843288934   16.326962071   16.254065297
    0.465609349    2.843768185   16.335348619   16.262597075
    0.472787980    2.844255164   16.343875550   16.271272030
    0.479966611    2.844749884   16.352543352   16.280090677
    0.487145242    2.845252360   16.361352519   16.289053537
    0.494323873    2.845762604   16.370303555   16.298161142
    0.501502504    2.846280631   16.379396974   16.307414035
    0.508681135    2.846806454   16.388633298   16.316812767
    0.515859766    2.847340090   16.398013058   16.326357900
    0.523038397    2.847881551   16.407536796   16.336050006
    0.530217028    2.848430854   16.417205063   16.345889667
    0.537395659    2.848988013   16.427018419   16.355877475
    0.544574290    2.849553043   16.436977434   16.366014032
    0.551752922    2.850125961   16.447082687   16.376299952
    0.558931553    2.850706782   16.457334769   16.386735858
    0.566110184    2.851295523   16.467734280   16.397322384
    0.573288815    2.851892199   16.478281827   16.408060175
    0.580467446    2.852496827   16.488978033   16.418949887
    0.587646077    2.853109424   16.499823526   16.429992187
    0.594824708    2.853730007   16.510818946   16.441187753
    0.602003339    2.854358594   16.521964946   16.452537273
    0.609181970    2.854995202   16.533262187   16.464041448
    0.616360601    2.855639849   16.544711339   16.475700991
    0.623539232    2.856292553   16.556313088   16.487516625
    0.630717863    2.856953332   16.568068126   16.499489084
    0.637896494    2.857622205   16.579977158   16.511619117
    0.645075125    2.858299191   16.592040901   16.523907482
    0.652253756    2.858984308   16.604260082   16.536354950
    0.659432387    2.859677577   16.616635440   16.548962306
    0.666611018    2.860379016   16.629167724   16.561730344
    0.673789649    2.861088646   16.641857698   16.574659874
    0.680968280    2.861806487   16.654706133   16.587751717
    0.688146912    2.862532559   16.667713818   16.601006706
    0.695325543    2.863266882   16.680881548   16.614425689
    0.702504174    2.864009479   16.694210134   16.628009525
    0.709682805    2.864760369   16.707700398   16.641759090
    0.716861436    2.865519575   16.721353175   16.655675268
    0.724040067    2.866287119   16.735169312   16.669758962
    0.731218698    2.867063021   16.749149669   16.684011086
    0.738397329    2.867847305   16.763295120   16.698432568
    0.745575960    2.868639993   16.777606550   16.713024350
    0.752754591    2.869441108   16.792084860   16.727787391
    0.759933222    2.870250673   16.806730961   16.742722662
    0.767111853    2.871068712   16.821545780   16.757831148
    0.774290484    2.871895248   16.836530258   16.773113852
    0.781469115    2.872730305   16.851685348   16.788571790
    0.788647746    2.873573908   16.867012020   16.804205993
    0.795826377    2.874426081   16.882511254   16.820017509
    0.803005008    2.875286850   16.898184049   16.836007401
    0.810183639    2.876156238   16.914031415   16.852176748
    0.817362270    2.877034272   16.930054380   16.868526644
    0.824540902    2.877920978   16.946253985   16.885058203
    0.831719533    2.878816382   16.962631286   16.901772551
    0.838898164    2.879720509   16.979187355   16.918670834
    0.846076795    2.880633387   16.995923282   16.935754214
    0.853255426    2.881555044   17.012840168   16.953023870
    0.860434057    2.882485505   17.029939135   16.970481000
    0.867612688    2.883424799   17.047221317   16.988126818
    0.874791319    2.884372954   17.064687868   17.005962558
    0.881969950    2.885329998   17.082339957   17.023989470
    0.889148581    2.886295960   17.100178770   17.042208824
    0.896327212    2.887270868   17.118205510   17.060621910
    0.903505843    2.888254752   17.136421399   17.079230035
    0.910684474    2.889247642   17.154827676   17.098034527
    0.917863105    2.890249568   17.173425596   17.117036733
    0.925041736    2.891260559   17.192216434   17.136238020
    0.932220367    2.892280647   17.211201485   17.155639776
    0.939398998    2.893309862   17.230382059   17.175243408
    0.946577629    2.894348236   17.249759488   17.195050347
    0.953756260    2.895395800   17.269335122   17.215062042
    0.960934891    2.896452587   17.289110332   17.235279965
    0.968113523    2.897518629   17.309086506   17.255705611
    0.975292154    2.898593958   17.329265055   17.276340496
    0.982470785    2.899678608   17.349647409   17.297186159
    0.989649416    2.900772612   17.370235019   17.318244161
    0.996828047    2.901876005   17.391029358   17.339516089
    1.004006678    2.902988819   17.412031919   17.361003551
    1.011185309    2.904111090   17.433244217   17.382708180
    1.018363940    2.905242854   17.454667791   17.404631635
    1.025542571    2.906384144   17.476304199   17.426775598
    1.032721202    2.907534997   17.498155025   17.449141776
    1.039899833    2.908695449   17.520221874   17.471731905
    1.047078464    2.909865537   17.542506375   17.494547743
    1.054257095    2.911045297   17.565010183   17.517591077
    1.061435726    2.912234767   17.587734972   17.540863722
    1.068614357    2.913433985   17.610682447   17.564367517
    1.075792988    2.914642988   17.633854334   17.588104332
    1.082971619    2.915861816   17.657252384   17.612076066
    1.090150250    2.917090506   17.680878378   17.636284643
    1.097328881    2.918329100   17.704734118   17.660732021
    1.104507513    2.919577635   17.728821436   17.685420185
    1.111686144    2.920836154   17.753142190   17.710351151
    1.118864775    2.922104695   17.777698267   17.735526968
    1.126043406    2.923383301   17.802491581   17.760949714
    1.133222037    2.924672013   17.827524073   17.786621500
    1.140400668    2.925970873   17.852797715   17.812544470
    1.147579299    2.927279924   17.878314509   17.838720802
    1.154757930    2.928599208   17.904076485   17.865152705
    1.161936561    2.929928768   17.930085705   17.891842427
    1.169115192    2.931268649   17.956344261   17.918792246
    1.176293823    2.932618895   17.982854277   17.946004481
    1.183472454    2.933979551   18.009617910   17.973481483
    1.190651085    2.935350661   18.036637348   18.001225643
    1.197829716    2.936732272   18.063914814   18.029239389
    1.205008347    2.938124430   18.091452564   18.057525186
    1.212186978    2.939527182   18.119252888   18.086085541
    1.219365609    2.940940574   18.147318112   18.114922999
    1.226544240    2.942364655   18.175650597   18.144040146
    1.233722871    2.943799473   18.204252741   18.173439611
    1.240901503    2.945245077   18.233126978   18.203124064
    1.248080134    2.946701515   18.262275781   18.233096218
    1.255258765    2.948168838   18.291701659   18.263358828
    1.262437396    2.949647096   18.321407163   18.293914686
    1.269616027    2.951136340   18.351394878   18.324766607
    1.276794658    2.952636621   18.381667431   18.355917462
    1.283973289    2.954147992   18.412227503   18.387370281
    1.291151920    2.955670505   18.443077813   18.419128096
    1.298330551    2.957204213   18.474221114   18.451193910
    1.305509182    2.958749169   18.505660201   18.483570789
    1.312687813    2.960305429   18.537397921   18.516261871
    1.319866444    2.961873046   18.569437163   18.549270348
    1.327045075    2.963452076   18.601780863   18.582599468
    1.334223706    2.965042576   18.634432005   18.616252535
    1.341402337    2.966644602   18.667393620   18.650232907
    1.348580968    2.968258211   18.700668790   18.684544001
    1.355759599    2.969883461   18.734260638   18.719189291
    1.362938230    2.971520411   18.768172334   18.754172309
    1.370116861    2.973169119   18.802407106   18.789496651
    1.377295492    2.974829646   18.836968276   18.825165973
    1.384474124    2.976502052   18.871859199   18.861183994
    1.391652755    2.978186398   18.907083254   18.897554499
    1.398831386    2.979882745   18.942643886   18.934281339
    1.406010017    2.981591157   18.978544604   18.971368432
    1.413188648    2.983311696   19.014788976   19.008819765
    1.420367279    2.985044426   19.051380631   19.046639397
    1.427545910    2.986789412   19.088323259   19.084831457
    1.434724541    2.988546719   19.125620612   19.123400151
    1.441903172    2.990316412   19.163276507   19.162349757
    1.449081803    2.992098559   19.201294826   19.201684633
    1.456260434    2.993893226   19.239679515   19.241409216
    1.463439065    2.995700483   19.278434592   19.281528021
    1.470617696    2.997520397   19.317564141   19.322045648
    1.477796327    2.999353038   19.357072319   19.362966783
    1.484974958    3.001198478   19.396963354   19.404296195
    1.492153589    3.003056786   19.437241549   19.446038745
    1.499332220    3.004928036   19.477911282   19.488199382
    1.506510851    3.006812299   19.518977011   19.530783150
    1.513689482    3.008709650   19.560443269   19.573795188
    1.520868114    3.010620163   19.602314673   19.617240731
    1.528046745    3.012543913   19.644595921   19.661125116
    1.535225376    3.014480976   19.687291798   19.705453780
    1.542404007    3.016431430   19.730407172   19.750232266
    1.549582638    3.018395352   19.773947004   19.795466226
    1.556761269    3.020372820   19.817916342   19.841161418
    1.563939900    3.022363916   19.862320328   19.887323717
    1.571118531    3.024368718   19.907164199   19.933959112
    1.578297162    3.026387310   19.952453285   19.981073711
    1.585475793    3.028419772   19.998193001   20.028673742
    1.592654424    3.030466188   20.044388827   20.076765560
    1.599833055    3.032526643   20.091046366   20.125355647
    1.607011686    3.034601222   20.138171514   20.174450618
    1.614190317    3.036690011   20.185770190   20.224057222
    1.621368948    3.038793098   20.233848296   20.274182345
    1.628547579    3.040910571   20.282411877   20.324833019
    1.635726210    3.043042519   20.331467125   20.376016417
    1.642904841    3.045189033   20.381020356   20.427739866
    1.650083472    3.047350203   20.431078015   20.480010847
    1.657262104    3.049526124   20.481646672   20.532836997
    1.664440735    3.051716887   20.532733027   20.586226116
    1.671619366    3.053922588   20.584343912   20.640186166
    1.678797997    3.056143322   20.636486295   20.694725256
    1.685976628    3.058379187   20.689167277   20.749851622
    1.693155259    3.060630281   20.742394110   20.805573730
    1.700333890    3.062896703   20.796174212   20.861900486
    1.707512521    3.065178554   20.850515143   20.918840828
    1.714691152    3.067475935   20.905424600   20.976403740
    1.721869783    3.069788949   20.960910448   21.034598454
    1.729048414    3.072117701   21.016980716   21.093434446
    1.736227045    3.074462295   21.073643603   21.152921420
    1.743405676    3.076822840   21.130907481   21.213069301
    1.750584307    3.079199442   21.188780900   21.273888245
    1.757762938    3.081592212   21.247272593   21.335388645
    1.764941569    3.084001259   21.306391480   21.397581133
    1.772120200    3.086426697   21.366146673   21.460476596
    1.779298831    3.088868639   21.426547485   21.524086178
    1.786477462    3.091327200   21.487603430   21.588421289
    1.793656093    3.093802496   21.549324235   21.653493613
    1.800834725    3.096294644   21.611719840   21.719315121
    1.808013356    3.098803766   21.674800409   21.785898074
    1.815191987    3.101329981   21.738576336   21.853255037
    1.822370618    3.103873411   21.803058247   21.921398887
    1.829549249    3.106434182   21.868257015   21.990342823
    1.836727880    3.109012418   21.934183758   22.060100379
    1.843906511    3.111608247   22.000849856   22.130685432
    1.851085142    3.114221798   22.068266951   22.202112216
    1.858263773    3.116853201   22.136446959   22.274395333
    1.865442404    3.119502588   22.205402080   22.347549766
    1.872621035    3.122170094   22.275144802   22.421590892
    1.879799666    3.124855855   22.345687914   22.496534497
    1.886978297    3.127560007   22.417044514   22.572396788
    1.894156928    3.130282691   22.489228019   22.649194407
    1.901335559    3.133024047   22.562252175   22.726944444
    1.908514190    3.135784218   22.636131068   22.805664458
    1.915692821    3.138563350   22.710879138   22.885372526
    1.922871452    3.141361592   22.786511184   22.966087222
    1.930050083    3.144179092   22.863042382   23.047827619
    1.937228715    3.147016000   22.940488295   23.130613338
    1.944407346    3.149872470   23.018864885   23.214464564
    1.951585977    3.152748657   23.098188531   23.299402073
    1.958764608    3.155644719   23.178476038   23.385447248
    1.965943239    3.158560816   23.259744655   23.472622099
    1.973121870    3.161497108   23.342012089   23.560949279
    1.980300501    3.164453758   23.425296520   23.650452106
    1.987479132    3.167430934   23.509616626   23.741154672
    1.994657763    3.170428809   23.594991597   23.833081868
    2.001836394    3.173447555   23.681441147   23.926259256
    2.009015025    3.176487343   23.768985532   24.020713181
    2.016193656    3.179548350   23.857645581   24.116470842
    2.023372287    3.182630754   23.947442711   24.213560318
    2.030550918    3.185734737   24.038398950   24.312010599
    2.037729549    3.188860484   24.130536963   24.411851624
    2.044908180    3.192008182   24.223880066   24.513114318
    2.052086811    3.195178019   24.318452250   24.615830631
    2.059265442    3.198370189   24.414278192   24.720033579
    2.066444073    3.201584886   24.511383332   24.825757318
    2.073622705    3.204822312   24.609793983   24.933037222
    2.080801336    3.208082669   24.709537152   25.041909822
    2.087979967    3.211366162   24.810640677   25.152412909
    2.095158598    3.214672995   24.913133300   25.264585632
    2.102337229    3.218003379   25.017044583   25.378468671
    2.109515860    3.221357532   25.122405163   25.494104433
    2.116694491    3.224735673   25.229246651   25.611536675
    2.123873122    3.228138014   25.337601558   25.730810470
    2.131051753    3.231564769   25.447503469   25.851972653
    2.138230384    3.235016185   25.558987112   25.975072234
    2.145409015    3.238492513   25.672088331   26.100160147
    2.152587646    3.241993981   25.786844133   26.227289021
    2.159766277    3.245520821   25.903293114   26.356513604
    2.166944908    3.249073276   26.021475203   26.487890915
    2.174123539    3.252651593   26.141431383   26.621480324
    2.181302170    3.256256023   26.263204063   26.757343654
    2.188480801    3.259886810   26.386837200   26.895545289
    2.195659432    3.263544205   26.512376502   27.036152282
    2.202838063    3.267228496   26.639869564   27.179234653
    2.210016694    3.270939979   26.769365659   27.324865873
    2.217195326    3.274678919   26.900915614   27.473122516
    2.224373957    3.278445582   27.034572203   27.624084258
    2.231552588    3.282240246   27.170390247   27.777834438
    2.238731219    3.286063199   27.308426678   27.934460289
    2.245909850    3.289914742   27.448740868   28.094053295
    2.253088481    3.293795186   27.591394894   28.256709594
    2.260267112    3.297704836   27.736452976   28.422529721
    2.267445743    3.301643999   27.883981773   28.591619018
    2.274624374    3.305612991   28.034050820   28.764088178
    2.281803005    3.309612133   28.186732634   28.940053571
    2.288981636    3.313641751   28.342102829   29.119637592
    2.296160267    3.317702165   28.500240272   29.302969073
    2.303338898    3.321793717   28.661227349   29.490183749
    2.310517529    3.325916798   28.825150260   29.681424764
    2.317696160    3.330071770   28.992098983   29.876843165
    2.324874791    3.334258981   29.162167552   30.076598488
    2.332053422    3.338478795   29.335454417   30.280859425
    2.339232053    3.342731590   29.512062711   30.489804522
    2.346410684    3.347017752   29.692100529   30.703622944
    2.353589316    3.351337677   29.875681243   30.922515316
    2.360767947    3.355691763   30.062923843   31.146694651
    2.367946578    3.360080412   30.253953298   31.376387366
    2.375125209    3.364504027   30.448900968   31.611834416
    2.382303840    3.368963066   30.647905171   31.853292541
    2.389482471    3.373458006   30.851111577   32.101035645
    2.396661102    3.377989281   31.058673574   32.355356299
    2.403839733    3.382557340   31.270752957   32.616567456
    2.411018364    3.387162650   31.487520585   32.885004347
    2.418196995    3.391805692   31.709157005   33.161026567
    2.425375626    3.396486963   31.935853139   33.445020399
    2.432554257    3.401206969   32.167811258   33.737401516
    2.439732888    3.405966232   32.405246093   34.038618231
    2.446911519    3.410765285   32.648385462   34.349154609
    2.454090150    3.415604677   32.897471041   34.669533882
    2.461268781    3.420484969   33.152760107   35.000323034
    2.468447412    3.425406722   33.414526731   35.342137557
    2.475626043    3.430370461   33.683063003   35.695647042
    2.482804674    3.435376616   33.958680734   36.061582542
    2.489983306    3.440425786   34.241713588   36.440742976
    2.497161937    3.445519014   34.532519364   36.834002741
    2.504340568    3.450656830   34.831481116   37.242321613
    2.511519199    3.455839654   35.139010280   37.666756395
    2.518697830    3.461068649   35.455550294   38.108474400
    2.525876461    3.466344685   35.781578545   38.568767747
    2.533055092    3.471668290   36.117611022   39.049070966
    2.540233723    3.477040131   36.464205851   39.550982145
