# energy grid [eV]     epsr_x  epsr_y  epsr_z
#
    0.200000000   10.549316456    9.454126192   11.364520289
    0.207178631   10.551464401    9.455931172   11.366926385
    0.214357262   10.553689298    9.457801279   11.369419059
    0.221535893   10.555991276    9.459736674   11.371998495
    0.228714524   10.558370467    9.461737525   11.374664890
    0.235893155   10.560827008    9.463804007   11.377418446
    0.243071786   10.563361042    9.465936301   11.380259371
    0.250250417   10.565972717    9.468134597   11.383187883
    0.257429048   10.568662182    9.470399092   11.386204209
    0.264607679   10.571429597    9.472729989   11.389308583
    0.271786311   10.574275122    9.475127502   11.392501247
    0.278964942   10.577198923    9.477591850   11.395782452
    0.286143573   10.580201174    9.480123261   11.399152459
    0.293322204   10.583282050    9.482721974   11.402611537
    0.300500835   10.586441733    9.485388233   11.406159964
    0.307679466   10.589680410    9.488122295   11.409798028
    0.314858097   10.592998274    9.490924423   11.413526027
    0.322036728   10.596395522    9.493794891   11.417344269
    0.329215359   10.599872357    9.496733984   11.421253073
    0.336393990   10.603428988    9.499741996   11.425252767
    0.343572621   10.607065628    9.502819233   11.429343691
    0.350751252   10.610782497    9.505966012   11.433526197
    0.357929883   10.614579820    9.509182660   11.437800648
    0.365108514   10.618457827    9.512469519   11.442167419
    0.372287145   10.622416756    9.515826941   11.446626899
    0.379465776   10.626456848    9.519255293   11.451179489
    0.386644407   10.630578353    9.522754955   11.455825604
    0.393823038   10.634781524    9.526326321   11.460565672
    0.401001669   10.639066624    9.529969802   11.465400137
    0.408180301   10.643433918    9.533685822   11.470329458
    0.415358932   10.647883680    9.537474824   11.475354111
    0.422537563   10.652416191    9.541337267   11.480474586
    0.429716194   10.657031737    9.545273628   11.485691394
    0.436894825   10.661730612    9.549284406   11.491005063
    0.444073456   10.666513117    9.553370116   11.496416138
    0.451252087   10.671379559    9.557531299   11.501925188
    0.458430718   10.676330253    9.561768516   11.507532801
    0.465609349   10.681365521    9.566082353   11.513239588
    0.472787980   10.686485695    9.570473421   11.519046184
    0.479966611   10.691691111    9.574942360   11.524953250
    0.487145242   10.696982117    9.579489836   11.530961472
    0.494323873   10.702359066    9.584116548   11.537071566
    0.501502504   10.707822321    9.588823228   11.543284276
    0.508681135   10.713372255    9.593610643   11.549600380
    0.515859766   10.719009248    9.598479597   11.556020689
    0.523038397   10.724733692    9.603430934   11.562546053
    0.530217028   10.730545985    9.608465545   11.569177358
    0.537395659   10.736446540    9.613584364   11.575915534
    0.544574290   10.742435777    9.618788378   11.582761556
    0.551752922   10.748514128    9.624078628   11.589716449
    0.558931553   10.754682037    9.629456216   11.596781289
    0.566110184   10.760939961    9.634922305   11.603957211
    0.573288815   10.767288367    9.640478132   11.611245412
    0.580467446   10.773727739    9.646125010   11.618647156
    0.587646077   10.780258571    9.651864334   11.626163782
    0.594824708   10.786881376    9.657697593   11.633796709
    0.602003339   10.793596679    9.663626376   11.641547446
    0.609181970   10.800405026    9.669652384   11.649417599
    0.616360601   10.807306978    9.675777439   11.657408881
    0.623539232   10.814303115    9.682003503   11.665523127
    0.630717863   10.821394042    9.688332685   11.673762301
    0.637896494   10.828580381    9.694767267   11.682128518
    0.645075125   10.835862782    9.701309717   11.690624055
    0.652253756   10.843241920    9.707962715   11.699251376
    0.659432387   10.850718501    9.714729181   11.708013151
    0.666611018   10.858293260    9.721612300   11.716912287
    0.673789649   10.865966970    9.728615568   11.725951954
    0.680968280   10.873740443    9.735742823   11.735135628
    0.688146912   10.881614533    9.742998304   11.744467131
    0.695325543   10.889590146    9.750386705   11.753950681
    0.702504174   10.897668242    9.757913247   11.763590958
    0.709682805   10.905849844    9.765583759   11.773393173
    0.716861436   10.914136051    9.773404784   11.783363157
    0.724040067   10.922528042    9.781383697   11.793507471
    0.731218698   10.931027096    9.789528855   11.803833531
    0.738397329   10.939634603    9.797849782   11.814349774
    0.745575960   10.948352092    9.806357389   11.825065851
    0.752754591   10.957181246    9.815064262   11.835992877
    0.759933222   10.966123944    9.823985008   11.847143736
    0.767111853   10.975182294    9.833136708   11.858533479
    0.774290484   10.984358688    9.842539483   11.870179822
    0.781469115   10.993655866    9.852217234   11.882103794
    0.788647746   11.003077004    9.862198602   11.894330584
    0.795826377   11.012625826    9.872518240   11.906890655
    0.803005008   11.022306758    9.883218499   11.919821234
    0.810183639   11.032125128    9.894351721   11.933168322
    0.817362270   11.042087448    9.905983355   11.946989444
    0.824540902   11.052201801    9.918196285   11.961357454
    0.831719533   11.062478378    9.931096867   11.976365854
    0.838898164   11.072930239    9.944823441   11.992136289
    0.846076795   11.083574383    9.959558329   12.008829114
    0.853255426   11.094433232    9.975544471   12.026658055
    0.860434057   11.105536578    9.993107220   12.045909398
    0.867612688   11.116923665   10.012677708   12.066962581
    0.874791319   11.128643555   10.034796925   12.090293776
    0.881969950   11.140745792   10.060010971   12.116383556
    0.889148581   11.153229083   10.088295414   12.145209569
    0.896327212   11.165820558   10.116579348   12.174064436
    0.903505843   11.177160185   10.129597405   12.189493516
    0.910684474   11.183197302   10.081904523   12.151444305
    0.917863105   11.181949702    9.951255842   12.040310668
    0.925041736   11.184370010    9.860488434   11.964348464
    0.932220367   11.194450627    9.854369916   11.963009817
    0.939398998   11.207501084    9.880276416   11.989914340
    0.946577629   11.221101425    9.911050221   12.021124816
    0.953756260   11.234651712    9.939946599   12.050693683
    0.960934891   11.248077720    9.966116201   12.077868410
    0.968113523   11.261420559    9.990001760   12.103034412
    0.975292154   11.274735782   10.012206119   12.126717243
    0.982470785   11.288072153   10.033253566   12.149372012
    0.989649416   11.301469571   10.053565974   12.171362041
    0.996828047   11.314961106   10.073484804   12.192977817
    1.004006678   11.328575518   10.093298195   12.214460306
    1.011185309   11.342339533   10.113264967   12.236021310
    1.018363940   11.356279896   10.133635472   12.257860769
    1.025542571   11.370425387   10.154671176   12.280182509
    1.032721202   11.384809040   10.176665287   12.303210298
    1.039899833   11.399470844   10.199966922   12.327206155
    1.047078464   11.414461190   10.225011363   12.352492861
    1.054257095   11.429845255   10.252357936   12.379481841
    1.061435726   11.445707791   10.282731280   12.408703403
    1.068614357   11.462154925   10.317037257   12.440818492
    1.075792988   11.479298046   10.356227502   12.476520569
    1.082971619   11.497159297   10.400501371   12.515956633
    1.090150250   11.515258603   10.445816220   12.556195100
    1.097328881   11.531049059   10.470663635   12.581630425
    1.104507513   11.536363129   10.406032282   12.542187581
    1.111686144   11.524680545   10.196841803   12.397899743
    1.118864775   11.517824516   10.027595497   12.282646373
    1.126043406   11.528303337   10.004075444   12.273184834
    1.133222037   11.546174521   10.042315993   12.308587301
    1.140400668   11.565419594   10.091543610   12.352010302
    1.147579299   11.584460858   10.138553907   12.393870689
    1.154757930   11.603067036   10.181569359   12.432876149
    1.161936561   11.621309634   10.221435688   12.469636945
    1.169115192   11.639302114   10.259440523   12.505082857
    1.176293823   11.657143259   10.296860147   12.540134029
    1.183472454   11.674909907   10.334904141   12.575660662
    1.190651085   11.692660337   10.374639173   12.612428408
    1.197829716   11.710438853   10.416440622   12.650704804
    1.205008347   11.728279389   10.457485084   12.688459060
    1.212186978   11.746207455   10.482307002   12.714582018
    1.219365609   11.764240307   10.443202349   12.694816565
    1.226544240   11.782393346   10.311919655   12.608869570
    1.233722871   11.800694355   10.217826168   12.549609595
    1.240901503   11.819162188   10.216369787   12.556830607
    1.248080134   11.837803740   10.251127296   12.590003191
    1.255258765   11.856627568   10.291522787   12.627150098
    1.262437396   11.875644012   10.329881228   12.662729258
    1.269616027   11.894864020   10.365248075   12.696014710
    1.276794658   11.914299015   10.398162812   12.727341199
    1.283973289   11.933961186   10.429372211   12.757176128
    1.291151920   11.953863940   10.459563526   12.785922048
    1.298330551   11.974022523   10.489345985   12.813894986
    1.305509182   11.994454807   10.519288957   12.841340325
    1.312687813   12.015182272   10.549969983   12.868452638
    1.319866444   12.036230928   10.582016859   12.895392047
    1.327045075   12.057631006   10.616113016   12.922294872
    1.334223706   12.079410441   10.652841984   12.949272410
    1.341402337   12.101562139   10.691867782   12.976370699
    1.348580968   12.123907416   10.728496278   13.003383227
    1.355759599   12.145629303   10.741914904   13.029200061
    1.362938230   12.164759258   10.682256668   13.051090933
    1.370116861   12.181833695   10.562745357   13.069829030
    1.377295492   12.201917832   10.510694356   13.092527276
    1.384474124   12.225103602   10.528041485   13.119328454
    1.391652755   12.249482993   10.566272399   13.147571193
    1.398831386   12.274329034   10.606574610   13.176246767
    1.406010017   12.299503848   10.644908040   13.205170639
    1.413188648   12.325028574   10.681152043   13.234380726
    1.420367279   12.350961344   10.716014786   13.263966887
    1.427545910   12.377367620   10.750279398   13.294028066
    1.434724541   12.404307629   10.784534219   13.324645948
    1.441903172   12.431802478   10.818594965   13.355798380
    1.449081803   12.459698328   10.849246151   13.387014524
    1.456260434   12.487268217   10.863638427   13.416369060
    1.463439065   12.513346238   10.841479878   13.440815612
    1.470617696   12.539735314   10.811350136   13.464758641
    1.477796327   12.569198994   10.817435269   13.494992227
    1.484974958   12.600962869   10.845058094   13.529368588
    1.492153589   12.634167101   10.877665245   13.565475869
    1.499332220   12.668687721   10.910259918   13.602688770
    1.506510851   12.704701432   10.941997573   13.641050277
    1.513689482   12.742513056   10.973044240   13.680805590
    1.520868114   12.782529569   11.003758232   13.722293952
    1.528046745   12.825278083   11.034510437   13.765941543
    1.535225376   12.871428311   11.065661004   13.812275493
    1.542404007   12.921762362   11.097563088   13.861907418
    1.549582638   12.976883022   11.130528069   13.915343436
    1.556761269   13.035828368   11.164599964   13.972062214
    1.563939900   13.090547721   11.198603538   14.026818985
    1.571118531   13.110731624   11.227493183   14.059479722
    1.578297162   13.055629086   11.244368496   14.042928691
    1.585475793   12.999601903   11.262160858   14.027140186
    1.592654424   13.022883598   11.293379683   14.065486017
    1.599833055   13.065841327   11.320817396   14.115494600
    1.607011686   13.046513794   11.315180180   14.116476031
    1.614190317   12.981997894   11.287607040   14.083675922
    1.621368948   12.992676797   11.296522568   14.113535640
    1.628547579   13.069597726   11.337364873   14.198940060
    1.635726210   13.163510776   11.385983431   14.298505585
    1.642904841   13.235512368   11.423180165   14.370681595
    1.650083472   13.221419627   11.417750735   14.336565753
    1.657262104   13.120078866   11.370176548   14.195055406
    1.664440735   13.078160660   11.357469822   14.131501096
    1.671619366   13.061653773   11.384396429   14.110895521
    1.678797997   12.946246586   11.415748251   13.986736191
    1.685976628   12.838021421   11.449665589   13.871956462
    1.693155259   12.854053869   11.493472500   13.894713846
    1.700333890   12.929232695   11.542103135   13.983255670
    1.707512521   13.014177606   11.592313443   14.083411722
    1.714691152   13.095813088   11.643953677   14.181129950
    1.721869783   13.172785643   11.697934176   14.275375589
    1.729048414   13.246405538   11.755450482   14.368171976
    1.736227045   13.318263084   11.817424215   14.461974214
    1.743405676   13.389205725   11.882649103   14.558384123
    1.750584307   13.457036311   11.940502489   14.654749546
    1.757762938   13.509181597   11.950310840   14.731793353
    1.764941569   13.516749863   11.849550276   14.726298967
    1.772120200   13.487799383   11.707832156   14.566233160
    1.779298831   13.485865698   11.630756040   14.381311249
    1.786477462   13.520536962   11.610479649   14.343823890
    1.793656093   13.580293268   11.646779616   14.407749608
    1.800834725   13.648147777   11.710358363   14.501409537
    1.808013356   13.707461787   11.774863059   14.594771550
    1.815191987   13.753871715   11.832910763   14.681427876
    1.822370618   13.808529609   11.891015249   14.767894179
    1.829549249   13.870026681   11.948991474   14.856292557
    1.836727880   13.906587594   11.995663063   14.942019424
    1.843906511   13.902554032   12.025792716   15.023041017
    1.851085142   13.919179744   12.063915156   15.107549834
    1.858263773   13.974078901   12.114988045   15.183296996
    1.865442404   14.020522355   12.150813441   15.192075688
    1.872621035   14.028990901   12.141054346   15.086208634
    1.879799666   14.043352175   12.123720783   14.998483350
    1.886978297   14.088741330   12.147432941   15.018211809
    1.894156928   14.153737255   12.197610450   15.093729982
    1.901335559   14.236998103   12.261718536   15.193811714
    1.908514190   14.325687893   12.329400447   15.297968400
    1.915692821   14.396603695   12.388584915   15.382978716
    1.922871452   14.402372585   12.416643447   15.404583635
    1.930050083   14.344013592   12.414758057   15.364067739
    1.937228715   14.343520758   12.443207410   15.375826251
    1.944407346   14.410612379   12.509864174   15.448410160
    1.951585977   14.488354894   12.592076613   15.526799658
    1.958764608   14.543206239   12.678191797   15.576462047
    1.965943239   14.570476715   12.753779198   15.595486500
    1.973121870   14.612713817   12.772122602   15.643574550
    1.980300501   14.649711397   12.648003601   15.721882775
    1.987479132   14.663962559   12.460895586   15.806099896
    1.994657763   14.707145242   12.400511907   15.899703712
    2.001836394   14.795383088   12.446771845   16.004554720
    2.009015025   14.900385275   12.525490444   16.114048186
    2.016193656   14.995466591   12.609654984   16.218473352
    2.023372287   15.024830423   12.689815740   16.284246964
    2.030550918   14.955138599   12.762739538   16.290937313
    2.037729549   14.928528396   12.836109683   16.331733928
    2.044908180   15.005207150   12.913777694   16.442979223
    2.052086811   15.109636093   12.991144958   16.558138180
    2.059265442   15.170771368   13.059379684   16.571759406
    2.066444073   15.170514749   13.111256013   16.416858916
    2.073622705   15.180755772   13.140197564   16.294958288
    2.080801336   15.204471055   13.129754513   16.300478970
    2.087979967   15.227926605   13.089983151   16.362436045
    2.095158598   15.292330604   13.074740785   16.474311566
    2.102337229   15.408436236   13.123177793   16.633080795
    2.109515860   15.539396932   13.201614396   16.800129999
    2.116694491   15.642531818   13.283866156   16.917947671
    2.123873122   15.654658317   13.359145391   16.885505588
    2.131051753   15.574607838   13.426579066   16.687218520
    2.138230384   15.566181995   13.492974829   16.561905919
    2.145409015   15.663584707   13.557296586   16.555209569
    2.152587646   15.806146568   13.631039355   16.638156879
    2.159766277   15.961510353   13.718978722   16.793875629
    2.166944908   16.096703043   13.810861015   16.973122899
    2.174123539   16.138924826   13.887101666   17.147782869
    2.181302170   16.042081981   13.906005263   17.292237762
    2.188480801   15.977112440   13.838374760   17.379337462
    2.195659432   16.035505726   13.783073458   17.383324189
    2.202838063   16.149384971   13.819086127   17.318663020
    2.210016694   16.255641092   13.904837164   17.301229338
    2.217195326   16.270776372   14.001329207   17.262986551
    2.224373957   16.195846872   14.088906039   17.180027798
    2.231552588   16.147615228   14.169951620   17.154076726
    2.238731219   16.223818890   14.262885094   17.245969190
    2.245909850   16.358398730   14.362815210   17.391317201
    2.253088481   16.431048310   14.451404863   17.501135006
    2.260267112   16.400720962   14.520250477   17.554553348
    2.267445743   16.412301903   14.586056725   17.636731709
    2.274624374   16.489943663   14.640493743   17.756272685
    2.281803005   16.568188914   14.691405392   17.875010959
    2.288981636   16.664349109   14.775717421   17.998116834
    2.296160267   16.803865250   14.893888871   18.139529543
    2.303338898   16.953177664   15.013747803   18.278295213
    2.310517529   17.057416707   15.087644334   18.373090529
    2.317696160   17.072500495   15.079354231   18.411408668
    2.324874791   17.074209377   15.073786262   18.469112965
    2.332053422   17.160332436   15.159776334   18.586036269
    2.339232053   17.296943490   15.304793492   18.727771163
    2.346410684   17.445198918   15.469928488   18.873926544
    2.353589316   17.603002302   15.638541657   19.030432944
    2.360767947   17.756318250   15.782454915   19.177552557
    2.367946578   17.873749718   15.830687075   19.267001996
    2.375125209   17.961024432   15.771884460   19.306974954
    2.382303840   18.087678572   15.788113650   19.401713427
    2.389482471   18.247936835   15.933075864   19.555851415
    2.396661102   18.388247651   16.139694895   19.717552612
    2.403839733   18.498115665   16.360794791   19.870336954
    2.411018364   18.602036161   16.562912177   20.007300055
    2.418196995   18.660189627   16.702329973   20.075246002
    2.425375626   18.688969087   16.756717943   20.084183344
    2.432554257   18.758641327   16.830146938   20.124403939
    2.439732888   18.894544863   16.974854711   20.261410330
    2.446911519   18.995178511   17.099627328   20.398146601
    2.454090150   18.960155173   17.206695770   20.412540090
    2.461268781   18.911317132   17.359394163   20.406102747
    2.468447412   19.034416229   17.615597530   20.535237602
    2.475626043   19.259067275   17.893763269   20.717091623
    2.482804674   19.498199435   18.102089287   20.903645163
    2.489983306   19.691736232   18.033180890   21.056841132
    2.497161937   19.816298345   17.597759759   21.141383212
    2.504340568   19.938435220   17.241684641   21.245818228
    2.511519199   19.964027469   16.897431511   21.293212366
    2.518697830   19.856238536   16.477509303   21.214740961
    2.525876461   19.812732455   16.380817115   21.208339022
    2.533055092   19.926770755   16.655297979   21.331972839
    2.540233723   20.136568731   17.113162629   21.513071032
