# energy grid [eV]     ieps_x  ieps_y  ieps_z
#
    0.200000000    7.433356254    6.659748087    8.200136954
    0.207178631    7.431884749    6.658466386    8.198499349
    0.214357262    7.430362122    6.657140124    8.196804815
    0.221535893    7.428788449    6.655769365    8.195053437
    0.228714524    7.427163814    6.654354176    8.193245300
    0.235893155    7.425488298    6.652894628    8.191380496
    0.243071786    7.423761990    6.651390791    8.189459115
    0.250250417    7.421984977    6.649842738    8.187481253
    0.257429048    7.420157350    6.648250547    8.185447007
    0.264607679    7.418279205    6.646614294    8.183356478
    0.271786311    7.416350636    6.644934060    8.181209769
    0.278964942    7.414371743    6.643209925    8.179006984
    0.286143573    7.412342627    6.641441975    8.176748233
    0.293322204    7.410263392    6.639630296    8.174433626
    0.300500835    7.408134143    6.637774975    8.172063278
    0.307679466    7.405954990    6.635876102    8.169637303
    0.314858097    7.403726043    6.633933770    8.167155820
    0.322036728    7.401447416    6.631948073    8.164618952
    0.329215359    7.399119224    6.629919106    8.162026822
    0.336393990    7.396741586    6.627846969    8.159379556
    0.343572621    7.394314621    6.625731760    8.156677283
    0.350751252    7.391838454    6.623573583    8.153920135
    0.357929883    7.389313208    6.621372540    8.151108245
    0.365108514    7.386739012    6.619128738    8.148241751
    0.372287145    7.384115994    6.616842285    8.145320791
    0.379465776    7.381444287    6.614513291    8.142345506
    0.386644407    7.378724025    6.612141866    8.139316041
    0.393823038    7.375955345    6.609728124    8.136232541
    0.401001669    7.373138385    6.607272182    8.133095155
    0.408180301    7.370273285    6.604774155    8.129904034
    0.415358932    7.367360189    6.602234163    8.126659331
    0.422537563    7.364399242    6.599652327    8.123361203
    0.429716194    7.361390592    6.597028770    8.120009807
    0.436894825    7.358334387    6.594363615    8.116605303
    0.444073456    7.355230778    6.591656990    8.113147854
    0.451252087    7.352079921    6.588909021    8.109637625
    0.458430718    7.348881969    6.586119840    8.106074783
    0.465609349    7.345637082    6.583289576    8.102459498
    0.472787980    7.342345418    6.580418364    8.098791940
    0.479966611    7.339007139    6.577506338    8.095072284
    0.487145242    7.335622409    6.574553635    8.091300706
    0.494323873    7.332191393    6.571560393    8.087477383
    0.501502504    7.328714259    6.568526752    8.083602496
    0.508681135    7.325191177    6.565452854    8.079676227
    0.515859766    7.321622317    6.562338841    8.075698760
    0.523038397    7.318007853    6.559184858    8.071670282
    0.530217028    7.314347960    6.555991052    8.067590981
    0.537395659    7.310642814    6.552757571    8.063461047
    0.544574290    7.306892595    6.549484563    8.059280674
    0.551752922    7.303097483    6.546172180    8.055050055
    0.558931553    7.299257660    6.542820575    8.050769386
    0.566110184    7.295373311    6.539429901    8.046438867
    0.573288815    7.291444620    6.536000314    8.042058697
    0.580467446    7.287471775    6.532531970    8.037629078
    0.587646077    7.283454965    6.529025029    8.033150214
    0.594824708    7.279394381    6.525479650    8.028622311
    0.602003339    7.275290215    6.521895994    8.024045576
    0.609181970    7.271142661    6.518274223    8.019420219
    0.616360601    7.266951915    6.514614503    8.014746450
    0.623539232    7.262718173    6.510916997    8.010024484
    0.630717863    7.258441634    6.507181874    8.005254533
    0.637896494    7.254122499    6.503409300    8.000436815
    0.645075125    7.249760968    6.499599445    7.995571547
    0.652253756    7.245357245    6.495752480    7.990658949
    0.659432387    7.240911534    6.491868577    7.985699242
    0.666611018    7.236424042    6.487947908    7.980692649
    0.673789649    7.231894974    6.483990649    7.975639393
    0.680968280    7.227324541    6.479996974    7.970539702
    0.688146912    7.222712952    6.475967060    7.965393801
    0.695325543    7.218060418    6.471901085    7.960201921
    0.702504174    7.213367152    6.467799228    7.954964291
    0.709682805    7.208633367    6.463661670    7.949681144
    0.716861436    7.203859280    6.459488592    7.944352712
    0.724040067    7.199045105    6.455280175    7.938979230
    0.731218698    7.194191061    6.451036604    7.933560934
    0.738397329    7.189297366    6.446758063    7.928098062
    0.745575960    7.184364241    6.442444738    7.922590851
    0.752754591    7.179391905    6.438096815    7.917039543
    0.759933222    7.174380582    6.433714481    7.911444378
    0.767111853    7.169330494    6.429297926    7.905805598
    0.774290484    7.164241866    6.424847339    7.900123448
    0.781469115    7.159114922    6.420362910    7.894398172
    0.788647746    7.153949890    6.415844830    7.888630016
    0.795826377    7.148746995    6.411293293    7.882819228
    0.803005008    7.143506467    6.406708490    7.876966056
    0.810183639    7.138228534    6.402090616    7.871070749
    0.817362270    7.132913427    6.397439867    7.865133557
    0.824540902    7.127561376    6.392756436    7.859154733
    0.831719533    7.122172613    6.388040522    7.853134529
    0.838898164    7.116747371    6.383292322    7.847073198
    0.846076795    7.111285883    6.378512032    7.840970995
    0.853255426    7.105788384    6.373699853    7.834828176
    0.860434057    7.100255108    6.368855984    7.828644996
    0.867612688    7.094686290    6.363980625    7.822421714
    0.874791319    7.089082168    6.359073976    7.816158586
    0.881969950    7.083442979    6.354136240    7.809855873
    0.889148581    7.077768960    6.349167618    7.803513834
    0.896327212    7.072060349    6.344168315    7.797132730
    0.903505843    7.066317387    6.339138532    7.790712822
    0.910684474    7.060540312    6.334078474    7.784254373
    0.917863105    7.054729365    6.328988346    7.777757644
    0.925041736    7.048884786    6.323868354    7.771222901
    0.932220367    7.043006818    6.318718701    7.764650406
    0.939398998    7.037095701    6.313539596    7.758040425
    0.946577629    7.031151678    6.308331245    7.751393224
    0.953756260    7.025174992    6.303093855    7.744709069
    0.960934891    7.019165886    6.297827634    7.737988226
    0.968113523    7.013124604    6.292532789    7.731230962
    0.975292154    7.007051390    6.287209531    7.724437547
    0.982470785    7.000946489    6.281858066    7.717608246
    0.989649416    6.994810144    6.276478606    7.710743331
    0.996828047    6.988642602    6.271071359    7.703843069
    1.004006678    6.982444108    6.265636537    7.696907731
    1.011185309    6.976214907    6.260174348    7.689937587
    1.018363940    6.969955245    6.254685004    7.682932906
    1.025542571    6.963665370    6.249168717    7.675893961
    1.032721202    6.957345526    6.243625697    7.668821022
    1.039899833    6.950995962    6.238056156    7.661714361
    1.047078464    6.944616923    6.232460306    7.654574250
    1.054257095    6.938208657    6.226838359    7.647400960
    1.061435726    6.931771411    6.221190528    7.640194765
    1.068614357    6.925305432    6.215517024    7.632955936
    1.075792988    6.918810968    6.209818060    7.625684747
    1.082971619    6.912288266    6.204093850    7.618381470
    1.090150250    6.905737574    6.198344607    7.611046379
    1.097328881    6.899159139    6.192570542    7.603679747
    1.104507513    6.892553209    6.186771871    7.596281848
    1.111686144    6.885920031    6.180948805    7.588852954
    1.118864775    6.879259854    6.175101558    7.581393341
    1.126043406    6.872572924    6.169230344    7.573903280
    1.133222037    6.865859489    6.163335377    7.566383047
    1.140400668    6.859119796    6.157416869    7.558832914
    1.147579299    6.852354094    6.151475034    7.551253156
    1.154757930    6.845562628    6.145510086    7.543644046
    1.161936561    6.838745647    6.139522239    7.536005858
    1.169115192    6.831903396    6.133511705    7.528338865
    1.176293823    6.825036124    6.127478698    7.520643341
    1.183472454    6.818144076    6.121423432    7.512919560
    1.190651085    6.811227499    6.115346119    7.505167794
    1.197829716    6.804286638    6.109246973    7.497388316
    1.205008347    6.797321741    6.103126208    7.489581401
    1.212186978    6.790333052    6.096984034    7.481747319
    1.219365609    6.783320817    6.090820667    7.473886345
    1.226544240    6.776285281    6.084636318    7.465998750
    1.233722871    6.769226689    6.078431199    7.458084807
    1.240901503    6.762145286    6.072205523    7.450144787
    1.248080134    6.755041315    6.065959503    7.442178962
    1.255258765    6.747915021    6.059693349    7.434187603
    1.262437396    6.740766646    6.053407273    7.426170982
    1.269616027    6.733596434    6.047101487    7.418129368
    1.276794658    6.726404627    6.040776202    7.410063032
    1.283973289    6.719191469    6.034431629    7.401972244
    1.291151920    6.711957199    6.028067978    7.393857274
    1.298330551    6.704702061    6.021685459    7.385718391
    1.305509182    6.697426295    6.015284283    7.377555863
    1.312687813    6.690130140    6.008864659    7.369369959
    1.319866444    6.682813838    6.002426796    7.361160946
    1.327045075    6.675477627    5.995970903    7.352929093
    1.334223706    6.668121747    5.989497189    7.344674665
    1.341402337    6.660746436    5.983005863    7.336397929
    1.348580968    6.653351931    5.976497131    7.328099152
    1.355759599    6.645938471    5.969971201    7.319778598
    1.362938230    6.638506291    5.963428280    7.311436532
    1.370116861    6.631055628    5.956868576    7.303073219
    1.377295492    6.623586717    5.950292293    7.294688922
    1.384474124    6.616099794    5.943699637    7.286283904
    1.391652755    6.608595092    5.937090815    7.277858428
    1.398831386    6.601072846    5.930466030    7.269412756
    1.406010017    6.593533287    5.923825487    7.260947148
    1.413188648    6.585976650    5.917169390    7.252461866
    1.420367279    6.578403164    5.910497941    7.243957168
    1.427545910    6.570813062    5.903811345    7.235433316
    1.434724541    6.563206574    5.897109802    7.226890566
    1.441903172    6.555583929    5.890393515    7.218329177
    1.449081803    6.547945356    5.883662685    7.209749407
    1.456260434    6.540291083    5.876917512    7.201151510
    1.463439065    6.532621338    5.870158197    7.192535744
    1.470617696    6.524936348    5.863384939    7.183902363
    1.477796327    6.517236337    5.856597936    7.175251620
    1.484974958    6.509521533    5.849797388    7.166583771
    1.492153589    6.501792158    5.842983492    7.157899066
    1.499332220    6.494048437    5.836156445    7.149197758
    1.506510851    6.486290592    5.829316443    7.140480098
    1.513689482    6.478518846    5.822463683    7.131746335
    1.520868114    6.470733419    5.815598359    7.122996720
    1.528046745    6.462934532    5.808720666    7.114231501
    1.535225376    6.455122404    5.801830798    7.105450925
    1.542404007    6.447297255    5.794928948    7.096655238
    1.549582638    6.439459301    5.788015309    7.087844688
    1.556761269    6.431608761    5.781090073    7.079019519
    1.563939900    6.423745849    5.774153430    7.070179974
    1.571118531    6.415870782    5.767205572    7.061326297
    1.578297162    6.407983773    5.760246688    7.052458731
    1.585475793    6.400085037    5.753276966    7.043577516
    1.592654424    6.392174785    5.746296597    7.034682894
    1.599833055    6.384253230    5.739305766    7.025775102
    1.607011686    6.376320582    5.732304662    7.016854381
    1.614190317    6.368377051    5.725293470    7.007920967
    1.621368948    6.360422846    5.718272375    6.998975097
    1.628547579    6.352458174    5.711241563    6.990017007
    1.635726210    6.344483244    5.704201216    6.981046931
    1.642904841    6.336498261    5.697151520    6.972065103
    1.650083472    6.328503430    5.690092654    6.963071755
    1.657262104    6.320498956    5.683024803    6.954067118
    1.664440735    6.312485042    5.675948145    6.945051425
    1.671619366    6.304461889    5.668862861    6.936024903
    1.678797997    6.296429700    5.661769131    6.926987782
    1.685976628    6.288388675    5.654667132    6.917940289
    1.693155259    6.280339013    5.647557043    6.908882651
    1.700333890    6.272280912    5.640439040    6.899815092
    1.707512521    6.264214570    5.633313299    6.890737837
    1.714691152    6.256140183    5.626179995    6.881651109
    1.721869783    6.248057947    5.619039303    6.872555132
    1.729048414    6.239968056    5.611891397    6.863450124
    1.736227045    6.231870703    5.604736447    6.854336308
    1.743405676    6.223766082    5.597574628    6.845213900
    1.750584307    6.215654382    5.590406109    6.836083121
    1.757762938    6.207535794    5.583231061    6.826944185
    1.764941569    6.199410508    5.576049653    6.817797309
    1.772120200    6.191278713    5.568862054    6.808642707
    1.779298831    6.183140594    5.561668430    6.799480593
    1.786477462    6.174996339    5.554468949    6.790311179
    1.793656093    6.166846133    5.547263777    6.781134676
    1.800834725    6.158690159    5.540053079    6.771951294
    1.808013356    6.150528601    5.532837018    6.762761242
    1.815191987    6.142361641    5.525615757    6.753564729
    1.822370618    6.134189460    5.518389460    6.744361959
    1.829549249    6.126012238    5.511158288    6.735153140
    1.836727880    6.117830153    5.503922400    6.725938474
    1.843906511    6.109643384    5.496681958    6.716718167
    1.851085142    6.101452107    5.489437119    6.707492419
    1.858263773    6.093256499    5.482188042    6.698261431
    1.865442404    6.085056733    5.474934883    6.689025404
    1.872621035    6.076852983    5.467677798    6.679784535
    1.879799666    6.068645423    5.460416943    6.670539023
    1.886978297    6.060434222    5.453152473    6.661289062
    1.894156928    6.052219553    5.445884539    6.652034850
    1.901335559    6.044001583    5.438613296    6.642776579
    1.908514190    6.035780482    5.431338894    6.633514442
    1.915692821    6.027556417    5.424061483    6.624248630
    1.922871452    6.019329553    5.416781215    6.614979335
    1.930050083    6.011100056    5.409498237    6.605706745
    1.937228715    6.002868090    5.402212698    6.596431048
    1.944407346    5.994633818    5.394924744    6.587152431
    1.951585977    5.986397401    5.387634521    6.577871080
    1.958764608    5.978159000    5.380342176    6.568587179
    1.965943239    5.969918776    5.373047851    6.559300912
    1.973121870    5.961676886    5.365751690    6.550012460
    1.980300501    5.953433488    5.358453836    6.540722005
    1.987479132    5.945188740    5.351154429    6.531429726
    1.994657763    5.936942795    5.343853612    6.522135802
    2.001836394    5.928695809    5.336551522    6.512840410
    2.009015025    5.920447935    5.329248299    6.503543726
    2.016193656    5.912199325    5.321944081    6.494245926
    2.023372287    5.903950129    5.314639004    6.484947183
    2.030550918    5.895700499    5.307333205    6.475647669
    2.037729549    5.887450584    5.300026818    6.466347556
    2.044908180    5.879200530    5.292719977    6.457047015
    2.052086811    5.870950486    5.285412816    6.447746214
    2.059265442    5.862700596    5.278105466    6.438445321
    2.066444073    5.854451006    5.270798060    6.429144503
    2.073622705    5.846201859    5.263490727    6.419843925
    2.080801336    5.837953298    5.256183597    6.410543752
    2.087979967    5.829705464    5.248876798    6.401244146
    2.095158598    5.821458498    5.241570458    6.391945270
    2.102337229    5.813212539    5.234264703    6.382647283
    2.109515860    5.804967726    5.226959660    6.373350347
    2.116694491    5.796724196    5.219655454    6.364054619
    2.123873122    5.788482086    5.212352207    6.354760256
    2.131051753    5.780241530    5.205050043    6.345467415
    2.138230384    5.772002662    5.197749085    6.336176249
    2.145409015    5.763765616    5.190449452    6.326886914
    2.152587646    5.755530525    5.183151267    6.317599560
    2.159766277    5.747297518    5.175854647    6.308314340
    2.166944908    5.739066726    5.168559712    6.299031404
    2.174123539    5.730838278    5.161266578    6.289750901
    2.181302170    5.722612302    5.153975363    6.280472977
    2.188480801    5.714388924    5.146686182    6.271197781
    2.195659432    5.706168271    5.139399149    6.261925458
    2.202838063    5.697950468    5.132114380    6.252656151
    2.210016694    5.689735637    5.124831986    6.243390004
    2.217195326    5.681523903    5.117552080    6.234127160
    2.224373957    5.673315387    5.110274773    6.224867758
    2.231552588    5.665110209    5.103000176    6.215611939
    2.238731219    5.656908489    5.095728396    6.206359840
    2.245909850    5.648710346    5.088459544    6.197111600
    2.253088481    5.640515898    5.081193727    6.187867355
    2.260267112    5.632325262    5.073931051    6.178627240
    2.267445743    5.624138552    5.066671622    6.169391388
    2.274624374    5.615955884    5.059415546    6.160159934
    2.281803005    5.607777372    5.052162925    6.150933007
    2.288981636    5.599603128    5.044913864    6.141710740
    2.296160267    5.591433265    5.037668465    6.132493261
    2.303338898    5.583267891    5.030426828    6.123280699
    2.310517529    5.575107119    5.023189055    6.114073180
    2.317696160    5.566951055    5.015955246    6.104870832
    2.324874791    5.558799809    5.008725498    6.095673779
    2.332053422    5.550653487    5.001499910    6.086482145
    2.339232053    5.542512194    4.994278580    6.077296053
    2.346410684    5.534376036    4.987061602    6.068115624
    2.353589316    5.526245116    4.979849073    6.058940979
    2.360767947    5.518119538    4.972641087    6.049772238
    2.367946578    5.509999404    4.965437738    6.040609519
    2.375125209    5.501884814    4.958239118    6.031452939
    2.382303840    5.493775869    4.951045319    6.022302615
    2.389482471    5.485672667    4.943856433    6.013158661
    2.396661102    5.477575308    4.936672550    6.004021192
    2.403839733    5.469483888    4.929493758    5.994890321
    2.411018364    5.461398504    4.922320148    5.985766159
    2.418196995    5.453319252    4.915151806    5.976648818
    2.425375626    5.445246224    4.907988819    5.967538407
    2.432554257    5.437179516    4.900831274    5.958435036
    2.439732888    5.429119220    4.893679255    5.949338812
    2.446911519    5.421065428    4.886532848    5.940249841
    2.454090150    5.413018230    4.879392135    5.931168229
    2.461268781    5.404977717    4.872257200    5.922094081
    2.468447412    5.396943977    4.865128125    5.913027500
    2.475626043    5.388917098    4.858004991    5.903968590
    2.482804674    5.380897169    4.850887877    5.894917450
    2.489983306    5.372884275    4.843776865    5.885874183
    2.497161937    5.364878501    4.836672032    5.876838886
    2.504340568    5.356879933    4.829573456    5.867811660
    2.511519199    5.348888653    4.822481216    5.858792601
    2.518697830    5.340904746    4.815395387    5.849781805
    2.525876461    5.332928292    4.808316044    5.840779369
    2.533055092    5.324959373    4.801243264    5.831785386
    2.540233723    5.316998069    4.794177119    5.822799950
