# energy grid [eV]     ieps_x  ieps_y  ieps_z
#
    0.200000000    8.444945346    7.297368717    5.778920890
    0.207178631    8.443205163    7.295927182    5.777920035
    0.214357262    8.441404519    7.294435552    5.776884349
    0.221535893    8.439543506    7.292893904    5.775813881
    0.228714524    8.437622221    7.291302314    5.774708680
    0.235893155    8.435640761    7.289660863    5.773568796
    0.243071786    8.433599229    7.287969635    5.772394281
    0.250250417    8.431497729    7.286228716    5.771185189
    0.257429048    8.429336369    7.284438193    5.769941576
    0.264607679    8.427115259    7.282598156    5.768663498
    0.271786311    8.424834514    7.280708698    5.767351013
    0.278964942    8.422494248    7.278769915    5.766004181
    0.286143573    8.420094582    7.276781904    5.764623064
    0.293322204    8.417635638    7.274744765    5.763207724
    0.300500835    8.415117541    7.272658600    5.761758226
    0.307679466    8.412540419    7.270523514    5.760274635
    0.314858097    8.409904402    7.268339613    5.758757019
    0.322036728    8.407209626    7.266107008    5.757205447
    0.329215359    8.404456225    7.263825809    5.755619988
    0.336393990    8.401644339    7.261496130    5.754000715
    0.343572621    8.398774111    7.259118088    5.752347700
    0.350751252    8.395845684    7.256691800    5.750661018
    0.357929883    8.392859207    7.254217388    5.748940745
    0.365108514    8.389814830    7.251694974    5.747186958
    0.372287145    8.386712706    7.249124684    5.745399736
    0.379465776    8.383552990    7.246506644    5.743579160
    0.386644407    8.380335841    7.243840983    5.741725311
    0.393823038    8.377061419    7.241127835    5.739838272
    0.401001669    8.373729889    7.238367331    5.737918127
    0.408180301    8.370341415    7.235559608    5.735964962
    0.415358932    8.366896168    7.232704804    5.733978863
    0.422537563    8.363394318    7.229803059    5.731959921
    0.429716194    8.359836039    7.226854515    5.729908223
    0.436894825    8.356221508    7.223859316    5.727823862
    0.444073456    8.352550903    7.220817609    5.725706929
    0.451252087    8.348824405    7.217729541    5.723557518
    0.458430718    8.345042198    7.214595263    5.721375725
    0.465609349    8.341204468    7.211414927    5.719161645
    0.472787980    8.337311404    7.208188687    5.716915376
    0.479966611    8.333363197    7.204916699    5.714637017
    0.487145242    8.329360040    7.201599121    5.712326667
    0.494323873    8.325302129    7.198236114    5.709984428
    0.501502504    8.321189660    7.194827838    5.707610403
    0.508681135    8.317022835    7.191374458    5.705204695
    0.515859766    8.312801856    7.187876139    5.702767409
    0.523038397    8.308526928    7.184333049    5.700298652
    0.530217028    8.304198257    7.180745357    5.697798529
    0.537395659    8.299816052    7.177113232    5.695267151
    0.544574290    8.295380525    7.173436850    5.692704626
    0.551752922    8.290891888    7.169716383    5.690111065
    0.558931553    8.286350357    7.165952008    5.687486580
    0.566110184    8.281756150    7.162143902    5.684831284
    0.573288815    8.277109486    7.158292246    5.682145291
    0.580467446    8.272410587    7.154397221    5.679428716
    0.587646077    8.267659676    7.150459009    5.676681676
    0.594824708    8.262856978    7.146477794    5.673904288
    0.602003339    8.258002721    7.142453764    5.671096671
    0.609181970    8.253097135    7.138387105    5.668258942
    0.616360601    8.248140450    7.134278006    5.665391225
    0.623539232    8.243132899    7.130126659    5.662493638
    0.630717863    8.238074718    7.125933255    5.659566306
    0.637896494    8.232966144    7.121697989    5.656609352
    0.645075125    8.227807414    7.117421055    5.653622900
    0.652253756    8.222598769    7.113102650    5.650607075
    0.659432387    8.217340451    7.108742972    5.647562005
    0.666611018    8.212032703    7.104342221    5.644487816
    0.673789649    8.206675772    7.099900596    5.641384636
    0.680968280    8.201269903    7.095418301    5.638252595
    0.688146912    8.195815346    7.090895539    5.635091823
    0.695325543    8.190312351    7.086332514    5.631902451
    0.702504174    8.184761170    7.081729433    5.628684611
    0.709682805    8.179162055    7.077086502    5.625438435
    0.716861436    8.173515261    7.072403931    5.622164057
    0.724040067    8.167821046    7.067681930    5.618861611
    0.731218698    8.162079665    7.062920708    5.615531233
    0.738397329    8.156291380    7.058120478    5.612173059
    0.745575960    8.150456449    7.053281454    5.608787225
    0.752754591    8.144575135    7.048403850    5.605373869
    0.759933222    8.138647702    7.043487881    5.601933129
    0.767111853    8.132674413    7.038533764    5.598465145
    0.774290484    8.126655534    7.033541716    5.594970057
    0.781469115    8.120591333    7.028511957    5.591448004
    0.788647746    8.114482077    7.023444705    5.587899129
    0.795826377    8.108328036    7.018340182    5.584323574
    0.803005008    8.102129481    7.013198608    5.580721480
    0.810183639    8.095886683    7.008020207    5.577092992
    0.817362270    8.089599916    7.002805202    5.573438253
    0.824540902    8.083269452    6.997553818    5.569757409
    0.831719533    8.076895567    6.992266279    5.566050604
    0.838898164    8.070478538    6.986942811    5.562317984
    0.846076795    8.064018640    6.981583642    5.558559696
    0.853255426    8.057516153    6.976188999    5.554775888
    0.860434057    8.050971354    6.970759110    5.550966706
    0.867612688    8.044384524    6.965294206    5.547132299
    0.874791319    8.037755943    6.959794515    5.543272816
    0.881969950    8.031085893    6.954260268    5.539388406
    0.889148581    8.024374656    6.948691698    5.535479219
    0.896327212    8.017622516    6.943089035    5.531545406
    0.903505843    8.010829756    6.937452512    5.527587118
    0.910684474    8.003996661    6.931782364    5.523604505
    0.917863105    7.997123516    6.926078823    5.519597719
    0.925041736    7.990210608    6.920342124    5.515566914
    0.932220367    7.983258223    6.914572503    5.511512241
    0.939398998    7.976266648    6.908770194    5.507433854
    0.946577629    7.969236173    6.902935434    5.503331907
    0.953756260    7.962167084    6.897068459    5.499206553
    0.960934891    7.955059672    6.891169506    5.495057946
    0.968113523    7.947914226    6.885238814    5.490886243
    0.975292154    7.940731036    6.879276619    5.486691597
    0.982470785    7.933510393    6.873283161    5.482474164
    0.989649416    7.926252588    6.867258677    5.478234100
    0.996828047    7.918957913    6.861203407    5.473971562
    1.004006678    7.911626659    6.855117591    5.469686705
    1.011185309    7.904259119    6.849001467    5.465379686
    1.018363940    7.896855586    6.842855276    5.461050663
    1.025542571    7.889416352    6.836679259    5.456699792
    1.032721202    7.881941711    6.830473656    5.452327232
    1.039899833    7.874431956    6.824238707    5.447933140
    1.047078464    7.866887381    6.817974654    5.443517674
    1.054257095    7.859308280    6.811681738    5.439080992
    1.061435726    7.851694948    6.805360200    5.434623253
    1.068614357    7.844047679    6.799010282    5.430144616
    1.075792988    7.836366767    6.792632225    5.425645240
    1.082971619    7.828652507    6.786226272    5.421125283
    1.090150250    7.820905194    6.779792664    5.416584905
    1.097328881    7.813125123    6.773331643    5.412024265
    1.104507513    7.805312588    6.766843452    5.407443522
    1.111686144    7.797467885    6.760328332    5.402842837
    1.118864775    7.789591309    6.753786525    5.398222369
    1.126043406    7.781683154    6.747218274    5.393582277
    1.133222037    7.773743715    6.740623820    5.388922722
    1.140400668    7.765773288    6.734003407    5.384243864
    1.147579299    7.757772167    6.727357275    5.379545863
    1.154757930    7.749740646    6.720685666    5.374828879
    1.161936561    7.741679021    6.713988823    5.370093071
    1.169115192    7.733587585    6.707266988    5.365338601
    1.176293823    7.725466633    6.700520401    5.360565629
    1.183472454    7.717316459    6.693749304    5.355774314
    1.190651085    7.709137357    6.686953939    5.350964817
    1.197829716    7.700929619    6.680134547    5.346137299
    1.205008347    7.692693541    6.673291369    5.341291918
    1.212186978    7.684429413    6.666424645    5.336428837
    1.219365609    7.676137530    6.659534616    5.331548213
    1.226544240    7.667818184    6.652621522    5.326650209
    1.233722871    7.659471667    6.645685603    5.321734983
    1.240901503    7.651098270    6.638727100    5.316802695
    1.248080134    7.642698285    6.631746251    5.311853506
    1.255258765    7.634272003    6.624743295    5.306887575
    1.262437396    7.625819715    6.617718472    5.301905062
    1.269616027    7.617341709    6.610672019    5.296906126
    1.276794658    7.608838277    6.603604175    5.291890926
    1.283973289    7.600309708    6.596515178    5.286859622
    1.291151920    7.591756289    6.589405265    5.281812372
    1.298330551    7.583178310    6.582274673    5.276749337
    1.305509182    7.574576057    6.575123638    5.271670673
    1.312687813    7.565949818    6.567952397    5.266576541
    1.319866444    7.557299880    6.560761185    5.261467098
    1.327045075    7.548626529    6.553550238    5.256342503
    1.334223706    7.539930049    6.546319790    5.251202913
    1.341402337    7.531210726    6.539070075    5.246048486
    1.348580968    7.522468844    6.531801327    5.240879380
    1.355759599    7.513704685    6.524513780    5.235695752
    1.362938230    7.504918534    6.517207666    5.230497760
    1.370116861    7.496110673    6.509883218    5.225285559
    1.377295492    7.487281381    6.502540666    5.220059306
    1.384474124    7.478430942    6.495180242    5.214819158
    1.391652755    7.469559633    6.487802177    5.209565271
    1.398831386    7.460667736    6.480406700    5.204297800
    1.406010017    7.451755527    6.472994040    5.199016901
    1.413188648    7.442823286    6.465564427    5.193722729
    1.420367279    7.433871288    6.458118089    5.188415439
    1.427545910    7.424899811    6.450655252    5.183095184
    1.434724541    7.415909129    6.443176144    5.177762120
    1.441903172    7.406899517    6.435680990    5.172416400
    1.449081803    7.397871249    6.428170017    5.167058177
    1.456260434    7.388824597    6.420643448    5.161687605
    1.463439065    7.379759834    6.413101508    5.156304837
    1.470617696    7.370677231    6.405544421    5.150910024
    1.477796327    7.361577057    6.397972408    5.145503319
    1.484974958    7.352459583    6.390385692    5.140084873
    1.492153589    7.343325076    6.382784495    5.134654838
    1.499332220    7.334173805    6.375169035    5.129213364
    1.506510851    7.325006034    6.367539534    5.123760603
    1.513689482    7.315822031    6.359896210    5.118296703
    1.520868114    7.306622060    6.352239281    5.112821815
    1.528046745    7.297406384    6.344568965    5.107336088
    1.535225376    7.288175266    6.336885478    5.101839670
    1.542404007    7.278928968    6.329189036    5.096332710
    1.549582638    7.269667750    6.321479854    5.090815356
    1.556761269    7.260391873    6.313758146    5.085287755
    1.563939900    7.251101594    6.306024126    5.079750054
    1.571118531    7.241797171    6.298278005    5.074202400
    1.578297162    7.232478861    6.290519996    5.068644939
    1.585475793    7.223146919    6.282750309    5.063077817
    1.592654424    7.213801599    6.274969155    5.057501178
    1.599833055    7.204443156    6.267176743    5.051915167
    1.607011686    7.195071841    6.259373279    5.046319928
    1.614190317    7.185687905    6.251558974    5.040715605
    1.621368948    7.176291599    6.243734031    5.035102342
    1.628547579    7.166883172    6.235898658    5.029480280
    1.635726210    7.157462870    6.228053058    5.023849562
    1.642904841    7.148030942    6.220197436    5.018210330
    1.650083472    7.138587633    6.212331994    5.012562724
    1.657262104    7.129133186    6.204456934    5.006906885
    1.664440735    7.119667846    6.196572458    5.001242954
    1.671619366    7.110191855    6.188678765    4.995571069
    1.678797997    7.100705453    6.180776055    4.989891370
    1.685976628    7.091208881    6.172864525    4.984203995
    1.693155259    7.081702377    6.164944373    4.978509082
    1.700333890    7.072186178    6.157015796    4.972806769
    1.707512521    7.062660522    6.149078988    4.967097191
    1.714691152    7.053125642    6.141134145    4.961380486
    1.721869783    7.043581774    6.133181458    4.955656789
    1.729048414    7.034029149    6.125221122    4.949926235
    1.736227045    7.024467999    6.117253327    4.944188958
    1.743405676    7.014898555    6.109278264    4.938445093
    1.750584307    7.005321046    6.101296122    4.932694773
    1.757762938    6.995735699    6.093307090    4.926938130
    1.764941569    6.986142741    6.085311356    4.921175297
    1.772120200    6.976542397    6.077309106    4.915406405
    1.779298831    6.966934893    6.069300525    4.909631585
    1.786477462    6.957320449    6.061285798    4.903850969
    1.793656093    6.947699289    6.053265109    4.898064684
    1.800834725    6.938071633    6.045238640    4.892272862
    1.808013356    6.928437700    6.037206572    4.886475629
    1.815191987    6.918797708    6.029169087    4.880673115
    1.822370618    6.909151873    6.021126363    4.874865446
    1.829549249    6.899500411    6.013078579    4.869052750
    1.836727880    6.889843536    6.005025913    4.863235152
    1.843906511    6.880181461    5.996968540    4.857412778
    1.851085142    6.870514398    5.988906637    4.851585752
    1.858263773    6.860842556    5.980840377    4.845754200
    1.865442404    6.851166146    5.972769934    4.839918245
    1.872621035    6.841485374    5.964695480    4.834078009
    1.879799666    6.831800448    5.956617186    4.828233615
    1.886978297    6.822111572    5.948535223    4.822385185
    1.894156928    6.812418950    5.940449760    4.816532840
    1.901335559    6.802722786    5.932360964    4.810676700
    1.908514190    6.793023280    5.924269004    4.804816886
    1.915692821    6.783320633    5.916174044    4.798953515
    1.922871452    6.773615044    5.908076250    4.793086708
    1.930050083    6.763906709    5.899975786    4.787216581
    1.937228715    6.754195825    5.891872814    4.781343252
    1.944407346    6.744482588    5.883767497    4.775466838
    1.951585977    6.734767190    5.875659996    4.769587454
    1.958764608    6.725049824    5.867550469    4.763705216
    1.965943239    6.715330681    5.859439076    4.757820239
    1.973121870    6.705609951    5.851325975    4.751932636
    1.980300501    6.695887823    5.843211321    4.746042520
    1.987479132    6.686164483    5.835095271    4.740150005
    1.994657763    6.676440117    5.826977979    4.734255203
    2.001836394    6.666714910    5.818859598    4.728358224
    2.009015025    6.656989046    5.810740282    4.722459179
    2.016193656    6.647262706    5.802620180    4.716558179
    2.023372287    6.637536071    5.794499443    4.710655333
    2.030550918    6.627809320    5.786378221    4.704750750
    2.037729549    6.618082632    5.778256662    4.698844537
    2.044908180    6.608356183    5.770134913    4.692936802
    2.052086811    6.598630150    5.762013120    4.687027652
    2.059265442    6.588904705    5.753891428    4.681117193
    2.066444073    6.579180022    5.745769981    4.675205530
    2.073622705    6.569456274    5.737648922    4.669292768
    2.080801336    6.559733629    5.729528393    4.663379011
    2.087979967    6.550012259    5.721408534    4.657464362
    2.095158598    6.540292329    5.713289486    4.651548925
    2.102337229    6.530574007    5.705171387    4.645632800
    2.109515860    6.520857458    5.697054376    4.639716091
    2.116694491    6.511142846    5.688938588    4.633798897
    2.123873122    6.501430334    5.680824159    4.627881318
    2.131051753    6.491720084    5.672711224    4.621963455
    2.138230384    6.482012255    5.664599917    4.616045405
    2.145409015    6.472307006    5.656490370    4.610127267
    2.152587646    6.462604495    5.648382715    4.604209138
    2.159766277    6.452904879    5.640277082    4.598291115
    2.166944908    6.443208313    5.632173600    4.592373294
    2.174123539    6.433514950    5.624072399    4.586455771
    2.181302170    6.423824944    5.615973604    4.580538640
    2.188480801    6.414138445    5.607877344    4.574621995
    2.195659432    6.404455604    5.599783743    4.568705930
    2.202838063    6.394776569    5.591692926    4.562790538
    2.210016694    6.385101489    5.583605015    4.556875911
    2.217195326    6.375430510    5.575520134    4.550962140
    2.224373957    6.365763776    5.567438403    4.545049316
    2.231552588    6.356101432    5.559359943    4.539137530
    2.238731219    6.346443621    5.551284874    4.533226870
    2.245909850    6.336790484    5.543213313    4.527317426
    2.253088481    6.327142161    5.535145378    4.521409285
    2.260267112    6.317498791    5.527081185    4.515502536
    2.267445743    6.307860513    5.519020850    4.509597266
    2.274624374    6.298227462    5.510964486    4.503693559
    2.281803005    6.288599775    5.502912208    4.497791503
    2.288981636    6.278977585    5.494864128    4.491891182
    2.296160267    6.269361026    5.486820356    4.485992681
    2.303338898    6.259750229    5.478781004    4.480096082
    2.310517529    6.250145324    5.470746181    4.474201469
    2.317696160    6.240546442    5.462715995    4.468308925
    2.324874791    6.230953711    5.454690554    4.462418530
    2.332053422    6.221367257    5.446669964    4.456530367
    2.339232053    6.211787207    5.438654331    4.450644516
    2.346410684    6.202213685    5.430643760    4.444761055
    2.353589316    6.192646814    5.422638354    4.438880066
    2.360767947    6.183086718    5.414638216    4.433001625
    2.367946578    6.173533517    5.406643447    4.427125812
    2.375125209    6.163987332    5.398654149    4.421252702
    2.382303840    6.154448281    5.390670421    4.415382373
    2.389482471    6.144916482    5.382692362    4.409514902
    2.396661102    6.135392052    5.374720071    4.403650362
    2.403839733    6.125875106    5.366753643    4.397788830
    2.411018364    6.116365759    5.358793177    4.391930378
    2.418196995    6.106864124    5.350838765    4.386075082
    2.425375626    6.097370312    5.342890504    4.380223012
    2.432554257    6.087884436    5.334948486    4.374374243
    2.439732888    6.078406605    5.327012804    4.368528845
    2.446911519    6.068936927    5.319083549    4.362686889
    2.454090150    6.059475510    5.311160812    4.356848446
    2.461268781    6.050022462    5.303244683    4.351013586
    2.468447412    6.040577887    5.295335250    4.345182378
    2.475626043    6.031141889    5.287432602    4.339354890
    2.482804674    6.021714573    5.279536826    4.333531191
    2.489983306    6.012296039    5.271648007    4.327711348
    2.497161937    6.002886391    5.263766231    4.321895427
    2.504340568    5.993485727    5.255891583    4.316083496
    2.511519199    5.984094146    5.248024146    4.310275618
    2.518697830    5.974711747    5.240164003    4.304471861
    2.525876461    5.965338626    5.232311235    4.298672287
    2.533055092    5.955974879    5.224465924    4.292876961
    2.540233723    5.946620602    5.216628149    4.287085946
