# energy grid [eV]     ieps_x  ieps_y  ieps_z
#
    0.200000000    6.985086563    2.388068602    6.351920227
    0.207178631    6.983762005    2.387797458    6.350651155
    0.214357262    6.982391384    2.387516870    6.349338000
    0.221535893    6.980974767    2.387226849    6.347980830
    0.228714524    6.979512222    2.386927408    6.346579718
    0.235893155    6.978003820    2.386618559    6.345134735
    0.243071786    6.976449632    2.386300317    6.343645956
    0.250250417    6.974849735    2.385972694    6.342113461
    0.257429048    6.973204204    2.385635705    6.340537327
    0.264607679    6.971513119    2.385289363    6.338917637
    0.271786311    6.969776562    2.384933684    6.337254475
    0.278964942    6.967994615    2.384568682    6.335547927
    0.286143573    6.966167364    2.384194374    6.333798081
    0.293322204    6.964294896    2.383810775    6.332005028
    0.300500835    6.962377301    2.383417901    6.330168861
    0.307679466    6.960414671    2.383015768    6.328289674
    0.314858097    6.958407099    2.382604395    6.326367564
    0.322036728    6.956354680    2.382183798    6.324402630
    0.329215359    6.954257513    2.381753995    6.322394973
    0.336393990    6.952115698    2.381315005    6.320344695
    0.343572621    6.949929336    2.380866845    6.318251903
    0.350751252    6.947698530    2.380409534    6.316116704
    0.357929883    6.945423387    2.379943092    6.313939205
    0.365108514    6.943104014    2.379467539    6.311719520
    0.372287145    6.940740521    2.378982894    6.309457760
    0.379465776    6.938333019    2.378489177    6.307154041
    0.386644407    6.935881623    2.377986410    6.304808481
    0.393823038    6.933386446    2.377474613    6.302421197
    0.401001669    6.930847607    2.376953808    6.299992312
    0.408180301    6.928265225    2.376424016    6.297521947
    0.415358932    6.925639421    2.375885259    6.295010229
    0.422537563    6.922970317    2.375337560    6.292457283
    0.429716194    6.920258039    2.374780942    6.289863239
    0.436894825    6.917502713    2.374215427    6.287228226
    0.444073456    6.914704468    2.373641040    6.284552377
    0.451252087    6.911863433    2.373057803    6.281835826
    0.458430718    6.908979741    2.372465741    6.279078709
    0.465609349    6.906053526    2.371864879    6.276281164
    0.472787980    6.903084922    2.371255240    6.273443329
    0.479966611    6.900074067    2.370636851    6.270565347
    0.487145242    6.897021101    2.370009736    6.267647360
    0.494323873    6.893926163    2.369373921    6.264689512
    0.501502504    6.890789396    2.368729433    6.261691951
    0.508681135    6.887610944    2.368076297    6.258654824
    0.515859766    6.884390953    2.367414540    6.255578280
    0.523038397    6.881129569    2.366744190    6.252462472
    0.530217028    6.877826943    2.366065273    6.249307551
    0.537395659    6.874483224    2.365377817    6.246113673
    0.544574290    6.871098564    2.364681850    6.242880994
    0.551752922    6.867673118    2.363977400    6.239609671
    0.558931553    6.864207040    2.363264495    6.236299864
    0.566110184    6.860700487    2.362543165    6.232951733
    0.573288815    6.857153617    2.361813437    6.229565441
    0.580467446    6.853566590    2.361075343    6.226141150
    0.587646077    6.849939568    2.360328911    6.222679028
    0.594824708    6.846272713    2.359574170    6.219179240
    0.602003339    6.842566189    2.358811152    6.215641954
    0.609181970    6.838820161    2.358039887    6.212067340
    0.616360601    6.835034798    2.357260405    6.208455568
    0.623539232    6.831210266    2.356472737    6.204806812
    0.630717863    6.827346736    2.355676915    6.201121244
    0.637896494    6.823444380    2.354872970    6.197399039
    0.645075125    6.819503368    2.354060934    6.193640375
    0.652253756    6.815523876    2.353240838    6.189845427
    0.659432387    6.811506077    2.352412716    6.186014376
    0.666611018    6.807450149    2.351576599    6.182147400
    0.673789649    6.803356270    2.350732521    6.178244682
    0.680968280    6.799224616    2.349880514    6.174306404
    0.688146912    6.795055370    2.349020611    6.170332749
    0.695325543    6.790848712    2.348152847    6.166323902
    0.702504174    6.786604824    2.347277254    6.162280050
    0.709682805    6.782323890    2.346393867    6.158201379
    0.716861436    6.778006095    2.345502720    6.154088077
    0.724040067    6.773651625    2.344603847    6.149940333
    0.731218698    6.769260666    2.343697283    6.145758339
    0.738397329    6.764833406    2.342783063    6.141542285
    0.745575960    6.760370036    2.341861221    6.137292363
    0.752754591    6.755870744    2.340931793    6.133008768
    0.759933222    6.751335722    2.339994815    6.128691692
    0.767111853    6.746765162    2.339050321    6.124341333
    0.774290484    6.742159258    2.338098349    6.119957884
    0.781469115    6.737518203    2.337138933    6.115541545
    0.788647746    6.732842193    2.336172111    6.111092512
    0.795826377    6.728131424    2.335197918    6.106610985
    0.803005008    6.723386092    2.334216392    6.102097164
    0.810183639    6.718606395    2.333227569    6.097551248
    0.817362270    6.713792532    2.332231485    6.092973440
    0.824540902    6.708944704    2.331228179    6.088363940
    0.831719533    6.704063109    2.330217688    6.083722954
    0.838898164    6.699147949    2.329200048    6.079050682
    0.846076795    6.694199426    2.328175299    6.074347331
    0.853255426    6.689217744    2.327143477    6.069613106
    0.860434057    6.684203105    2.326104620    6.064848211
    0.867612688    6.679155713    2.325058768    6.060052853
    0.874791319    6.674075775    2.324005957    6.055227240
    0.881969950    6.668963495    2.322946227    6.050371579
    0.889148581    6.663819079    2.321879617    6.045486078
    0.896327212    6.658642736    2.320806164    6.040570946
    0.903505843    6.653434671    2.319725908    6.035626393
    0.910684474    6.648195095    2.318638887    6.030652627
    0.917863105    6.642924214    2.317545142    6.025649861
    0.925041736    6.637622240    2.316444712    6.020618304
    0.932220367    6.632289382    2.315337634    6.015558167
    0.939398998    6.626925851    2.314223951    6.010469664
    0.946577629    6.621531857    2.313103700    6.005353006
    0.953756260    6.616107612    2.311976922    6.000208406
    0.960934891    6.610653328    2.310843657    5.995036076
    0.968113523    6.605169219    2.309703944    5.989836231
    0.975292154    6.599655496    2.308557825    5.984609083
    0.982470785    6.594112374    2.307405338    5.979354848
    0.989649416    6.588540065    2.306246525    5.974073740
    0.996828047    6.582938786    2.305081426    5.968765973
    1.004006678    6.577308749    2.303910081    5.963431763
    1.011185309    6.571650170    2.302732531    5.958071325
    1.018363940    6.565963264    2.301548817    5.952684874
    1.025542571    6.560248247    2.300358979    5.947272626
    1.032721202    6.554505335    2.299163059    5.941834797
    1.039899833    6.548734744    2.297961096    5.936371603
    1.047078464    6.542936691    2.296753134    5.930883261
    1.054257095    6.537111391    2.295539212    5.925369987
    1.061435726    6.531259064    2.294319371    5.919831997
    1.068614357    6.525379924    2.293093653    5.914269509
    1.075792988    6.519474190    2.291862100    5.908682738
    1.082971619    6.513542080    2.290624752    5.903071903
    1.090150250    6.507583811    2.289381651    5.897437219
    1.097328881    6.501599601    2.288132839    5.891778904
    1.104507513    6.495589668    2.286878356    5.886097175
    1.111686144    6.489554230    2.285618245    5.880392249
    1.118864775    6.483493505    2.284352547    5.874664342
    1.126043406    6.477407712    2.283081305    5.868913672
    1.133222037    6.471297069    2.281804558    5.863140455
    1.140400668    6.465161795    2.280522350    5.857344909
    1.147579299    6.459002107    2.279234722    5.851527250
    1.154757930    6.452818224    2.277941716    5.845687695
    1.161936561    6.446610365    2.276643374    5.839826460
    1.169115192    6.440378748    2.275339737    5.833943761
    1.176293823    6.434123592    2.274030848    5.828039816
    1.183472454    6.427845114    2.272716748    5.822114839
    1.190651085    6.421543534    2.271397480    5.816169047
    1.197829716    6.415219068    2.270073084    5.810202657
    1.205008347    6.408871936    2.268743604    5.804215882
    1.212186978    6.402502356    2.267409081    5.798208938
    1.219365609    6.396110544    2.266069557    5.792182041
    1.226544240    6.389696719    2.264725074    5.786135406
    1.233722871    6.383261098    2.263375674    5.780069246
    1.240901503    6.376803900    2.262021398    5.773983776
    1.248080134    6.370325340    2.260662290    5.767879211
    1.255258765    6.363825635    2.259298391    5.761755763
    1.262437396    6.357305004    2.257929742    5.755613645
    1.269616027    6.350763662    2.256556385    5.749453072
    1.276794658    6.344201825    2.255178364    5.743274255
    1.283973289    6.337619709    2.253795718    5.737077407
    1.291151920    6.331017531    2.252408491    5.730862740
    1.298330551    6.324395506    2.251016724    5.724630464
    1.305509182    6.317753848    2.249620459    5.718380792
    1.312687813    6.311092773    2.248219737    5.712113933
    1.319866444    6.304412496    2.246814601    5.705830098
    1.327045075    6.297713229    2.245405092    5.699529497
    1.334223706    6.290995189    2.243991252    5.693212339
    1.341402337    6.284258586    2.242573122    5.686878832
    1.348580968    6.277503636    2.241150744    5.680529186
    1.355759599    6.270730551    2.239724160    5.674163607
    1.362938230    6.263939542    2.238293410    5.667782304
    1.370116861    6.257130822    2.236858537    5.661385482
    1.377295492    6.250304603    2.235419582    5.654973349
    1.384474124    6.243461094    2.233976587    5.648546110
    1.391652755    6.236600508    2.232529591    5.642103970
    1.398831386    6.229723054    2.231078638    5.635647134
    1.406010017    6.222828941    2.229623767    5.629175805
    1.413188648    6.215918380    2.228165021    5.622690188
    1.420367279    6.208991578    2.226702439    5.616190485
    1.427545910    6.202048743    2.225236064    5.609676898
    1.434724541    6.195090084    2.223765936    5.603149629
    1.441903172    6.188115808    2.222292095    5.596608879
    1.449081803    6.181126121    2.220814583    5.590054848
    1.456260434    6.174121228    2.219333440    5.583487736
    1.463439065    6.167101337    2.217848707    5.576907742
    1.470617696    6.160066651    2.216360425    5.570315064
    1.477796327    6.153017375    2.214868634    5.563709901
    1.484974958    6.145953712    2.213373373    5.557092448
    1.492153589    6.138875866    2.211874685    5.550462903
    1.499332220    6.131784040    2.210372608    5.543821461
    1.506510851    6.124678435    2.208867183    5.537168317
    1.513689482    6.117559253    2.207358450    5.530503665
    1.520868114    6.110426693    2.205846448    5.523827698
    1.528046745    6.103280957    2.204331219    5.517140610
    1.535225376    6.096122244    2.202812800    5.510442592
    1.542404007    6.088950752    2.201291233    5.503733835
    1.549582638    6.081766680    2.199766557    5.497014530
    1.556761269    6.074570224    2.198238810    5.490284867
    1.563939900    6.067361582    2.196708033    5.483545034
    1.571118531    6.060140949    2.195174265    5.476795220
    1.578297162    6.052908521    2.193637544    5.470035612
    1.585475793    6.045664492    2.192097910    5.463266397
    1.592654424    6.038409057    2.190555402    5.456487759
    1.599833055    6.031142408    2.189010058    5.449699885
    1.607011686    6.023864737    2.187461918    5.442902959
    1.614190317    6.016576237    2.185911019    5.436097163
    1.621368948    6.009277099    2.184357400    5.429282680
    1.628547579    6.001967511    2.182801100    5.422459692
    1.635726210    5.994647665    2.181242157    5.415628380
    1.642904841    5.987317748    2.179680609    5.408788924
    1.650083472    5.979977949    2.178116493    5.401941502
    1.657262104    5.972628454    2.176549849    5.395086293
    1.664440735    5.965269450    2.174980713    5.388223474
    1.671619366    5.957901123    2.173409123    5.381353222
    1.678797997    5.950523656    2.171835116    5.374475713
    1.685976628    5.943137235    2.170258731    5.367591121
    1.693155259    5.935742041    2.168680004    5.360699621
    1.700333890    5.928338258    2.167098971    5.353801385
    1.707512521    5.920926067    2.165515672    5.346896585
    1.714691152    5.913505648    2.163930141    5.339985393
    1.721869783    5.906077182    2.162342416    5.333067979
    1.729048414    5.898640847    2.160752533    5.326144512
    1.736227045    5.891196822    2.159160530    5.319215161
    1.743405676    5.883745283    2.157566441    5.312280094
    1.750584307    5.876286408    2.155970303    5.305339477
    1.757762938    5.868820372    2.154372153    5.298393477
    1.764941569    5.861347349    2.152772026    5.291442257
    1.772120200    5.853867514    2.151169957    5.284485983
    1.779298831    5.846381039    2.149565983    5.277524816
    1.786477462    5.838888097    2.147960139    5.270558920
    1.793656093    5.831388860    2.146352460    5.263588455
    1.800834725    5.823883496    2.144742981    5.256613582
    1.808013356    5.816372177    2.143131737    5.249634460
    1.815191987    5.808855070    2.141518764    5.242651247
    1.822370618    5.801332343    2.139904095    5.235664101
    1.829549249    5.793804164    2.138287766    5.228673178
    1.836727880    5.786270698    2.136669811    5.221678634
    1.843906511    5.778732110    2.135050264    5.214680623
    1.851085142    5.771188565    2.133429159    5.207679299
    1.858263773    5.763640225    2.131806530    5.200674816
    1.865442404    5.756087253    2.130182411    5.193667324
    1.872621035    5.748529812    2.128556836    5.186656974
    1.879799666    5.740968060    2.126929838    5.179643916
    1.886978297    5.733402158    2.125301450    5.172628300
    1.894156928    5.725832264    2.123671706    5.165610273
    1.901335559    5.718258537    2.122040638    5.158589982
    1.908514190    5.710681133    2.120408280    5.151567573
    1.915692821    5.703100208    2.118774664    5.144543191
    1.922871452    5.695515918    2.117139823    5.137516980
    1.930050083    5.687928416    2.115503789    5.130489085
    1.937228715    5.680337855    2.113866594    5.123459645
    1.944407346    5.672744389    2.112228271    5.116428804
    1.951585977    5.665148167    2.110588851    5.109396701
    1.958764608    5.657549342    2.108948366    5.102363475
    1.965943239    5.649948061    2.107306848    5.095329265
    1.973121870    5.642344474    2.105664328    5.088294209
    1.980300501    5.634738729    2.104020837    5.081258442
    1.987479132    5.627130972    2.102376407    5.074222100
    1.994657763    5.619521348    2.100731068    5.067185318
    2.001836394    5.611910003    2.099084851    5.060148229
    2.009015025    5.604297081    2.097437787    5.053110966
    2.016193656    5.596682724    2.095789906    5.046073660
    2.023372287    5.589067075    2.094141239    5.039036442
    2.030550918    5.581450275    2.092491815    5.031999443
    2.037729549    5.573832463    2.090841665    5.024962789
    2.044908180    5.566213780    2.089190818    5.017926610
    2.052086811    5.558594362    2.087539304    5.010891033
    2.059265442    5.550974349    2.085887153    5.003856182
    2.066444073    5.543353875    2.084234393    4.996822183
    2.073622705    5.535733077    2.082581054    4.989789161
    2.080801336    5.528112090    2.080927164    4.982757237
    2.087979967    5.520491045    2.079272753    4.975726535
    2.095158598    5.512870078    2.077617849    4.968697174
    2.102337229    5.505249318    2.075962481    4.961669276
    2.109515860    5.497628897    2.074306676    4.954642960
    2.116694491    5.490008945    2.072650464    4.947618344
    2.123873122    5.482389591    2.070993871    4.940595545
    2.131051753    5.474770962    2.069336926    4.933574680
    2.138230384    5.467153186    2.067679656    4.926555863
    2.145409015    5.459536389    2.066022089    4.919539211
    2.152587646    5.451920696    2.064364251    4.912524836
    2.159766277    5.444306232    2.062706171    4.905512851
    2.166944908    5.436693119    2.061047874    4.898503368
    2.174123539    5.429081481    2.059389389    4.891496497
    2.181302170    5.421471438    2.057730740    4.884492349
    2.188480801    5.413863112    2.056071956    4.877491032
    2.195659432    5.406256622    2.054413061    4.870492655
    2.202838063    5.398652086    2.052754082    4.863497324
    2.210016694    5.391049623    2.051095045    4.856505146
    2.217195326    5.383449349    2.049435976    4.849516226
    2.224373957    5.375851381    2.047776900    4.842530669
    2.231552588    5.368255833    2.046117843    4.835548577
    2.238731219    5.360662820    2.044458830    4.828570054
    2.245909850    5.353072455    2.042799886    4.821595201
    2.253088481    5.345484851    2.041141035    4.814624119
    2.260267112    5.337900118    2.039482304    4.807656907
    2.267445743    5.330318368    2.037823715    4.800693666
    2.274624374    5.322739709    2.036165295    4.793734492
    2.281803005    5.315164252    2.034507066    4.786779483
    2.288981636    5.307592102    2.032849053    4.779828735
    2.296160267    5.300023369    2.031191279    4.772882344
    2.303338898    5.292458157    2.029533770    4.765940405
    2.310517529    5.284896572    2.027876547    4.759003010
    2.317696160    5.277338718    2.026219635    4.752070252
    2.324874791    5.269784698    2.024563057    4.745142224
    2.332053422    5.262234616    2.022906835    4.738219017
    2.339232053    5.254688572    2.021250994    4.731300721
    2.346410684    5.247146667    2.019595554    4.724387424
    2.353589316    5.239609002    2.017940540    4.717479216
    2.360767947    5.232075675    2.016285973    4.710576184
    2.367946578    5.224546784    2.014631876    4.703678415
    2.375125209    5.217022428    2.012978271    4.696785994
    2.382303840    5.209502701    2.011325179    4.689899008
    2.389482471    5.201987700    2.009672623    4.683017539
    2.396661102    5.194477519    2.008020624    4.676141672
    2.403839733    5.186972253    2.006369203    4.669271488
    2.411018364    5.179471994    2.004718382    4.662407070
    2.418196995    5.171976834    2.003068182    4.655548499
    2.425375626    5.164486865    2.001418623    4.648695854
    2.432554257    5.157002176    1.999769727    4.641849215
    2.439732888    5.149522859    1.998121514    4.635008659
    2.446911519    5.142049001    1.996474005    4.628174266
    2.454090150    5.134580690    1.994827219    4.621346111
    2.461268781    5.127118014    1.993181178    4.614524271
    2.468447412    5.119661059    1.991535900    4.607708821
    2.475626043    5.112209909    1.989891407    4.600899834
    2.482804674    5.104764651    1.988247716    4.594097386
    2.489983306    5.097325367    1.986604849    4.587301548
    2.497161937    5.089892141    1.984962824    4.580512392
    2.504340568    5.082465055    1.983321660    4.573729990
    2.511519199    5.075044190    1.981681377    4.566954413
    2.518697830    5.067629626    1.980041994    4.560185729
    2.525876461    5.060221444    1.978403528    4.553424009
    2.533055092    5.052819723    1.976765999    4.546669319
    2.540233723    5.045424540    1.975129425    4.539921728
