# energy grid [eV]     epsr_x  epsr_y  epsr_z
#
    0.200000000   11.811985003   14.283822009   13.332755151
    0.207178631   11.814396841   14.287041077   13.335678256
    0.214357262   11.816894931   14.290375416   13.338705996
    0.221535893   11.819479402   14.293825211   13.341838536
    0.228714524   11.822150384   14.297390652   13.345076045
    0.235893155   11.824908013   14.301071940   13.348418701
    0.243071786   11.827752429   14.304869278   13.351866684
    0.250250417   11.830683778   14.308782878   13.355420182
    0.257429048   11.833702210   14.312812958   13.359079388
    0.264607679   11.836807877   14.316959744   13.362844503
    0.271786311   11.840000940   14.321223468   13.366715732
    0.278964942   11.843281561   14.325604367   13.370693287
    0.286143573   11.846649908   14.330102688   13.374777385
    0.293322204   11.850106155   14.334718683   13.378968249
    0.300500835   11.853650478   14.339452611   13.383266111
    0.307679466   11.857283060   14.344304738   13.387671205
    0.314858097   11.861004088   14.349275338   13.392183775
    0.322036728   11.864813753   14.354364690   13.396804068
    0.329215359   11.868712252   14.359573083   13.401532339
    0.336393990   11.872699786   14.364900811   13.406368849
    0.343572621   11.876776561   14.370348174   13.411313867
    0.350751252   11.880942789   14.375915484   13.416367664
    0.357929883   11.885198685   14.381603054   13.421530522
    0.365108514   11.889544470   14.387411209   13.426802728
    0.372287145   11.893980371   14.393340280   13.432184574
    0.379465776   11.898506618   14.399390605   13.437676359
    0.386644407   11.903123448   14.405562529   13.443278392
    0.393823038   11.907831101   14.411856406   13.448990983
    0.401001669   11.912629823   14.418272596   13.454814454
    0.408180301   11.917519866   14.424811469   13.460749130
    0.415358932   11.922501486   14.431473400   13.466795345
    0.422537563   11.927574946   14.438258772   13.472953438
    0.429716194   11.932740511   14.445167979   13.479223757
    0.436894825   11.937998455   14.452201418   13.485606655
    0.444073456   11.943349055   14.459359499   13.492102493
    0.451252087   11.948792594   14.466642635   13.498711640
    0.458430718   11.954329361   14.474051252   13.505434469
    0.465609349   11.959959648   14.481585780   13.512271365
    0.472787980   11.965683756   14.489246659   13.519222715
    0.479966611   11.971501990   14.497034338   13.526288917
    0.487145242   11.977414660   14.504949273   13.533470375
    0.494323873   11.983422082   14.512991930   13.540767500
    0.501502504   11.989524578   14.521162781   13.548180711
    0.508681135   11.995722476   14.529462309   13.555710436
    0.515859766   12.002016109   14.537891004   13.563357108
    0.523038397   12.008405816   14.546449366   13.571121169
    0.530217028   12.014891941   14.555137903   13.579003069
    0.537395659   12.021474837   14.563957132   13.587003265
    0.544574290   12.028154860   14.572907579   13.595122223
    0.551752922   12.034932373   14.581989780   13.603360416
    0.558931553   12.041807745   14.591204279   13.611718326
    0.566110184   12.048781351   14.600551630   13.620196442
    0.573288815   12.055853573   14.610032395   13.628795262
    0.580467446   12.063024798   14.619647147   13.637515292
    0.587646077   12.070295420   14.629396468   13.646357047
    0.594824708   12.077665840   14.639280950   13.655321050
    0.602003339   12.085136465   14.649301194   13.664407833
    0.609181970   12.092707707   14.659457811   13.673617935
    0.616360601   12.100379987   14.669751422   13.682951905
    0.623539232   12.108153731   14.680182659   13.692410302
    0.630717863   12.116029372   14.690752163   13.701993692
    0.637896494   12.124007351   14.701460585   13.711702651
    0.645075125   12.132088113   14.712308588   13.721537763
    0.652253756   12.140272114   14.723296844   13.731499623
    0.659432387   12.148559813   14.734426037   13.741588834
    0.666611018   12.156951678   14.745696860   13.751806009
    0.673789649   12.165448184   14.757110018   13.762151770
    0.680968280   12.174049814   14.768666227   13.772626750
    0.688146912   12.182757056   14.780366214   13.783231590
    0.695325543   12.191570407   14.792210717   13.793966941
    0.702504174   12.200490372   14.804200486   13.804833465
    0.709682805   12.209517461   14.816336281   13.815831835
    0.716861436   12.218652195   14.828618877   13.826962731
    0.724040067   12.227895100   14.841049056   13.838226846
    0.731218698   12.237246711   14.853627616   13.849624883
    0.738397329   12.246707570   14.866355366   13.861157556
    0.745575960   12.256278229   14.879233126   13.872825587
    0.752754591   12.265959245   14.892261729   13.884629712
    0.759933222   12.275751186   14.905442022   13.896570677
    0.767111853   12.285654626   14.918774863   13.908649238
    0.774290484   12.295670148   14.932261124   13.920866164
    0.781469115   12.305798345   14.945901689   13.933222235
    0.788647746   12.316039817   14.959697455   13.945718241
    0.795826377   12.326395172   14.973649335   13.958354986
    0.803005008   12.336865028   14.987758252   13.971133284
    0.810183639   12.347450012   15.002025145   13.984053962
    0.817362270   12.358150759   15.016450967   13.997117859
    0.824540902   12.368967913   15.031036683   14.010325825
    0.831719533   12.379902129   15.045783276   14.023678725
    0.838898164   12.390954068   15.060691740   14.037177435
    0.846076795   12.402124405   15.075763084   14.050822843
    0.853255426   12.413413820   15.090998335   14.064615853
    0.860434057   12.424823005   15.106398533   14.078557378
    0.867612688   12.436352661   15.121964731   14.092648349
    0.874791319   12.448003500   15.137698002   14.106889706
    0.881969950   12.459776243   15.153599433   14.121282406
    0.889148581   12.471671621   15.169670125   14.135827419
    0.896327212   12.483690376   15.185911197   14.150525728
    0.903505843   12.495833261   15.202323786   14.165378332
    0.910684474   12.508101038   15.218909043   14.180386243
    0.917863105   12.520494480   15.235668136   14.195550488
    0.925041736   12.533014372   15.252602253   14.210872111
    0.932220367   12.545661510   15.269712596   14.226352168
    0.939398998   12.558436699   15.287000388   14.241991732
    0.946577629   12.571340758   15.304466866   14.257791891
    0.953756260   12.584374515   15.322113288   14.273753751
    0.960934891   12.597538813   15.339940931   14.289878430
    0.968113523   12.610834503   15.357951089   14.306167066
    0.975292154   12.624262451   15.376145076   14.322620812
    0.982470785   12.637823532   15.394524225   14.339240838
    0.989649416   12.651518637   15.413089888   14.356028330
    0.996828047   12.665348666   15.431843439   14.372984493
    1.004006678   12.679314535   15.450786271   14.390110549
    1.011185309   12.693417170   15.469919797   14.407407737
    1.018363940   12.707657511   15.489245451   14.424877315
    1.025542571   12.722036512   15.508764690   14.442520559
    1.032721202   12.736555139   15.528478990   14.460338764
    1.039899833   12.751214373   15.548389852   14.478333243
    1.047078464   12.766015209   15.568498797   14.496505331
    1.054257095   12.780958653   15.588807368   14.514856379
    1.061435726   12.796045730   15.609317134   14.533387759
    1.068614357   12.811277475   15.630029686   14.552100866
    1.075792988   12.826654940   15.650946637   14.570997112
    1.082971619   12.842179192   15.672069626   14.590077931
    1.090150250   12.857851312   15.693400317   14.609344779
    1.097328881   12.873672398   15.714940398   14.628799133
    1.104507513   12.889643562   15.736691582   14.648442491
    1.111686144   12.905765932   15.758655610   14.668276376
    1.118864775   12.922040652   15.780834247   14.688302330
    1.126043406   12.938468885   15.803229286   14.708521921
    1.133222037   12.955051806   15.825842546   14.728936739
    1.140400668   12.971790611   15.848675875   14.749548399
    1.147579299   12.988686510   15.871731150   14.770358538
    1.154757930   13.005740733   15.895010273   14.791368821
    1.161936561   13.022954526   15.918515179   14.812580935
    1.169115192   13.040329154   15.942247832   14.833996595
    1.176293823   13.057865900   15.966210223   14.855617539
    1.183472454   13.075566064   15.990404378   14.877445534
    1.190651085   13.093430967   16.014832351   14.899482373
    1.197829716   13.111461949   16.039496231   14.921729877
    1.205008347   13.129660368   16.064398138   14.944189893
    1.212186978   13.148027604   16.089540222   14.966864299
    1.219365609   13.166565056   16.114924673   14.989755001
    1.226544240   13.185274142   16.140553709   15.012863932
    1.233722871   13.204156304   16.166429588   15.036193058
    1.240901503   13.223213003   16.192554599   15.059744375
    1.248080134   13.242445723   16.218931071   15.083519909
    1.255258765   13.261855969   16.245561369   15.107521718
    1.262437396   13.281445268   16.272447894   15.131751892
    1.269616027   13.301215170   16.299593086   15.156212555
    1.276794658   13.321167240   16.326999423   15.180905863
    1.283973289   13.341303064   16.354669419   15.205834005
    1.291151920   13.361624269   16.382605632   15.230999201
    1.298330551   13.382132532   16.410810655   15.256403698
    1.305509182   13.402829521   16.439287101   15.282049759
    1.312687813   13.423716920   16.468037679   15.307939747
    1.319866444   13.444796446   16.497065193   15.334076106
    1.327045075   13.466069845   16.526372403   15.360461232
    1.334223706   13.487538892   16.555962102   15.387097544
    1.341402337   13.509205388   16.585837147   15.413987520
    1.348580968   13.531071161   16.616000451   15.441133687
    1.355759599   13.553138069   16.646454977   15.468538613
    1.362938230   13.575407997   16.677203737   15.496204910
    1.370116861   13.597882861   16.708249796   15.524135234
    1.377295492   13.620564607   16.739596267   15.552332283
    1.384474124   13.643455208   16.771246319   15.580798800
    1.391652755   13.666556672   16.803203171   15.609537575
    1.398831386   13.689871037   16.835470101   15.638551443
    1.406010017   13.713400372   16.868050438   15.667843288
    1.413188648   13.737146780   16.900947568   15.697416035
    1.420367279   13.761112398   16.934164916   15.727272647
    1.427545910   13.785299394   16.967705942   15.757416108
    1.434724541   13.809709975   17.001574217   15.787849505
    1.441903172   13.834346382   17.035773496   15.818576098
    1.449081803   13.859210891   17.070307482   15.849599086
    1.456260434   13.884305817   17.105179884   15.880921667
    1.463439065   13.909633510   17.140394506   15.912547121
    1.470617696   13.935196358   17.175955237   15.944478802
    1.477796327   13.960996792   17.211866036   15.976720129
    1.484974958   13.987037280   17.248130936   16.009274577
    1.492153589   14.013320330   17.284754043   16.042145685
    1.499332220   14.039848494   17.321739531   16.075337050
    1.506510851   14.066624365   17.359091655   16.108852335
    1.513689482   14.093650581   17.396814758   16.142695285
    1.520868114   14.120929824   17.434913256   16.176869704
    1.528046745   14.148464819   17.473391637   16.211379453
    1.535225376   14.176258338   17.512254472   16.246228462
    1.542404007   14.204313202   17.551506410   16.281420729
    1.549582638   14.232632279   17.591152194   16.316960330
    1.556761269   14.261218487   17.631196696   16.352851453
    1.563939900   14.290074792   17.671644856   16.389098343
    1.571118531   14.319204215   17.712501684   16.425705301
    1.578297162   14.348609827   17.753772293   16.462676716
    1.585475793   14.378294753   17.795461898   16.500017061
    1.592654424   14.408262175   17.837575817   16.537730899
    1.599833055   14.438515328   17.880119471   16.575822878
    1.607011686   14.469057505   17.923098386   16.614297735
    1.614190317   14.499892053   17.966518190   16.653160298
    1.621368948   14.531022361   18.010384603   16.692415486
    1.628547579   14.562451867   18.054703447   16.732068309
    1.635726210   14.594184143   18.099480756   16.772123876
    1.642904841   14.626222874   18.144722707   16.812587417
    1.650083472   14.658571719   18.190435490   16.853464262
    1.657262104   14.691234379   18.236625418   16.894759830
    1.664440735   14.724214642   18.283298958   16.936479644
    1.671619366   14.757516379   18.330462714   16.978629348
    1.678797997   14.791143535   18.378123429   17.021214697
    1.685976628   14.825100130   18.426287989   17.064241566
    1.693155259   14.859390261   18.474963419   17.107715949
    1.700333890   14.894018101   18.524156895   17.151643962
    1.707512521   14.928987902   18.573875743   17.196031851
    1.714691152   14.964303999   18.624127445   17.240885988
    1.721869783   14.999970810   18.674919641   17.286212882
    1.729048414   15.035992835   18.726260134   17.332019175
    1.736227045   15.072374658   18.778156889   17.378311653
    1.743405676   15.109120967   18.830618064   17.425097247
    1.750584307   15.146236549   18.883652007   17.472383039
    1.757762938   15.183726270   18.937267228   17.520176261
    1.764941569   15.221595091   18.991472418   17.568484302
    1.772120200   15.259848073   19.046276472   17.617314713
    1.779298831   15.298490385   19.101688484   17.666675213
    1.786477462   15.337527298   19.157717757   17.716573690
    1.793656093   15.376964194   19.214373805   17.767018212
    1.800834725   15.416806562   19.271666363   17.818017027
    1.808013356   15.457060007   19.329605389   17.869578569
    1.815191987   15.497730251   19.388201074   17.921711465
    1.822370618   15.538823134   19.447463848   17.974424541
    1.829549249   15.580344622   19.507404388   18.027726828
    1.836727880   15.622300805   19.568033625   18.081627566
    1.843906511   15.664697904   19.629362752   18.136136213
    1.851085142   15.707542275   19.691403231   18.191262447
    1.858263773   15.750840408   19.754166801   18.247016176
    1.865442404   15.794598939   19.817665494   18.303407550
    1.872621035   15.838824649   19.881911643   18.360446981
    1.879799666   15.883524464   19.946917876   18.418145116
    1.886978297   15.928705448   20.012697126   18.476512838
    1.894156928   15.974374828   20.079262670   18.535561288
    1.901335559   16.020540046   20.146628164   18.595301951
    1.908514190   16.067208722   20.214807585   18.655746675
    1.915692821   16.114388586   20.283815245   18.716907492
    1.922871452   16.162087533   20.353665833   18.778796719
    1.930050083   16.210313632   20.424374430   18.841427004
    1.937228715   16.259075164   20.495956519   18.904811342
    1.944407346   16.308380723   20.568428023   18.968963106
    1.951585977   16.358239047   20.641805280   19.033896003
    1.958764608   16.408659000   20.716105057   19.099624081
    1.965943239   16.459649684   20.791344585   19.166161774
    1.973121870   16.511220436   20.867541575   19.233523910
    1.980300501   16.563380830   20.944714234   19.301725728
    1.987479132   16.616140674   21.022881278   19.370782882
    1.994657763   16.669510025   21.102061958   19.440711467
    2.001836394   16.723499189   21.182276074   19.511528029
    2.009015025   16.778118735   21.263543999   19.583249581
    2.016193656   16.833379499   21.345886701   19.655893625
    2.023372287   16.889292599   21.429325761   19.729478160
    2.030550918   16.945869440   21.513883398   19.804021695
    2.037729549   17.003121726   21.599582489   19.879543259
    2.044908180   17.061061471   21.686446631   19.956062534
    2.052086811   17.119701009   21.774500158   20.033599865
    2.059265442   17.179053005   21.863768122   20.112176082
    2.066444073   17.239130467   21.954276345   20.191812629
    2.073622705   17.299946761   22.046051473   20.272531641
    2.080801336   17.361515621   22.139121001   20.354355958
    2.087979967   17.423851164   22.233513305   20.437309142
    2.095158598   17.486967903   22.329257685   20.521415509
    2.102337229   17.550880765   22.426384395   20.606700157
    2.109515860   17.615605098   22.524924689   20.693189002
    2.116694491   17.681156689   22.624910858   20.780908811
    2.123873122   17.747551804   22.726376318   20.869887246
    2.131051753   17.814807171   22.829355635   20.960152901
    2.138230384   17.882939956   22.933884534   21.051735335
    2.145409015   17.951967972   23.039999984   21.144665133
    2.152587646   18.021909669   23.147740274   21.238973953
    2.159766277   18.092783877   23.257145057   21.334694555
    2.166944908   18.164609991   23.368255417   21.431860862
    2.174123539   18.237408051   23.481113930   21.530508014
    2.181302170   18.311198749   23.595764717   21.630672403
    2.188480801   18.386003448   23.712253540   21.732391760
    2.195659432   18.461844200   23.830628057   21.835705385
    2.202838063   18.538743784   23.950937749   21.940654068
    2.210016694   18.616725734   24.073233851   22.047279996
    2.217195326   18.695814372   24.197569610   22.155626998
    2.224373957   18.776034844   24.324000391   22.265740632
    2.231552588   18.857413149   24.452583690   22.377668196
    2.238731219   18.939976176   24.583379309   22.491458873
    2.245909850   19.023751731   24.716450042   22.607164311
    2.253088481   19.108768600   24.851861270   22.724838275
    2.260267112   19.195056835   24.989680812   22.844536415
    2.267445743   19.282647566   25.129979408   22.966316756
    2.274624374   19.371572727   25.272830735   23.090239793
    2.281803005   19.461865244   25.418311833   23.216368727
    2.288981636   19.553559279   25.566502947   23.344769107
    2.296160267   19.646691474   25.717487651   23.475508955
    2.303338898   19.741299939   25.871354056   23.608661207
    2.310517529   19.837423182   26.028195249   23.744303284
    2.317696160   19.935101182   26.188108792   23.882514871
    2.324874791   20.034375760   26.351196161   24.023378416
    2.332053422   20.135290564   26.517563120   24.166980776
    2.339232053   20.237891087   26.687320718   24.313413089
    2.346410684   20.342224764   26.860586010   24.462771236
    2.353589316   20.448341007   27.037481704   24.615155800
    2.360767947   20.556291316   27.218136266   24.770672211
    2.367946578   20.666129488   27.402685199   24.929431739
    2.375125209   20.777911808   27.591273187   25.091552874
    2.382303840   20.891697379   27.784054959   25.257161954
    2.389482471   21.007547842   27.981190309   25.426390268
    2.396661102   21.125527335   28.182846178   25.599375138
    2.403839733   21.245703497   28.389201546   25.776262843
    2.411018364   21.368147275   28.600447162   25.957209828
    2.418196995   21.492932987   28.816783643   26.142381147
    2.425375626   21.620138540   29.038423014   26.331951180
    2.432554257   21.749845285   29.265590419   26.526105276
    2.439732888   21.882139576   29.498526255   26.725041420
    2.446911519   22.017113486   29.737488134   26.928971117
    2.454090150   22.154862454   29.982748529   27.138118730
    2.461268781   22.295486439   30.234596607   27.352723374
    2.468447412   22.439091186   30.493343511   27.573042161
    2.475626043   22.585789418   30.759324083   27.799351775
    2.482804674   22.735702471   31.032897395   28.031947544
    2.489983306   22.888956849   31.314446217   28.271145898
    2.497161937   23.045685341   31.604381503   28.517287887
    2.504340568   23.206029543   31.903146077   28.770741364
    2.511519199   23.370140242   32.211217629   29.031903503
    2.518697830   23.538177860   32.529112539   29.301204079
    2.525876461   23.710313656   32.857389985   29.579110042
    2.533055092   23.886730343   33.196656386   29.866128653
    2.540233723   24.067622821   33.547570617   30.162811226
