# energy grid [eV]     ieps_x  ieps_y  ieps_z
#
    0.200000000    7.195806884    7.181133744    1.716561485
    0.207178631    7.194427984    7.179735566    1.716411882
    0.214357262    7.193001141    7.178288791    1.716257070
    0.221535893    7.191526425    7.176793491    1.716097057
    0.228714524    7.190003907    7.175249741    1.715931850
    0.235893155    7.188433662    7.173657618    1.715761457
    0.243071786    7.186815767    7.172017202    1.715585884
    0.250250417    7.185150301    7.170328574    1.715405140
    0.257429048    7.183437344    7.168591820    1.715219232
    0.264607679    7.181676980    7.166807024    1.715028170
    0.271786311    7.179869295    7.164974277    1.714831960
    0.278964942    7.178014377    7.163093669    1.714630613
    0.286143573    7.176112316    7.161165293    1.714424138
    0.293322204    7.174163204    7.159189247    1.714212542
    0.300500835    7.172167135    7.157165626    1.713995836
    0.307679466    7.170124206    7.155094532    1.713774029
    0.314858097    7.168034516    7.152976068    1.713547131
    0.322036728    7.165898166    7.150810337    1.713315152
    0.329215359    7.163715259    7.148597446    1.713078102
    0.336393990    7.161485899    7.146337505    1.712835991
    0.343572621    7.159210195    7.144030625    1.712588831
    0.350751252    7.156888256    7.141676919    1.712336632
    0.357929883    7.154520192    7.139276503    1.712079406
    0.365108514    7.152106118    7.136829494    1.711817162
    0.372287145    7.149646150    7.134336013    1.711549914
    0.379465776    7.147140404    7.131796181    1.711277672
    0.386644407    7.144589001    7.129210122    1.711000449
    0.393823038    7.141992061    7.126577962    1.710718256
    0.401001669    7.139349710    7.123899830    1.710431106
    0.408180301    7.136662071    7.121175855    1.710139012
    0.415358932    7.133929274    7.118406170    1.709841985
    0.422537563    7.131151447    7.115590910    1.709540040
    0.429716194    7.128328723    7.112730209    1.709233188
    0.436894825    7.125461233    7.109824207    1.708921444
    0.444073456    7.122549115    7.106873043    1.708604821
    0.451252087    7.119592504    7.103876860    1.708283332
    0.458430718    7.116591540    7.100835802    1.707956992
    0.465609349    7.113546364    7.097750014    1.707625814
    0.472787980    7.110457119    7.094619645    1.707289812
    0.479966611    7.107323949    7.091444844    1.706949002
    0.487145242    7.104147000    7.088225763    1.706603397
    0.494323873    7.100926421    7.084962554    1.706253013
    0.501502504    7.097662361    7.081655374    1.705897864
    0.508681135    7.094354973    7.078304379    1.705537965
    0.515859766    7.091004410    7.074909728    1.705173333
    0.523038397    7.087610826    7.071471582    1.704803981
    0.530217028    7.084174379    7.067990102    1.704429927
    0.537395659    7.080695227    7.064465453    1.704051186
    0.544574290    7.077173531    7.060897801    1.703667774
    0.551752922    7.073609451    7.057287313    1.703279706
    0.558931553    7.070003152    7.053634157    1.702887000
    0.566110184    7.066354799    7.049938505    1.702489672
    0.573288815    7.062664557    7.046200529    1.702087739
    0.580467446    7.058932596    7.042420403    1.701681218
    0.587646077    7.055159085    7.038598302    1.701270124
    0.594824708    7.051344195    7.034734404    1.700854477
    0.602003339    7.047488099    7.030828886    1.700434293
    0.609181970    7.043590972    7.026881930    1.700009589
    0.616360601    7.039652988    7.022893716    1.699580383
    0.623539232    7.035674326    7.018864428    1.699146693
    0.630717863    7.031655163    7.014794250    1.698708538
    0.637896494    7.027595681    7.010683369    1.698265934
    0.645075125    7.023496059    7.006531971    1.697818900
    0.652253756    7.019356481    7.002340246    1.697367455
    0.659432387    7.015177132    6.998108384    1.696911618
    0.666611018    7.010958195    6.993836576    1.696451406
    0.673789649    7.006699860    6.989525016    1.695986839
    0.680968280    7.002402312    6.985173896    1.695517935
    0.688146912    6.998065742    6.980783413    1.695044714
    0.695325543    6.993690341    6.976353764    1.694567195
    0.702504174    6.989276299    6.971885147    1.694085397
    0.709682805    6.984823811    6.967377760    1.693599340
    0.716861436    6.980333070    6.962831804    1.693109044
    0.724040067    6.975804271    6.958247481    1.692614527
    0.731218698    6.971237612    6.953624994    1.692115811
    0.738397329    6.966633290    6.948964546    1.691612914
    0.745575960    6.961991503    6.944266342    1.691105857
    0.752754591    6.957312451    6.939530589    1.690594661
    0.759933222    6.952596336    6.934757493    1.690079345
    0.767111853    6.947843359    6.929947263    1.689559931
    0.774290484    6.943053723    6.925100109    1.689036438
    0.781469115    6.938227632    6.920216239    1.688508887
    0.788647746    6.933365292    6.915295867    1.687977300
    0.795826377    6.928466907    6.910339203    1.687441696
    0.803005008    6.923532686    6.905346461    1.686902098
    0.810183639    6.918562835    6.900317856    1.686358526
    0.817362270    6.913557563    6.895253601    1.685811001
    0.824540902    6.908517081    6.890153913    1.685259544
    0.831719533    6.903441597    6.885019009    1.684704178
    0.838898164    6.898331325    6.879849106    1.684144923
    0.846076795    6.893186474    6.874644422    1.683581802
    0.853255426    6.888007260    6.869405177    1.683014835
    0.860434057    6.882793894    6.864131591    1.682444045
    0.867612688    6.877546592    6.858823883    1.681869454
    0.874791319    6.872265569    6.853482277    1.681291083
    0.881969950    6.866951040    6.848106992    1.680708954
    0.889148581    6.861603222    6.842698254    1.680123090
    0.896327212    6.856222332    6.837256283    1.679533513
    0.903505843    6.850808589    6.831781306    1.678940245
    0.910684474    6.845362210    6.826273547    1.678343309
    0.917863105    6.839883414    6.820733230    1.677742726
    0.925041736    6.834372422    6.815160582    1.677138520
    0.932220367    6.828829453    6.809555829    1.676530712
    0.939398998    6.823254729    6.803919198    1.675919327
    0.946577629    6.817648471    6.798250916    1.675304385
    0.953756260    6.812010900    6.792551212    1.674685911
    0.960934891    6.806342239    6.786820314    1.674063926
    0.968113523    6.800642711    6.781058450    1.673438455
    0.975292154    6.794912539    6.775265850    1.672809519
    0.982470785    6.789151946    6.769442745    1.672177142
    0.989649416    6.783361158    6.763589363    1.671541346
    0.996828047    6.777540397    6.757705935    1.670902156
    1.004006678    6.771689890    6.751792693    1.670259594
    1.011185309    6.765809862    6.745849866    1.669613683
    1.018363940    6.759900537    6.739877688    1.668964447
    1.025542571    6.753962143    6.733876389    1.668311909
    1.032721202    6.747994904    6.727846201    1.667656092
    1.039899833    6.741999048    6.721787358    1.666997020
    1.047078464    6.735974801    6.715700090    1.666334716
    1.054257095    6.729922391    6.709584632    1.665669203
    1.061435726    6.723842043    6.703441215    1.665000506
    1.068614357    6.717733987    6.697270073    1.664328647
    1.075792988    6.711598449    6.691071440    1.663653651
    1.082971619    6.705435657    6.684845548    1.662975541
    1.090150250    6.699245839    6.678592631    1.662294340
    1.097328881    6.693029223    6.672312922    1.661610072
    1.104507513    6.686786037    6.666006656    1.660922762
    1.111686144    6.680516510    6.659674066    1.660232432
    1.118864775    6.674220869    6.653315385    1.659539106
    1.126043406    6.667899343    6.646930848    1.658842809
    1.133222037    6.661552161    6.640520688    1.658143563
    1.140400668    6.655179550    6.634085139    1.657441394
    1.147579299    6.648781740    6.627624435    1.656736323
    1.154757930    6.642358958    6.621138809    1.656028377
    1.161936561    6.635911433    6.614628496    1.655317577
    1.169115192    6.629439394    6.608093727    1.654603949
    1.176293823    6.622943068    6.601534738    1.653887516
    1.183472454    6.616422685    6.594951762    1.653168301
    1.190651085    6.609878471    6.588345031    1.652446329
    1.197829716    6.603310656    6.581714778    1.651721624
    1.205008347    6.596719466    6.575061237    1.650994210
    1.212186978    6.590105130    6.568384640    1.650264109
    1.219365609    6.583467876    6.561685220    1.649531347
    1.226544240    6.576807930    6.554963209    1.648795947
    1.233722871    6.570125520    6.548218839    1.648057933
    1.240901503    6.563420873    6.541452341    1.647317329
    1.248080134    6.556694215    6.534663948    1.646574159
    1.255258765    6.549945774    6.527853891    1.645828446
    1.262437396    6.543175776    6.521022400    1.645080214
    1.269616027    6.536384446    6.514169706    1.644329488
    1.276794658    6.529572011    6.507296040    1.643576291
    1.283973289    6.522738696    6.500401632    1.642820647
    1.291151920    6.515884726    6.493486711    1.642062579
    1.298330551    6.509010326    6.486551506    1.641302111
    1.305509182    6.502115720    6.479596247    1.640539268
    1.312687813    6.495201133    6.472621161    1.639774073
    1.319866444    6.488266789    6.465626478    1.639006549
    1.327045075    6.481312910    6.458612424    1.638236720
    1.334223706    6.474339721    6.451579227    1.637464610
    1.341402337    6.467347443    6.444527113    1.636690243
    1.348580968    6.460336299    6.437456310    1.635913642
    1.355759599    6.453306511    6.430367043    1.635134830
    1.362938230    6.446258299    6.423259537    1.634353832
    1.370116861    6.439191886    6.416134016    1.633570670
    1.377295492    6.432107490    6.408990707    1.632785368
    1.384474124    6.425005333    6.401829831    1.631997950
    1.391652755    6.417885634    6.394651613    1.631208439
    1.398831386    6.410748611    6.387456275    1.630416858
    1.406010017    6.403594484    6.380244039    1.629623231
    1.413188648    6.396423469    6.373015127    1.628827580
    1.420367279    6.389235785    6.365769760    1.628029930
    1.427545910    6.382031648    6.358508159    1.627230303
    1.434724541    6.374811274    6.351230543    1.626428722
    1.441903172    6.367574880    6.343937130    1.625625211
    1.449081803    6.360322679    6.336628141    1.624819793
    1.456260434    6.353054888    6.329303792    1.624012490
    1.463439065    6.345771719    6.321964301    1.623203326
    1.470617696    6.338473386    6.314609885    1.622392324
    1.477796327    6.331160102    6.307240759    1.621579505
    1.484974958    6.323832078    6.299857138    1.620764894
    1.492153589    6.316489527    6.292459238    1.619948513
    1.499332220    6.309132658    6.285047272    1.619130384
    1.506510851    6.301761682    6.277621453    1.618310531
    1.513689482    6.294376808    6.270181993    1.617488975
    1.520868114    6.286978245    6.262729104    1.616665740
    1.528046745    6.279566202    6.255262997    1.615840848
    1.535225376    6.272140884    6.247783883    1.615014320
    1.542404007    6.264702499    6.240291970    1.614186181
    1.549582638    6.257251253    6.232787467    1.613356451
    1.556761269    6.249787351    6.225270582    1.612525153
    1.563939900    6.242310997    6.217741523    1.611692310
    1.571118531    6.234822396    6.210200495    1.610857943
    1.578297162    6.227321749    6.202647704    1.610022074
    1.585475793    6.219809259    6.195083354    1.609184726
    1.592654424    6.212285128    6.187507650    1.608345919
    1.599833055    6.204749556    6.179920795    1.607505677
    1.607011686    6.197202743    6.172322991    1.606664021
    1.614190317    6.189644888    6.164714438    1.605820972
    1.621368948    6.182076189    6.157095339    1.604976552
    1.628547579    6.174496845    6.149465891    1.604130783
    1.635726210    6.166907050    6.141826296    1.603283685
    1.642904841    6.159307002    6.134176749    1.602435282
    1.650083472    6.151696895    6.126517448    1.601585593
    1.657262104    6.144076924    6.118848591    1.600734640
    1.664440735    6.136447281    6.111170371    1.599882445
    1.671619366    6.128808159    6.103482983    1.599029027
    1.678797997    6.121159751    6.095786622    1.598174409
    1.685976628    6.113502246    6.088081479    1.597318612
    1.693155259    6.105835835    6.080367746    1.596461655
    1.700333890    6.098160706    6.072645614    1.595603561
    1.707512521    6.090477049    6.064915274    1.594744349
    1.714691152    6.082785049    6.057176914    1.593884040
    1.721869783    6.075084895    6.049430722    1.593022655
    1.729048414    6.067376770    6.041676886    1.592160214
    1.736227045    6.059660861    6.033915591    1.591296738
    1.743405676    6.051937350    6.026147023    1.590432247
    1.750584307    6.044206421    6.018371367    1.589566760
    1.757762938    6.036468255    6.010588805    1.588700299
    1.764941569    6.028723033    6.002799521    1.587832884
    1.772120200    6.020970937    5.995003695    1.586964533
    1.779298831    6.013212144    5.987201509    1.586095267
    1.786477462    6.005446834    5.979393141    1.585225106
    1.793656093    5.997675183    5.971578770    1.584354070
    1.800834725    5.989897368    5.963758575    1.583482178
    1.808013356    5.982113565    5.955932732    1.582609449
    1.815191987    5.974323949    5.948101416    1.581735903
    1.822370618    5.966528692    5.940264802    1.580861560
    1.829549249    5.958727967    5.932423064    1.579986438
    1.836727880    5.950921947    5.924576375    1.579110557
    1.843906511    5.943110802    5.916724906    1.578233936
    1.851085142    5.935294702    5.908868828    1.577356593
    1.858263773    5.927473816    5.901008312    1.576478548
    1.865442404    5.919648312    5.893143525    1.575599820
    1.872621035    5.911818357    5.885274636    1.574720426
    1.879799666    5.903984116    5.877401812    1.573840387
    1.886978297    5.896145756    5.869525218    1.572959719
    1.894156928    5.888303440    5.861645018    1.572078442
    1.901335559    5.880457331    5.853761378    1.571196574
    1.908514190    5.872607592    5.845874460    1.570314133
    1.915692821    5.864754384    5.837984425    1.569431137
    1.922871452    5.856897866    5.830091434    1.568547605
    1.930050083    5.849038199    5.822195647    1.567663554
    1.937228715    5.841175540    5.814297223    1.566779002
    1.944407346    5.833310047    5.806396320    1.565893966
    1.951585977    5.825441876    5.798493094    1.565008466
    1.958764608    5.817571183    5.790587702    1.564122517
    1.965943239    5.809698121    5.782680297    1.563236137
    1.973121870    5.801822846    5.774771034    1.562349345
    1.980300501    5.793945507    5.766860065    1.561462156
    1.987479132    5.786066259    5.758947542    1.560574589
    1.994657763    5.778185250    5.751033616    1.559686660
    2.001836394    5.770302630    5.743118436    1.558798386
    2.009015025    5.762418548    5.735202152    1.557909785
    2.016193656    5.754533151    5.727284910    1.557020872
    2.023372287    5.746646586    5.719366857    1.556131665
    2.030550918    5.738758998    5.711448139    1.555242180
    2.037729549    5.730870532    5.703528901    1.554352434
    2.044908180    5.722981332    5.695609286    1.553462442
    2.052086811    5.715091540    5.687689436    1.552572222
    2.059265442    5.707201297    5.679769494    1.551681790
    2.066444073    5.699310745    5.671849600    1.550791161
    2.073622705    5.691420024    5.663929893    1.549900351
    2.080801336    5.683529270    5.656010512    1.549009377
    2.087979967    5.675638624    5.648091595    1.548118254
    2.095158598    5.667748220    5.640173277    1.547226998
    2.102337229    5.659858196    5.632255695    1.546335625
    2.109515860    5.651968685    5.624338983    1.545444149
    2.116694491    5.644079822    5.616423275    1.544552586
    2.123873122    5.636191739    5.608508702    1.543660953
    2.131051753    5.628304568    5.600595398    1.542769263
    2.138230384    5.620418440    5.592683491    1.541877531
    2.145409015    5.612533485    5.584773112    1.540985774
    2.152587646    5.604649832    5.576864389    1.540094006
    2.159766277    5.596767609    5.568957450    1.539202241
    2.166944908    5.588886942    5.561052420    1.538310494
    2.174123539    5.581007958    5.553149427    1.537418780
    2.181302170    5.573130782    5.545248594    1.536527113
    2.188480801    5.565255538    5.537350044    1.535635508
    2.195659432    5.557382349    5.529453901    1.534743979
    2.202838063    5.549511337    5.521560286    1.533852540
    2.210016694    5.541642623    5.513669320    1.532961205
    2.217195326    5.533776329    5.505781121    1.532069989
    2.224373957    5.525912571    5.497895810    1.531178904
    2.231552588    5.518051471    5.490013503    1.530287966
    2.238731219    5.510193143    5.482134318    1.529397187
    2.245909850    5.502337706    5.474258369    1.528506582
    2.253088481    5.494485275    5.466385773    1.527616163
    2.260267112    5.486635963    5.458516642    1.526725944
    2.267445743    5.478789885    5.450651089    1.525835938
    2.274624374    5.470947154    5.442789227    1.524946160
    2.281803005    5.463107880    5.434931166    1.524056620
    2.288981636    5.455272176    5.427077016    1.523167334
    2.296160267    5.447440150    5.419226887    1.522278313
    2.303338898    5.439611912    5.411380886    1.521389571
    2.310517529    5.431787569    5.403539121    1.520501120
    2.317696160    5.423967229    5.395701697    1.519612972
    2.324874791    5.416150998    5.387868720    1.518725141
    2.332053422    5.408338981    5.380040295    1.517837638
    2.339232053    5.400531283    5.372216524    1.516950477
    2.346410684    5.392728006    5.364397511    1.516063668
    2.353589316    5.384929254    5.356583356    1.515177225
    2.360767947    5.377135128    5.348774160    1.514291160
    2.367946578    5.369345728    5.340970024    1.513405483
    2.375125209    5.361561154    5.333171045    1.512520208
    2.382303840    5.353781506    5.325377322    1.511635346
    2.389482471    5.346006881    5.317588951    1.510750909
    2.396661102    5.338237376    5.309806029    1.509866907
    2.403839733    5.330473088    5.302028651    1.508983353
    2.411018364    5.322714112    5.294256911    1.508100258
    2.418196995    5.314960541    5.286490902    1.507217634
    2.425375626    5.307212471    5.278730717    1.506335490
    2.432554257    5.299469993    5.270976447    1.505453839
    2.439732888    5.291733200    5.263228184    1.504572692
    2.446911519    5.284002181    5.255486016    1.503692059
    2.454090150    5.276277028    5.247750033    1.502811951
    2.461268781    5.268557830    5.240020322    1.501932379
    2.468447412    5.260844674    5.232296972    1.501053354
    2.475626043    5.253137648    5.224580068    1.500174885
    2.482804674    5.245436840    5.216869696    1.499296984
    2.489983306    5.237742334    5.209165940    1.498419661
    2.497161937    5.230054216    5.201468883    1.497542926
    2.504340568    5.222372569    5.193778610    1.496666789
    2.511519199    5.214697478    5.186095202    1.495791260
    2.518697830    5.207029024    5.178418740    1.494916349
    2.525876461    5.199367289    5.170749304    1.494042067
    2.533055092    5.191712354    5.163086974    1.493168423
    2.540233723    5.184064299    5.155431829    1.492295426
