# energy grid [eV]     epsr_x  epsr_y  epsr_z
#
    0.200000000   12.206212363    5.921377234   13.498213623
    0.207178631   12.208784824    5.922255403   13.500879218
    0.214357262   12.211449399    5.923164893   13.503640049
    0.221535893   12.214206234    5.924105742   13.506496248
    0.228714524   12.217055483    5.925077989   13.509447950
    0.235893155   12.219997305    5.926081673   13.512495295
    0.243071786   12.223031862    5.927116835   13.515638427
    0.250250417   12.226159324    5.928183520   13.518877496
    0.257429048   12.229379864    5.929281769   13.522212655
    0.264607679   12.232693663    5.930411629   13.525644063
    0.271786311   12.236100905    5.931573147   13.529171883
    0.278964942   12.239601781    5.932766369   13.532796283
    0.286143573   12.243196487    5.933991347   13.536517436
    0.293322204   12.246885224    5.935248129   13.540335519
    0.300500835   12.250668200    5.936536770   13.544250716
    0.307679466   12.254545627    5.937857320   13.548263212
    0.314858097   12.258517723    5.939209837   13.552373201
    0.322036728   12.262584713    5.940594375   13.556580878
    0.329215359   12.266746825    5.942010993   13.560886446
    0.336393990   12.271004295    5.943459748   13.565290112
    0.343572621   12.275357364    5.944940703   13.569792087
    0.350751252   12.279806279    5.946453918   13.574392588
    0.357929883   12.284351293    5.947999456   13.579091837
    0.365108514   12.288992664    5.949577383   13.583890060
    0.372287145   12.293730656    5.951187764   13.588787489
    0.379465776   12.298565541    5.952830667   13.593784361
    0.386644407   12.303497594    5.954506160   13.598880918
    0.393823038   12.308527098    5.956214315   13.604077407
    0.401001669   12.313654342    5.957955202   13.609374080
    0.408180301   12.318879620    5.959728895   13.614771196
    0.415358932   12.324203234    5.961535470   13.620269016
    0.422537563   12.329625491    5.963375001   13.625867810
    0.429716194   12.335146703    5.965247567   13.631567850
    0.436894825   12.340767192    5.967153247   13.637369414
    0.444073456   12.346487283    5.969092122   13.643272788
    0.451252087   12.352307310    5.971064275   13.649278261
    0.458430718   12.358227610    5.973069788   13.655386128
    0.465609349   12.364248531    5.975108747   13.661596689
    0.472787980   12.370370425    5.977181240   13.667910251
    0.479966611   12.376593650    5.979287354   13.674327125
    0.487145242   12.382918574    5.981427180   13.680847628
    0.494323873   12.389345568    5.983600809   13.687472084
    0.501502504   12.395875012    5.985808335   13.694200821
    0.508681135   12.402507294    5.988049852   13.701034173
    0.515859766   12.409242806    5.990325456   13.707972481
    0.523038397   12.416081949    5.992635247   13.715016091
    0.530217028   12.423025132    5.994979322   13.722165355
    0.537395659   12.430072769    5.997357784   13.729420630
    0.544574290   12.437225283    5.999770736   13.736782281
    0.551752922   12.444483103    6.002218282   13.744250678
    0.558931553   12.451846667    6.004700529   13.751826195
    0.566110184   12.459316421    6.007217584   13.759509217
    0.573288815   12.466892815    6.009769558   13.767300130
    0.580467446   12.474576310    6.012356562   13.775199329
    0.587646077   12.482367375    6.014978708   13.783207216
    0.594824708   12.490266485    6.017636113   13.791324196
    0.602003339   12.498274124    6.020328892   13.799550685
    0.609181970   12.506390783    6.023057165   13.807887101
    0.616360601   12.514616963    6.025821051   13.816333872
    0.623539232   12.522953171    6.028620672   13.824891430
    0.630717863   12.531399925    6.031456153   13.833560216
    0.637896494   12.539957748    6.034327620   13.842340675
    0.645075125   12.548627176    6.037235199   13.851233261
    0.652253756   12.557408749    6.040179020   13.860238434
    0.659432387   12.566303018    6.043159215   13.869356661
    0.666611018   12.575310544    6.046175918   13.878588415
    0.673789649   12.584431894    6.049229262   13.887934178
    0.680968280   12.593667646    6.052319385   13.897394438
    0.688146912   12.603018388    6.055446427   13.906969689
    0.695325543   12.612484714    6.058610528   13.916660433
    0.702504174   12.622067231    6.061811831   13.926467182
    0.709682805   12.631766554    6.065050482   13.936390451
    0.716861436   12.641583306    6.068326627   13.946430765
    0.724040067   12.651518124    6.071640416   13.956588656
    0.731218698   12.661571649    6.074992000   13.966864663
    0.738397329   12.671744538    6.078381531   13.977259335
    0.745575960   12.682037454    6.081809166   13.987773225
    0.752754591   12.692451072    6.085275061   13.998406897
    0.759933222   12.702986078    6.088779377   14.009160921
    0.767111853   12.713643166    6.092322274   14.020035877
    0.774290484   12.724423044    6.095903918   14.031032351
    0.781469115   12.735326428    6.099524474   14.042150938
    0.788647746   12.746354046    6.103184111   14.053392242
    0.795826377   12.757506640    6.106882999   14.064756874
    0.803005008   12.768784958    6.110621311   14.076245455
    0.810183639   12.780189763    6.114399222   14.087858612
    0.817362270   12.791721829    6.118216910   14.099596984
    0.824540902   12.803381942    6.122074554   14.111461217
    0.831719533   12.815170899    6.125972338   14.123451965
    0.838898164   12.827089510    6.129910445   14.135569893
    0.846076795   12.839138598    6.133889063   14.147815673
    0.853255426   12.851318996    6.137908380   14.160189987
    0.860434057   12.863631553    6.141968590   14.172693527
    0.867612688   12.876077128    6.146069886   14.185326993
    0.874791319   12.888656595    6.150212465   14.198091096
    0.881969950   12.901370840    6.154396528   14.210986555
    0.889148581   12.914220764    6.158622275   14.224014100
    0.896327212   12.927207280    6.162889911   14.237174470
    0.903505843   12.940331317    6.167199645   14.250468413
    0.910684474   12.953593815    6.171551685   14.263896691
    0.917863105   12.966995731    6.175946245   14.277460071
    0.925041736   12.980538036    6.180383540   14.291159333
    0.932220367   12.994221715    6.184863789   14.304995268
    0.939398998   13.008047770    6.189387211   14.318968677
    0.946577629   13.022017216    6.193954030   14.333080370
    0.953756260   13.036131084    6.198564475   14.347331171
    0.960934891   13.050390422    6.203218773   14.361721912
    0.968113523   13.064796294    6.207917157   14.376253437
    0.975292154   13.079349779    6.212659862   14.390926602
    0.982470785   13.094051974    6.217447128   14.405742275
    0.989649416   13.108903993    6.222279195   14.420701333
    0.996828047   13.123906967    6.227156307   14.435804666
    1.004006678   13.139062045    6.232078712   14.451053177
    1.011185309   13.154370393    6.237046661   14.466447780
    1.018363940   13.169833193    6.242060407   14.481989400
    1.025542571   13.185451639    6.247120208   14.497678977
    1.032721202   13.201226903    6.252226323   14.513517460
    1.039899833   13.217160098    6.257379017   14.529505814
    1.047078464   13.233252458    6.262578555   14.545645015
    1.054257095   13.249505597    6.267825208   14.561936052
    1.061435726   13.265920887    6.273119250   14.578379928
    1.068614357   13.282499507    6.278460958   14.594977658
    1.075792988   13.299242734    6.283850611   14.611730272
    1.082971619   13.316151913    6.289288496   14.628638813
    1.090150250   13.333228423    6.294774898   14.645704338
    1.097328881   13.350473670    6.300310109   14.662927918
    1.104507513   13.367889081    6.305894424   14.680310638
    1.111686144   13.385476105    6.311528143   14.697853598
    1.118864775   13.403236215    6.317211566   14.715557913
    1.126043406   13.421170906    6.322945001   14.733424711
    1.133222037   13.439281699    6.328728758   14.751455138
    1.140400668   13.457570136    6.334563150   14.769650353
    1.147579299   13.476037787    6.340448496   14.788011532
    1.154757930   13.494686245    6.346385118   14.806539866
    1.161936561   13.513517131    6.352373341   14.825236561
    1.169115192   13.532532090    6.358413497   14.844102842
    1.176293823   13.551732795    6.364505919   14.863139949
    1.183472454   13.571120946    6.370650946   14.882349137
    1.190651085   13.590698272    6.376848921   14.901731680
    1.197829716   13.610466530    6.383100191   14.921288869
    1.205008347   13.630427504    6.389405109   14.941022013
    1.212186978   13.650583011    6.395764030   14.960932437
    1.219365609   13.670934896    6.402177315   14.981021486
    1.226544240   13.691485036    6.408645330   15.001290520
    1.233722871   13.712235338    6.415168444   15.021740922
    1.240901503   13.733187743    6.421747033   15.042374091
    1.248080134   13.754344224    6.428381475   15.063191446
    1.255258765   13.775706786    6.435072156   15.084194424
    1.262437396   13.797277472    6.441819465   15.105384484
    1.269616027   13.819058355    6.448623796   15.126763103
    1.276794658   13.841051549    6.455485548   15.148331781
    1.283973289   13.863259199    6.462405127   15.170092034
    1.291151920   13.885683491    6.469382942   15.192045404
    1.298330551   13.908326648    6.476419409   15.214193452
    1.305509182   13.931190931    6.483514947   15.236537760
    1.312687813   13.954278642    6.490669983   15.259079934
    1.319866444   13.977592123    6.497884949   15.281821600
    1.327045075   14.001133757    6.505160281   15.304764407
    1.334223706   14.024905970    6.512496423   15.327910031
    1.341402337   14.048911231    6.519893824   15.351260165
    1.348580968   14.073152054    6.527352937   15.374816532
    1.355759599   14.097630996    6.534874223   15.398580874
    1.362938230   14.122350664    6.542458150   15.422554962
    1.370116861   14.147313710    6.550105189   15.446740589
    1.377295492   14.172522834    6.557815820   15.471139575
    1.384474124   14.197980788    6.565590529   15.495753765
    1.391652755   14.223690374    6.573429806   15.520585031
    1.398831386   14.249654444    6.581334151   15.545635271
    1.406010017   14.275875906    6.589304068   15.570906411
    1.413188648   14.302357720    6.597340069   15.596400405
    1.420367279   14.329102905    6.605442673   15.622119233
    1.427545910   14.356114534    6.613612405   15.648064906
    1.434724541   14.383395741    6.621849798   15.674239463
    1.441903172   14.410949718    6.630155392   15.700644972
    1.449081803   14.438779721    6.638529733   15.727283533
    1.456260434   14.466889066    6.646973377   15.754157275
    1.463439065   14.495281137    6.655486885   15.781268358
    1.470617696   14.523959381    6.664070826   15.808618976
    1.477796327   14.552927315    6.672725772   15.836211352
    1.484974958   14.582188526    6.681452309   15.864047744
    1.492153589   14.611746670    6.690251041   15.892130444
    1.499332220   14.641605479    6.699122571   15.920461777
    1.506510851   14.671768760    6.708067505   15.949044102
    1.513689482   14.702240395    6.717086460   15.977879815
    1.520868114   14.733024347    6.726180061   16.006971346
    1.528046745   14.764124661    6.735348946   16.036321160
    1.535225376   14.795545464    6.744593757   16.065931758
    1.542404007   14.827290970    6.753915149   16.095805685
    1.549582638   14.859365480    6.763313785   16.125945534
    1.556761269   14.891773387    6.772790337   16.156353923
    1.563939900   14.924519176    6.782345486   16.187033511
    1.571118531   14.957607429    6.791979925   16.217986996
    1.578297162   14.991042824    6.801694353   16.249217123
    1.585475793   15.024830143    6.811489482   16.280726677
    1.592654424   15.058974270    6.821366034   16.312518487
    1.599833055   15.093480197    6.831324740   16.344595426
    1.607011686   15.128353025    6.841366343   16.376960412
    1.614190317   15.163597970    6.851491595   16.409616409
    1.621368948   15.199220364    6.861701260   16.442566427
    1.628547579   15.235225658    6.871996114   16.475813524
    1.635726210   15.271619428    6.882376942   16.509360806
    1.642904841   15.308407377    6.892844543   16.543211430
    1.650083472   15.345595339    6.903399726   16.577368600
    1.657262104   15.383189284    6.914043312   16.611835575
    1.664440735   15.421195319    6.924776136   16.646615666
    1.671619366   15.459619699    6.935599043   16.681712234
    1.678797997   15.498468823    6.946512893   16.717128699
    1.685976628   15.537749245    6.957518556   16.752868534
    1.693155259   15.577467678    6.968616917   16.788935270
    1.700333890   15.617630995    6.979808875   16.825332495
    1.707512521   15.658246239    6.991095341   16.862063856
    1.714691152   15.699320625    7.002477240   16.899133063
    1.721869783   15.740861550    7.013955513   16.936543884
    1.729048414   15.782876590    7.025531113   16.974300151
    1.736227045   15.825373502    7.037205008   17.012405763
    1.743405676   15.868360210    7.048978183   17.050864681
    1.750584307   15.911844856    7.060851637   17.089680934
    1.757762938   15.955835930    7.072826383   17.128858621
    1.764941569   16.000342067    7.084903452   17.168401909
    1.772120200   16.045372025    7.097083891   17.208315037
    1.779298831   16.090934918    7.109368762   17.248602315
    1.786477462   16.137040073    7.121759140   17.289268125
    1.793656093   16.183697008    7.134256118   17.330316920
    1.800834725   16.230915529    7.146860818   17.371753252
    1.808013356   16.278705724    7.159574377   17.413581743
    1.815191987   16.327077958    7.172397933   17.455807057
    1.822370618   16.376042886    7.185332651   17.498433972
    1.829549249   16.425611466    7.198379743   17.541467434
    1.836727880   16.475794967    7.211540417   17.584912408
    1.843906511   16.526604983    7.224815892   17.628773906
    1.851085142   16.578053448    7.238207412   17.673057051
    1.858263773   16.630152640    7.251716242   17.717767068
    1.865442404   16.682915204    7.265343671   17.762909278
    1.872621035   16.736354162    7.279091011   17.808489101
    1.879799666   16.790482929    7.292959593   17.854512059
    1.886978297   16.845315328    7.306950772   17.900983772
    1.894156928   16.900865610    7.321065926   17.947909966
    1.901335559   16.957148465    7.335306456   17.995296473
    1.908514190   17.014179050    7.349673787   18.043149235
    1.915692821   17.071972997    7.364169369   18.091474304
    1.922871452   17.130546445    7.378794675   18.140277849
    1.930050083   17.189916052    7.393551206   18.189566154
    1.937228715   17.250099025    7.408440487   18.239345624
    1.944407346   17.311113137    7.423464072   18.289622787
    1.951585977   17.372976760    7.438623540   18.340404297
    1.958764608   17.435708878    7.453920499   18.391696936
    1.965943239   17.499329118    7.469356585   18.443507622
    1.973121870   17.563857762    7.484933465   18.495843404
    1.980300501   17.629315867    7.500652834   18.548711474
    1.987479132   17.695725296    7.516516417   18.602119164
    1.994657763   17.763108593    7.532525972   18.656073954
    2.001836394   17.831489100    7.548683289   18.710583474
    2.009015025   17.900891036    7.564990190   18.765655507
    2.016193656   17.971339526    7.581448531   18.821297995
    2.023372287   18.042860643    7.598060202   18.877519042
    2.030550918   18.115481450    7.614827128   18.934326919
    2.037729549   18.189230052    7.631751271   18.991730066
    2.044908180   18.264135648    7.648834629   19.049737102
    2.052086811   18.340228589    7.666079240   19.108356824
    2.059265442   18.417540440    7.683487177   19.167598215
    2.066444073   18.496104039    7.701060556   19.227470445
    2.073622705   18.575953567    7.718801533   19.287982869
    2.080801336   18.657124601    7.736712305   19.349144991
    2.087979967   18.739654149    7.754795111   19.410966384
    2.095158598   18.823580809    7.773052235   19.473456845
    2.102337229   18.908945199    7.791486010   19.536627095
    2.109515860   18.995789615    7.810098814   19.600487920
    2.116694491   19.084157941    7.828893068   19.665049729
    2.123873122   19.174096078    7.847871244   19.730323250
    2.131051753   19.265652075    7.867035863   19.796319566
    2.138230384   19.358876188    7.886389487   19.863050031
    2.145409015   19.453821018    7.905934732   19.930526256
    2.152587646   19.550541914    7.925674304   19.998760211
    2.159766277   19.649096950    7.945610967   20.067764146
    2.166944908   19.749546800    7.965747498   20.137550494
    2.174123539   19.851955152    7.986086708   20.208131978
    2.181302170   19.956388966    8.006631386   20.279521613
    2.188480801   20.062918664    8.027384267   20.351732705
    2.195659432   20.171618431    8.048348574   20.424778972
    2.202838063   20.282566454    8.069527968   20.498674539
    2.210016694   20.395845057    8.090925532   20.573433726
    2.217195326   20.511541076    8.112544297   20.649071176
    2.224373957   20.629746228    8.134387503   20.725601917
    2.231552588   20.750557462    8.156458520   20.803041357
    2.238731219   20.874077347    8.178760809   20.881405276
    2.245909850   21.000414495    8.201297909   20.960709869
    2.253088481   21.129684038    8.224073441   21.040971778
    2.260267112   21.262008140    8.247091107   21.122208026
    2.267445743   21.397516566    8.270354694   21.204436050
    2.274624374   21.536347303    8.293868070   21.287673751
    2.281803005   21.678647245    8.317635164   21.371939488
    2.288981636   21.824572960    8.341659949   21.457252089
    2.296160267   21.974291555    8.365946584   21.543630899
    2.303338898   22.127981572    8.390499537   21.631095823
    2.310517529   22.285833994    8.415323191   21.719667254
    2.317696160   22.448053418    8.440421918   21.809366112
    2.324874791   22.614859340    8.465800248   21.900213898
    2.332053422   22.786487568    8.491462854   21.992232707
    2.339232053   22.963191816    8.517414533   22.085445247
    2.346410684   23.145245485    8.543660203   22.179874862
    2.353589316   23.332943669    8.570204907   22.275545550
    2.360767947   23.526605406    8.597053817   22.372481989
    2.367946578   23.726576226    8.624212235   22.470709563
    2.375125209   23.933231029    8.651685601   22.570254380
    2.382303840   24.146977352    8.679479497   22.671143296
    2.389482471   24.368259092    8.707599651   22.773403956
    2.396661102   24.597560745    8.736051950   22.877064856
    2.403839733   24.835412241    8.764842437   22.982155411
    2.411018364   25.082394508    8.793977319   23.088705872
    2.418196995   25.339145857    8.823462964   23.196747329
    2.425375626   25.606369321    8.853305912   23.306311816
    2.432554257   25.884841349    8.883512871   23.417432409
    2.439732888   26.175421849    8.914090694   23.530143365
    2.446911519   26.479064327    8.945046263   23.644479894
    2.454090150   26.796828164    8.976386781   23.760478139
    2.461268781   27.129900513    9.008120289   23.878175450
    2.468447412   27.479624662    9.040254814   23.997610696
    2.475626043   27.847502761    9.072798183   24.118823845
    2.482804674   28.235223231    9.105758458   24.241856623
    2.489983306   28.644703053    9.139144033   24.366752080
    2.497161937   29.078126207    9.172963595   24.493554123
    2.504340568   29.537990678    9.207226119   24.622308250
    2.511519199   30.027166574    9.241940862   24.753061575
    2.518697830   30.548967921    9.277117371   24.885862584
    2.525876461   31.107241946    9.312765488   25.020761226
    2.533055092   31.706481344    9.348895383   25.157810888
    2.540233723   32.351964680    9.385517576   25.297067561
