# energy grid [eV]     epsr_x  epsr_y  epsr_z
#
    0.200000000   15.241226611   14.432163025   12.260327793
    0.207178631   15.244993538   14.435709477   12.263154638
    0.214357262   15.248895950   14.439383810   12.266083089
    0.221535893   15.252934128   14.443186327   12.269113351
    0.228714524   15.257108366   14.447117343   12.272245637
    0.235893155   15.261418968   14.451177186   12.275480166
    0.243071786   15.265866248   14.455366193   12.278817167
    0.250250417   15.270450532   14.459684718   12.282256874
    0.257429048   15.275172157   14.464133125   12.285799532
    0.264607679   15.280031470   14.468711791   12.289445391
    0.271786311   15.285028831   14.473421107   12.293194712
    0.278964942   15.290164610   14.478261476   12.297047763
    0.286143573   15.295439191   14.483233317   12.301004820
    0.293322204   15.300852968   14.488337061   12.305066167
    0.300500835   15.306406347   14.493573153   12.309232098
    0.307679466   15.312099746   14.498942053   12.313502915
    0.314858097   15.317933598   14.504444237   12.317878928
    0.322036728   15.323908345   14.510080195   12.322360458
    0.329215359   15.330024445   14.515850431   12.326947832
    0.336393990   15.336282366   14.521755469   12.331641389
    0.343572621   15.342682592   14.527795844   12.336441476
    0.350751252   15.349225619   14.533972112   12.341348448
    0.357929883   15.355911957   14.540284844   12.346362673
    0.365108514   15.362742130   14.546734629   12.351484527
    0.372287145   15.369716676   14.553322075   12.356714394
    0.379465776   15.376836148   14.560047806   12.362052672
    0.386644407   15.384101115   14.566912468   12.367499766
    0.393823038   15.391512160   14.573916725   12.373056093
    0.401001669   15.399069880   14.581061262   12.378722081
    0.408180301   15.406774891   14.588346785   12.384498167
    0.415358932   15.414627824   14.595774021   12.390384803
    0.422537563   15.422629326   14.603343720   12.396382447
    0.429716194   15.430780062   14.611056655   12.402491572
    0.436894825   15.439080714   14.618913623   12.408712664
    0.444073456   15.447531983   14.626915445   12.415046217
    0.451252087   15.456134588   14.635062969   12.421492742
    0.458430718   15.464889267   14.643357069   12.428052758
    0.465609349   15.473796778   14.651798648   12.434726801
    0.472787980   15.482857899   14.660388637   12.441515419
    0.479966611   15.492073428   14.669127997   12.448419172
    0.487145242   15.501444186   14.678017720   12.455438635
    0.494323873   15.510971017   14.687058832   12.462574400
    0.501502504   15.520654785   14.696252393   12.469827069
    0.508681135   15.530496381   14.705599499   12.477197264
    0.515859766   15.540496719   14.715101282   12.484685618
    0.523038397   15.550656739   14.724758917   12.492292784
    0.530217028   15.560977408   14.734573617   12.500019430
    0.537395659   15.571459721   14.744546639   12.507866241
    0.544574290   15.582104702   14.754679287   12.515833920
    0.551752922   15.592913402   14.764972912   12.523923189
    0.558931553   15.603886909   14.775428917   12.532134786
    0.566110184   15.615026340   14.786048758   12.540469473
    0.573288815   15.626332846   14.796833948   12.548928029
    0.580467446   15.637807617   14.807786059   12.557511255
    0.587646077   15.649451879   14.818906730   12.566219975
    0.594824708   15.661266897   14.830197664   12.575055034
    0.602003339   15.673253980   14.841660638   12.584017303
    0.609181970   15.685414479   14.853297507   12.593107674
    0.616360601   15.697749794   14.865110205   12.602327068
    0.623539232   15.710261372   14.877100756   12.611676432
    0.630717863   15.722950713   14.889271276   12.621156741
    0.637896494   15.735819374   14.901623984   12.630769000
    0.645075125   15.748868969   14.914161203   12.640514244
    0.652253756   15.762101176   14.926885377   12.650393542
    0.659432387   15.775517740   14.939799070   12.660407994
    0.666611018   15.789120477   14.952904984   12.670558741
    0.673789649   15.802911281   14.966205966   12.680846957
    0.680968280   15.816892128   14.979705022   12.691273861
    0.688146912   15.831065084   14.993405329   12.701840710
    0.695325543   15.845432310   15.007310250   12.712548810
    0.702504174   15.859996070   15.021423353   12.723399513
    0.709682805   15.874758743   15.035748428   12.734394223
    0.716861436   15.889722828   15.050289507   12.745534399
    0.724040067   15.904890958   15.065050891   12.756821558
    0.731218698   15.920265911   15.080037174   12.768257280
    0.738397329   15.935850625   15.095253273   12.779843213
    0.745575960   15.951648210   15.110704464   12.791581078
    0.752754591   15.967661972   15.126396419   12.803472674
    0.759933222   15.983895428   15.142335251   12.815519886
    0.767111853   16.000352329   15.158527563   12.827724691
    0.774290484   16.017036689   15.174980507   12.840089169
    0.781469115   16.033952812   15.191701848   12.852615510
    0.788647746   16.051105329   15.208700044   12.865306025
    0.795826377   16.068499236   15.225984331   12.878163159
    0.803005008   16.086139942   15.243564825   12.891189506
    0.810183639   16.104033320   15.261452646   12.904387823
    0.817362270   16.122185775   15.279660053   12.917761052
    0.824540902   16.140604312   15.298200612   12.931312338
    0.831719533   16.159296627   15.317089389   12.945045058
    0.838898164   16.178271212   15.336343182   12.958962849
    0.846076795   16.197537473   15.355980795   12.973069643
    0.853255426   16.217105885   15.376023372   12.987369712
    0.860434057   16.236988164   15.396494792   13.001867713
    0.867612688   16.257197489   15.417422156   13.016568752
    0.874791319   16.277748760   15.438836376   13.031478455
    0.881969950   16.298658928   15.460772906   13.046603056
    0.889148581   16.319947394   15.483272638   13.061949507
    0.896327212   16.341636510   15.506383028   13.077525612
    0.903505843   16.363752205   15.530159507   13.093340193
    0.910684474   16.386324790   15.554667276   13.109403305
    0.917863105   16.409389972   15.579983601   13.125726498
    0.925041736   16.432990177   15.606200778   13.142323168
    0.932220367   16.457176274   15.633430009   13.159209005
    0.939398998   16.482009843   15.661806522   13.176402574
    0.946577629   16.507566216   15.691496398   13.193926105
    0.953756260   16.533938575   15.722705815   13.211806542
    0.960934891   16.561243561   15.755693672   13.230076974
    0.968113523   16.589629037   15.790789082   13.248778618
    0.975292154   16.619284936   15.828415828   13.267963570
    0.982470785   16.650458560   15.869126831   13.287698691
    0.989649416   16.683476147   15.913652771   13.308071060
    0.996828047   16.718772808   15.962969590   13.329195540
    1.004006678   16.756931829   16.018387077   13.351224709
    1.011185309   16.798727136   16.081644625   13.374359586
    1.018363940   16.845132311   16.154931487   13.398851992
    1.025542571   16.897138552   16.240476055   13.424959009
    1.032721202   16.954744091   16.338266146   13.452689663
    1.039899833   17.012595551   16.436216874   13.480711908
    1.047078464   17.043803367   16.473662157   13.502293613
    1.054257095   16.967152903   16.267391077   13.497079094
    1.061435726   16.738157217   15.717039685   13.453926260
    1.068614357   16.576277583   15.317642879   13.427895877
    1.075792988   16.569230075   15.267049426   13.441008827
    1.082971619   16.621918504   15.350726986   13.469438747
    1.090150250   16.683884563   15.454831549   13.500559377
    1.097328881   16.742463114   15.550766488   13.531229051
    1.104507513   16.795997679   15.634762138   13.561074527
    1.111686144   16.845256691   15.708511159   13.590340296
    1.118864775   16.891316985   15.774391683   13.619360741
    1.126043406   16.935115833   15.834453200   13.648451960
    1.133222037   16.977405124   15.890308090   13.677906111
    1.140400668   17.018792387   15.943216907   13.708009919
    1.147579299   17.059792690   15.994195235   13.739069115
    1.154757930   17.100875782   16.044106289   13.771435463
    1.161936561   17.142506270   16.093735439   13.805534211
    1.169115192   17.185170841   16.143842431   13.841879472
    1.176293823   17.229359263   16.195157486   13.881020483
    1.183472454   17.275356549   16.248167701   13.923185038
    1.190651085   17.322272027   16.302068725   13.966688473
    1.197829716   17.364212577   16.350616077   14.001789280
    1.205008347   17.379936899   16.371184698   13.995336701
    1.212186978   17.341479978   16.335976924   13.912158665
    1.219365609   17.299655976   16.301490134   13.837245870
    1.226544240   17.312813003   16.326078345   13.840684954
    1.233722871   17.355720266   16.382923250   13.881997277
    1.240901503   17.405431666   16.449532323   13.931568272
    1.248080134   17.455304356   16.519920465   13.981308835
    1.255258765   17.504222664   16.592296497   14.029920587
    1.262437396   17.552152949   16.659542842   14.076978508
    1.269616027   17.598366058   16.690318925   14.119549512
    1.276794658   17.640503825   16.610804607   14.149841376
    1.283973289   17.679992642   16.446157344   14.171353785
    1.291151920   17.724473277   16.384108084   14.206119327
    1.298330551   17.774087641   16.422674661   14.254136801
    1.305509182   17.825445252   16.490134828   14.306007607
    1.312687813   17.873999489   16.556478129   14.352512270
    1.319866444   17.914225596   16.611429404   14.383777519
    1.327045075   17.956013536   16.662017778   14.416240773
    1.334223706   18.012547505   16.718974886   14.472099187
    1.341402337   18.078557452   16.779380908   14.543217343
    1.348580968   18.143019937   16.838702483   14.615523287
    1.355759599   18.177931839   16.889924736   14.659155592
    1.362938230   18.125469190   16.920641236   14.609109755
    1.370116861   18.015815785   16.942302532   14.487031622
    1.377295492   17.991208562   16.985917988   14.459574803
    1.384474124   18.043628145   17.047206951   14.529356078
    1.391652755   18.119893721   17.115601968   14.634535414
    1.398831386   18.200351099   17.186536055   14.749217050
    1.406010017   18.279446456   17.252321657   14.854146518
    1.413188648   18.350784800   17.287693031   14.897828649
    1.420367279   18.406618694   17.260248179   14.819322071
    1.427545910   18.452381385   17.199332345   14.693792080
    1.434724541   18.469073325   17.140837687   14.553003955
    1.441903172   18.413234004   17.136767494   14.367887623
    1.449081803   18.349742516   17.186422758   14.231294018
    1.456260434   18.371557504   17.256614428   14.251744221
    1.463439065   18.436791577   17.327342656   14.332137659
    1.470617696   18.495686896   17.386489899   14.363448804
    1.477796327   18.541168079   17.436052819   14.340026671
    1.484974958   18.602718889   17.495267112   14.366576520
    1.492153589   18.680607213   17.564911829   14.444435859
    1.499332220   18.761267364   17.637328429   14.534586319
    1.506510851   18.828621019   17.703363928   14.621619006
    1.513689482   18.847778888   17.742673329   14.699108991
    1.520868114   18.809776484   17.749301916   14.765828045
    1.528046745   18.806602034   17.773080957   14.829896249
    1.535225376   18.857653570   17.811882795   14.880628872
    1.542404007   18.923079968   17.833831590   14.905113643
    1.549582638   18.995394087   17.872264549   14.942561948
    1.556761269   19.074504166   17.944236815   15.012000026
    1.563939900   19.152481156   18.026908469   15.095992010
    1.571118531   19.221400401   18.102031489   15.182332415
    1.578297162   19.280827641   18.160645280   15.257346013
    1.585475793   19.312859206   18.162167028   15.276756317
    1.592654424   19.288538934   18.059802260   15.180806189
    1.599833055   19.274406614   17.983785604   15.071868359
    1.607011686   19.320911514   18.016421967   15.079171256
    1.614190317   19.395813839   18.093918923   15.144848716
    1.621368948   19.475104977   18.168056265   15.184824506
    1.628547579   19.551727424   18.221362999   15.158178015
    1.635726210   19.628187245   18.276936493   15.146354965
    1.642904841   19.706889897   18.349325797   15.197453123
    1.650083472   19.787187477   18.428462845   15.274205120
    1.657262104   19.868795388   18.508430414   15.354522571
    1.664440735   19.951022568   18.587199973   15.432977219
    1.671619366   20.029768333   18.660904341   15.508265563
    1.678797997   20.096627123   18.722015261   15.578791240
    1.685976628   20.158350762   18.776548018   15.645342841
    1.693155259   20.224441023   18.832864921   15.704010596
    1.700333890   20.265705356   18.864475062   15.731886526
    1.707512521   20.282806275   18.871547187   15.734184374
    1.714691152   20.338300124   18.909908510   15.767883099
    1.721869783   20.431089411   18.979705473   15.833073474
    1.729048414   20.528539405   19.059057324   15.905169296
    1.736227045   20.589725157   19.139537552   15.964234254
    1.743405676   20.558271854   19.219252301   15.988404912
    1.750584307   20.496948596   19.298676450   16.001036415
    1.757762938   20.527629772   19.378965561   16.047626952
    1.764941569   20.618128768   19.460520320   16.116522177
    1.772120200   20.723686446   19.543672011   16.191390755
    1.779298831   20.830373884   19.628859972   16.267318279
    1.786477462   20.935824783   19.716261752   16.343583196
    1.793656093   21.040378043   19.804563418   16.420030785
    1.800834725   21.144339478   19.886768271   16.494847818
    1.808013356   21.246898976   19.944678551   16.562563601
    1.815191987   21.349416917   19.980353972   16.624414984
    1.822370618   21.458319882   20.042815466   16.697188126
    1.829549249   21.575529083   20.136874355   16.783199509
    1.836727880   21.700784222   20.244564445   16.877434898
    1.843906511   21.835077700   20.359150327   16.978864341
    1.851085142   21.978924478   20.479539731   17.088753105
    1.858263773   22.126633803   20.603667301   17.208774069
    1.865442404   22.247473931   20.719256882   17.338424263
    1.872621035   22.258259223   20.791594351   17.467503297
    1.879799666   22.134581020   20.807873861   17.557022547
    1.886978297   21.998216320   20.798478069   17.498266634
    1.894156928   21.870013632   20.738567643   17.208534319
    1.901335559   21.821435180   20.711614116   16.939542364
    1.908514190   21.907142832   20.793565090   16.913168711
    1.915692821   22.068183199   20.941971115   17.041630317
    1.922871452   22.246511603   21.111095433   17.209707090
    1.930050083   22.416742698   21.281262805   17.357769928
    1.937228715   22.550737852   21.429480357   17.412782370
    1.944407346   22.615068001   21.520229592   17.338115090
    1.951585977   22.628242772   21.550488270   17.291591161
    1.958764608   22.675055165   21.598585710   17.353800180
    1.965943239   22.790122118   21.664300312   17.458316801
    1.973121870   22.913487986   21.593674847   17.511696620
    1.980300501   23.030629066   21.454915628   17.523508933
    1.987479132   23.158549158   21.468592337   17.560155428
    1.994657763   23.278298824   21.608586858   17.601301090
    2.001836394   23.409597328   21.804010985   17.668292612
    2.009015025   23.576156405   22.024105175   17.787138425
    2.016193656   23.762315554   22.246250910   17.920381846
    2.023372287   23.950967163   22.436378058   18.026304638
    2.030550918   24.113486690   22.544912616   18.086438345
    2.037729549   24.184319989   22.507081383   18.136262629
    2.044908180   24.143948371   22.296237177   18.192402100
    2.052086811   24.170391002   22.206210550   18.285577245
    2.059265442   24.325451078   22.344308758   18.412479417
    2.066444073   24.488086004   22.544089552   18.534202559
    2.073622705   24.555015063   22.691300088   18.619580065
    2.080801336   24.599602313   22.830264907   18.698838854
    2.087979967   24.671201558   23.021750282   18.795755178
    2.095158598   24.656638972   23.197698065   18.866787356
    2.102337229   24.654930673   23.311975458   18.907478433
    2.109515860   24.755734264   23.386906975   18.941103939
    2.116694491   24.942703954   23.557240147   19.030923669
    2.123873122   25.148039517   23.769741445   19.164384651
    2.131051753   25.273314911   23.768489344   19.276861801
    2.138230384   25.269687815   23.349708681   19.313293319
    2.145409015   25.289279252   22.945338953   19.310818879
    2.152587646   25.421003950   22.905965686   19.364064148
    2.159766277   25.615920462   23.108352511   19.488255829
    2.166944908   25.856042189   23.405889825   19.649752595
    2.174123539   26.111838960   23.718833618   19.822506046
    2.181302170   26.351919646   24.001926554   19.991416310
    2.188480801   26.521509531   24.184105032   20.128673332
    2.195659432   26.596307422   24.227537478   20.186492674
    2.202838063   26.689006015   24.279960188   20.167510679
    2.210016694   26.857666953   24.428035194   20.178304172
    2.217195326   27.047019108   24.583871257   20.287225561
    2.224373957   27.149012826   24.577390119   20.428386913
    2.231552588   27.223656775   24.519665878   20.560739093
    2.238731219   27.406966418   24.642568483   20.700513104
    2.245909850   27.653521898   24.864522122   20.860562317
    2.253088481   27.891662214   25.091121683   21.035239264
    2.260267112   28.104793471   25.295064248   21.216431373
    2.267445743   28.301520247   25.455442785   21.392881162
    2.274624374   28.483943297   25.588432013   21.557316393
    2.281803005   28.697107739   25.761058396   21.698871102
    2.288981636   28.913493935   25.955698541   21.774482792
    2.296160267   29.081944754   26.144616666   21.773319719
    2.303338898   29.265581063   26.364546852   21.830694367
    2.310517529   29.479253162   26.617024094   21.969237293
    2.317696160   29.739966602   26.883042196   22.157950070
    2.324874791   30.057554451   27.150239593   22.379767247
    2.332053422   30.376277111   27.400472332   22.583126774
    2.339232053   30.668715033   27.630184794   22.736707074
    2.346410684   30.929163933   27.845859900   22.846703485
    2.353589316   31.179956383   28.070064896   22.971086457
    2.360767947   31.454411975   28.318575371   23.135652242
    2.367946578   31.705684399   28.567697750   23.294962946
    2.375125209   31.988775968   28.820242810   23.497057627
    2.382303840   32.356083629   29.088532105   23.761585869
    2.389482471   32.782792339   29.384675978   24.052547493
    2.396661102   33.231046625   29.695844894   24.361464775
    2.403839733   33.589346799   29.957757255   24.663898219
    2.411018364   33.814704175   30.174087668   24.929326102
    2.418196995   33.999461350   30.445158509   25.073802116
    2.425375626   33.988480853   30.741720803   24.922371719
    2.432554257   33.878424644   31.025286756   24.680833532
    2.439732888   34.013629171   31.307055211   24.682951889
    2.446911519   34.452855315   31.540308945   24.870874918
    2.454090150   34.924674187   31.759550569   25.089296476
    2.461268781   35.261014022   32.013425634   25.327142938
    2.468447412   35.590280377   32.329346298   25.648384018
    2.475626043   35.909597501   32.723774697   26.004520738
    2.482804674   36.161978658   33.129465718   26.342162588
    2.489983306   36.591428155   33.547901276   26.698204010
    2.497161937   37.206779534   33.972966790   27.072851964
    2.504340568   37.934840205   34.437218789   27.479186232
    2.511519199   38.735350188   34.931893172   27.907988440
    2.518697830   39.506039446   35.356234576   28.282557550
    2.525876461   40.179362902   35.726367939   28.557789381
    2.533055092   40.885509867   36.215891735   28.940014056
    2.540233723   41.697398798   36.810160222   29.528547208
