# energy grid [eV]     epsr_x  epsr_y  epsr_z
#
    0.200000000   12.611837973   13.671255515    5.562971013
    0.207178631   12.614710794   13.674195506    5.563857881
    0.214357262   12.617686840   13.677241100    5.564776600
    0.221535893   12.620766313   13.680392502    5.565727230
    0.228714524   12.623949427   13.683649926    5.566709836
    0.235893155   12.627236399   13.687013595    5.567724484
    0.243071786   12.630627458   13.690483738    5.568771245
    0.250250417   12.634122836   13.694060594    5.569850188
    0.257429048   12.637722777   13.697744409    5.570961389
    0.264607679   12.641427531   13.701535440    5.572104923
    0.271786311   12.645237355   13.705433949    5.573280871
    0.278964942   12.649152518   13.709440209    5.574489314
    0.286143573   12.653173292   13.713554501    5.575730337
    0.293322204   12.657299961   13.717777116    5.577004028
    0.300500835   12.661532816   13.722108352    5.578310476
    0.307679466   12.665872157   13.726548519    5.579649775
    0.314858097   12.670318292   13.731097934    5.581022021
    0.322036728   12.674871537   13.735756926    5.582427313
    0.329215359   12.679532219   13.740525831    5.583865753
    0.336393990   12.684300673   13.745404998    5.585337447
    0.343572621   12.689177241   13.750394785    5.586842501
    0.350751252   12.694162277   13.755495559    5.588381030
    0.357929883   12.699256142   13.760707700    5.589953146
    0.365108514   12.704459210   13.766031598    5.591558969
    0.372287145   12.709771860   13.771467654    5.593198621
    0.379465776   12.715194483   13.777016280    5.594872226
    0.386644407   12.720727482   13.782677902    5.596579915
    0.393823038   12.726371266   13.788452954    5.598321821
    0.401001669   12.732126257   13.794341888    5.600098079
    0.408180301   12.737992886   13.800345162    5.601908831
    0.415358932   12.743971597   13.806463254    5.603754223
    0.422537563   12.750062842   13.812696649    5.605634402
    0.429716194   12.756267085   13.819045851    5.607549524
    0.436894825   12.762584802   13.825511376    5.609499746
    0.444073456   12.769016480   13.832093754    5.611485231
    0.451252087   12.775562618   13.838793532    5.613506147
    0.458430718   12.782223727   13.845611271    5.615562667
    0.465609349   12.789000329   13.852547550    5.617654968
    0.472787980   12.795892960   13.859602964    5.619783234
    0.479966611   12.802902170   13.866778125    5.621947654
    0.487145242   12.810028519   13.874073664    5.624148423
    0.494323873   12.817272582   13.881490231    5.626385741
    0.501502504   12.824634949   13.889028493    5.628659815
    0.508681135   12.832116223   13.896689142    5.630970860
    0.515859766   12.839717022   13.904472886    5.633319095
    0.523038397   12.847437978   13.912380460    5.635704749
    0.530217028   12.855279740   13.920412620    5.638128057
    0.537395659   12.863242972   13.928570145    5.640589260
    0.544574290   12.871328353   13.936853842    5.643088612
    0.551752922   12.879536583   13.945264542    5.645626371
    0.558931553   12.887868375   13.953803106    5.648202807
    0.566110184   12.896324463   13.962470423    5.650818197
    0.573288815   12.904905598   13.971267415    5.653472831
    0.580467446   12.913612550   13.980195034    5.656167007
    0.587646077   12.922446112   13.989254269    5.658901035
    0.594824708   12.931407094   13.998446144    5.661675239
    0.602003339   12.940496329   14.007771722    5.664489952
    0.609181970   12.949714674   14.017232106    5.667345522
    0.616360601   12.959063007   14.026828446    5.670242312
    0.623539232   12.968542233   14.036561934    5.673180700
    0.630717863   12.978153280   14.046433815    5.676161078
    0.637896494   12.987897104   14.056445385    5.679183857
    0.645075125   12.997774690   14.066597998    5.682249467
    0.652253756   13.007787050   14.076893068    5.685358356
    0.659432387   13.017935228   14.087332075    5.688510994
    0.666611018   13.028220302   14.097916569    5.691707875
    0.673789649   13.038643383   14.108648176    5.694949516
    0.680968280   13.049205617   14.119528604    5.698236462
    0.688146912   13.059908192   14.130559650    5.701569286
    0.695325543   13.070752333   14.141743209    5.704948593
    0.702504174   13.081739313   14.153081280    5.708375021
    0.709682805   13.092870447   14.164575977    5.711849247
    0.716861436   13.104147102   14.176229542    5.715371987
    0.724040067   13.115570699   14.188044351    5.718944004
    0.731218698   13.127142715   14.200022938    5.722566107
    0.738397329   13.138864690   14.212167998    5.726239163
    0.745575960   13.150738229   14.224482417    5.729964095
    0.752754591   13.162765013   14.236969285    5.733741896
    0.759933222   13.174946798   14.249631920    5.737573630
    0.767111853   13.187285430   14.262473897    5.741460445
    0.774290484   13.199782849   14.275499080    5.745403581
    0.781469115   13.212441098   14.288711654    5.749404383
    0.788647746   13.225262337   14.302116167    5.753464310
    0.795826377   13.238248854   14.315717584    5.757584957
    0.803005008   13.251403081   14.329521338    5.761768068
    0.810183639   13.264727608   14.343533399    5.766015559
    0.817362270   13.278225207   14.357760353    5.770329545
    0.824540902   13.291898857   14.372209500    5.774712366
    0.831719533   13.305751767   14.386888962    5.779166628
    0.838898164   13.319787413   14.401807821    5.783695242
    0.846076795   13.334009581   14.416976286    5.788301479
    0.853255426   13.348422412   14.432405891    5.792989032
    0.860434057   13.363030463   14.448109740    5.797762095
    0.867612688   13.377838786   14.464102814    5.802625461
    0.874791319   13.392853009   14.480402348    5.807584637
    0.881969950   13.408079459   14.497028307    5.812646003
    0.889148581   13.423525303   14.514003982    5.817816993
    0.896327212   13.439198725   14.531356769    5.823106348
    0.903505843   13.455109170   14.549119148    5.828524422
    0.910684474   13.471267637   14.567329986    5.834083600
    0.917863105   13.487687090   14.586036232    5.839798831
    0.925041736   13.504382980   14.605295195    5.845688352
    0.932220367   13.521373964   14.625177606    5.851774657
    0.939398998   13.538682879   14.645771806    5.858085829
    0.946577629   13.556338083   14.667189532    5.864657367
    0.953756260   13.574375334   14.689574005    5.871534754
    0.960934891   13.592840419   14.713111320    5.878777064
    0.968113523   13.611792869   14.738046501    5.886462051
    0.975292154   13.631311108   14.764705823    5.894693222
    0.982470785   13.651499246   14.793526224    5.903609152
    0.989649416   13.672494536   14.825087625    5.913393733
    0.996828047   13.694469587   14.860122403    5.924279168
    1.004006678   13.717603720   14.899390572    5.936506433
    1.011185309   13.741919726   14.942969358    5.950100183
    1.018363940   13.766575187   14.987169698    5.963891795
    1.025542571   13.787202851   15.012964809    5.971853129
    1.032721202   13.790180974   14.961062027    5.955198404
    1.039899833   13.766301227   14.791366700    5.901224471
    1.047078464   13.752273220   14.663553596    5.860522236
    1.054257095   13.765864168   14.654881063    5.857570185
    1.061435726   13.790773887   14.694386414    5.869885154
    1.068614357   13.817781950   14.741901992    5.884740967
    1.075792988   13.844535833   14.787132015    5.898875952
    1.082971619   13.870726039   14.828659365    5.911841552
    1.090150250   13.896501106   14.867047396    5.923816738
    1.097328881   13.922074895   14.903128274    5.935065703
    1.104507513   13.947643435   14.937636973    5.945821911
    1.111686144   13.973376818   14.971170417    5.956275155
    1.118864775   13.999427834   15.004217397    5.966581059
    1.126043406   14.025943433   15.037197874    5.976873545
    1.133222037   14.053076434   15.070499241    5.987276351
    1.140400668   14.080997924   15.104509599    5.997913607
    1.147579299   14.109911607   15.139651088    6.008920443
    1.154757930   14.140071616   15.176416816    6.020454756
    1.161936561   14.171804805   15.215413911    6.032710936
    1.169115192   14.205535443   15.257409576    6.045934551
    1.176293823   14.241796953   15.303353659    6.060429556
    1.183472454   14.281162469   15.354258849    6.076520084
    1.190651085   14.323816868   15.410454194    6.094312364
    1.197829716   14.367666787   15.468284604    6.112642028
    1.205008347   14.401080267   15.507429752    6.125029432
    1.212186978   14.385140296   15.459906798    6.109792942
    1.219365609   14.281385186   15.258524341    6.045503592
    1.226544240   14.191509411   15.080896442    5.988814595
    1.233722871   14.190304030   15.057641188    5.981389877
    1.240901503   14.229637068   15.104663898    5.996410033
    1.248080134   14.276776920   15.164764774    6.015634337
    1.255258765   14.322861828   15.222431828    6.034119098
    1.262437396   14.366525689   15.275239441    6.051095182
    1.269616027   14.408121681   15.323757776    6.066749688
    1.276794658   14.448264583   15.369005305    6.081413557
    1.283973289   14.487511370   15.411889167    6.095383265
    1.291151920   14.526318395   15.453128140    6.108896472
    1.298330551   14.565059714   15.493281734    6.122141607
    1.305509182   14.604054013   15.532793441    6.135272035
    1.312687813   14.643588845   15.572028087    6.148418470
    1.319866444   14.683941254   15.611301232    6.161699005
    1.327045075   14.725396267   15.650902585    6.175227445
    1.334223706   14.768265214   15.691115929    6.189120843
    1.341402337   14.812905993   15.732237927    6.203507089
    1.348580968   14.859747675   15.774598065    6.218533488
    1.355759599   14.909322470   15.818582134    6.234377330
    1.362938230   14.962308931   15.864662030    6.251259751
    1.370116861   15.019591234   15.913434990    6.269464396
    1.377295492   15.082339052   15.965674528    6.289362321
    1.384474124   15.152105810   16.022389052    6.311442436
    1.391652755   15.230910650   16.084856146    6.336336792
    1.398831386   15.321137134   16.154488263    6.364789123
    1.406010017   15.424557879   16.231940457    6.397353098
    1.413188648   15.537722316   16.313120627    6.432966357
    1.420367279   15.633504256   16.373982156    6.463263670
    1.427545910   15.606754692   16.334885141    6.456130413
    1.434724541   15.261013687   16.110571763    6.353664293
    1.441903172   14.717483192   15.864221719    6.195464862
    1.449081803   14.472529646   15.801045860    6.127674021
    1.456260434   14.505365253   15.860158180    6.141789546
    1.463439065   14.613496140   15.942191749    6.174865401
    1.470617696   14.709070760   15.995886215    6.193779149
    1.477796327   14.779056215   16.020637647    6.196588026
    1.484974958   14.855194651   16.069591430    6.211451796
    1.492153589   14.940525150   16.145653689    6.239765831
    1.499332220   15.024622252   16.229127113    6.271189819
    1.506510851   15.101940861   16.305912474    6.300216962
    1.513689482   15.162465294   16.345632732    6.318868406
    1.520868114   15.186674133   16.290535399    6.312603706
    1.528046745   15.191856102   16.187573187    6.293582487
    1.535225376   15.227207865   16.174558035    6.297067719
    1.542404007   15.285503968   16.229607196    6.317660481
    1.549582638   15.349460327   16.302504710    6.342737415
    1.556761269   15.413578293   16.376548595    6.368200959
    1.563939900   15.477216837   16.448836555    6.393472525
    1.571118531   15.540965551   16.519976967    6.418874714
    1.578297162   15.605535338   16.591193914    6.444854934
    1.585475793   15.670882920   16.663120982    6.471474242
    1.592654424   15.733489566   16.733324785    6.496933763
    1.599833055   15.777774273   16.788499211    6.512887900
    1.607011686   15.771774579   16.797465595    6.501300814
    1.614190317   15.735396843   16.759687013    6.468234336
    1.621368948   15.739368849   16.729699204    6.449747823
    1.628547579   15.785335978   16.753281549    6.458030099
    1.635726210   15.848931314   16.818251417    6.482591502
    1.642904841   15.913390178   16.890865893    6.510814085
    1.650083472   15.967138497   16.945370727    6.536160478
    1.657262104   16.005851488   16.972294583    6.556809758
    1.664440735   16.050171337   17.013345529    6.580251321
    1.671619366   16.108332356   17.085269975    6.609712494
    1.678797997   16.171907744   17.170275184    6.642111928
    1.685976628   16.235755496   17.252773129    6.673096498
    1.693155259   16.295181320   17.301775572    6.689718528
    1.700333890   16.341655642   17.251756607    6.663352530
    1.707512521   16.379208336   17.131719018    6.606713332
    1.714691152   16.429570887   17.105332359    6.591561837
    1.721869783   16.492037792   17.165465142    6.614769707
    1.729048414   16.558857710   17.251325605    6.649693729
    1.736227045   16.627371256   17.340790346    6.686666589
    1.743405676   16.697294753   17.429656786    6.723904724
    1.750584307   16.768948063   17.518242622    6.761657939
    1.757762938   16.842557438   17.606857822    6.800324795
    1.764941569   16.917243328   17.691571624    6.838975894
    1.772120200   16.988243102   17.753843017    6.871929381
    1.779298831   17.046968568   17.760628705    6.888819754
    1.786477462   17.104822218   17.751776596    6.903561355
    1.793656093   17.183698173   17.805149116    6.942800070
    1.800834725   17.279169155   17.901972211    7.001129476
    1.808013356   17.383350434   18.013788292    7.068764985
    1.815191987   17.487597716   18.124897509    7.134314267
    1.822370618   17.562463735   18.202101392    7.158591771
    1.829549249   17.536544818   18.169413002    7.045841203
    1.836727880   17.424834623   18.048857853    6.812294398
    1.843906511   17.413446476   18.038306666    6.707230662
    1.851085142   17.508351651   18.139458057    6.744308203
    1.858263773   17.621070069   18.258454115    6.817746644
    1.865442404   17.666168878   18.295612754    6.854639411
    1.872621035   17.580283890   18.135669099    6.804953760
    1.879799666   17.508941939   17.931486399    6.751749572
    1.886978297   17.567972633   17.920413677    6.783548511
    1.894156928   17.689750564   18.022696027    6.856630998
    1.901335559   17.823465203   18.139233559    6.914597296
    1.908514190   17.948732865   18.215651787    6.888294147
    1.915692821   18.053645401   18.243396289    6.766420142
    1.922871452   18.156450048   18.296277787    6.707807422
    1.930050083   18.285425190   18.390224472    6.748140591
    1.937228715   18.435691229   18.496862909    6.823567561
    1.944407346   18.599087988   18.600915862    6.897694761
    1.951585977   18.769125256   18.689104868    6.937805861
    1.958764608   18.932962843   18.746830206    6.903355299
    1.965943239   19.079340376   18.800496981    6.848461508
    1.973121870   19.130627079   18.883373616    6.859020502
    1.980300501   18.843333581   18.983160981    6.898621778
    1.987479132   18.291776025   19.087669082    6.937448273
    1.994657763   18.070975661   19.192495901    6.991365323
    2.001836394   18.158081273   19.281296161    7.041463479
    2.009015025   18.306335249   19.323615090    7.030189679
    2.016193656   18.450208499   19.326421119    6.939307947
    2.023372287   18.613931460   19.341529387    6.889168182
    2.030550918   18.793807195   19.408303656    6.918235442
    2.037729549   18.960661167   19.502024772    6.967536443
    2.044908180   19.074881621   19.570490223    6.983759633
    2.052086811   19.148492032   19.614786979    6.962571676
    2.059265442   19.258535319   19.687802158    6.963351090
    2.066444073   19.407776879   19.801198233    7.006156963
    2.073622705   19.521956470   19.927797420    7.064285958
    2.080801336   19.538390292   20.030356576    7.114620562
    2.087979967   19.545776301   20.048715393    7.132078956
    2.095158598   19.611437302   19.956870332    7.105588647
    2.102337229   19.741043149   19.925858807    7.098433997
    2.109515860   19.924467350   20.017779751    7.135404338
    2.116694491   20.125019963   20.157741585    7.188844525
    2.123873122   20.309414115   20.301751238    7.241144452
    2.131051753   20.425187840   20.417807555    7.278477268
    2.138230384   20.479073158   20.469937649    7.294313431
    2.145409015   20.595487031   20.502656728    7.314103410
    2.152587646   20.747501943   20.588068957    7.357429147
    2.159766277   20.777691025   20.672941883    7.414492982
    2.166944908   20.650235755   20.720580926    7.475576503
    2.174123539   20.603014789   20.786615968    7.532420392
    2.181302170   20.690437531   20.858222566    7.565520291
    2.188480801   20.856548492   20.873285631    7.555618695
    2.195659432   21.065791635   20.878919309    7.545507443
    2.202838063   21.299447117   20.970109066    7.580752557
    2.210016694   21.514626499   21.101761090    7.620025986
    2.217195326   21.676940124   21.222413536    7.619866133
    2.224373957   21.839714219   21.338101414    7.616613561
    2.231552588   22.041140664   21.460074716    7.642309813
    2.238731219   22.269124433   21.600351873    7.693779794
    2.245909850   22.432787973   21.752647587    7.715204822
    2.253088481   22.366708961   21.870867944    7.614069460
    2.260267112   22.153555798   21.897492814    7.448461963
    2.267445743   22.082772561   21.851584511    7.361730290
    2.274624374   22.222701099   21.836751308    7.366229782
    2.281803005   22.457259510   21.891063332    7.417514455
    2.288981636   22.721334878   21.992617788    7.483849051
    2.296160267   22.998180629   22.135174587    7.551565077
    2.303338898   23.217364874   22.272282281    7.590018745
    2.310517529   23.371880453   22.387734180    7.596495366
    2.317696160   23.600137490   22.525655595    7.628540998
    2.324874791   23.917653380   22.691408767    7.692176663
    2.332053422   24.264742243   22.867427582    7.763493865
    2.339232053   24.580253958   23.044925946    7.824012973
    2.346410684   24.746908408   23.218857153    7.854615439
    2.353589316   24.734588643   23.395770980    7.874881454
    2.360767947   24.835537656   23.584297154    7.922762289
    2.367946578   25.098949313   23.767061311    7.973592969
    2.375125209   25.426742272   23.920172593    7.979526073
    2.382303840   25.839255996   24.071285254    7.955137203
    2.389482471   26.308392566   24.276482047    7.974222136
    2.396661102   26.774070500   24.503963083    8.014420505
    2.403839733   27.193355496   24.703933192    8.047662819
    2.411018364   27.486030759   24.764510933    8.077132888
    2.418196995   27.588301995   24.493461490    8.086475870
    2.425375626   27.569675048   24.112362171    8.088442398
    2.432554257   27.237781888   23.875644125    8.088008356
    2.439732888   26.971303977   23.767404119    8.080458274
    2.446911519   27.142267908   23.821744143    8.084215175
    2.454090150   27.654105853   23.955472009    8.112125799
    2.461268781   28.374722680   24.174671222    8.172849725
    2.468447412   29.123144923   24.427868878    8.230841896
    2.475626043   29.653765026   24.651027629    8.247830658
    2.482804674   29.840632737   24.853251293    8.232776477
    2.489983306   30.202838552   25.064732660    8.230820054
    2.497161937   30.860261015   25.298921516    8.272529657
    2.504340568   31.163514755   25.537150182    8.335967147
    2.511519199   30.619367670   25.753181963    8.393010293
    2.518697830   30.315141196   25.952016116    8.440319961
    2.525876461   30.976983131   26.155937099    8.488194810
    2.533055092   32.074128951   26.347290128    8.533351441
    2.540233723   33.297405790   26.549771384    8.587890077
