# energy grid [eV]     epsr_x  epsr_y  epsr_z
#
    0.200000000   15.894626003   16.347024134   16.047793115
    0.207178631   15.898964516   16.351363533   16.052123619
    0.214357262   15.903460005   16.355859667   16.056610653
    0.221535893   15.908112897   16.360512935   16.061254627
    0.228714524   15.912923641   16.365323751   16.066055969
    0.235893155   15.917892701   16.370292548   16.071015123
    0.243071786   15.923020558   16.375419772   16.076132549
    0.250250417   15.928307714   16.380705887   16.081408723
    0.257429048   15.933754687   16.386151374   16.086844142
    0.264607679   15.939362013   16.391756731   16.092439317
    0.271786311   15.945130251   16.397522473   16.098194778
    0.278964942   15.951059977   16.403449133   16.104111075
    0.286143573   15.957151786   16.409537262   16.110188773
    0.293322204   15.963406295   16.415787431   16.116428459
    0.300500835   15.969824144   16.422200227   16.122830738
    0.307679466   15.976405989   16.428776260   16.129396237
    0.314858097   15.983152514   16.435516156   16.136125600
    0.322036728   15.990064422   16.442420565   16.143019494
    0.329215359   15.997142440   16.449490154   16.150078606
    0.336393990   16.004387318   16.456725615   16.157303646
    0.343572621   16.011799832   16.464127659   16.164695345
    0.350751252   16.019380782   16.471697021   16.172254457
    0.357929883   16.027130994   16.479434458   16.179981761
    0.365108514   16.035051321   16.487340751   16.187878058
    0.372287145   16.043142645   16.495416707   16.195944176
    0.379465776   16.051405872   16.503663156   16.204180966
    0.386644407   16.059841942   16.512080955   16.212589306
    0.393823038   16.068451823   16.520670987   16.221170103
    0.401001669   16.077236515   16.529434163   16.229924289
    0.408180301   16.086197051   16.538371424   16.238852827
    0.415358932   16.095334495   16.547483739   16.247956708
    0.422537563   16.104649951   16.556772107   16.257236955
    0.429716194   16.114144554   16.566237561   16.266694622
    0.436894825   16.123819481   16.575881166   16.276330796
    0.444073456   16.133675947   16.585704020   16.286146598
    0.451252087   16.143715207   16.595707259   16.296143186
    0.458430718   16.153938561   16.605892056   16.306321751
    0.465609349   16.164347351   16.616259620   16.316683526
    0.472787980   16.174942969   16.626811204   16.327229781
    0.479966611   16.185726854   16.637548102   16.337961830
    0.487145242   16.196700497   16.648471651   16.348881027
    0.494323873   16.207865444   16.659583236   16.359988772
    0.501502504   16.219223295   16.670884292   16.371286514
    0.508681135   16.230775714   16.682376302   16.382775748
    0.515859766   16.242524425   16.694060806   16.394458023
    0.523038397   16.254471218   16.705939399   16.406334939
    0.530217028   16.266617956   16.718013737   16.418408155
    0.537395659   16.278966574   16.730285538   16.430679388
    0.544574290   16.291519087   16.742756588   16.443150417
    0.551752922   16.304277593   16.755428745   16.455823088
    0.558931553   16.317244280   16.768303941   16.468699315
    0.566110184   16.330421430   16.781384190   16.481781086
    0.573288815   16.343811426   16.794671589   16.495070464
    0.580467446   16.357416758   16.808168330   16.508569597
    0.587646077   16.371240035   16.821876700   16.522280717
    0.594824708   16.385283986   16.835799092   16.536206147
    0.602003339   16.399551475   16.849938010   16.550348311
    0.609181970   16.414045509   16.864296079   16.564709733
    0.616360601   16.428769250   16.878876058   16.579293049
    0.623539232   16.443726027   16.893680841   16.594101015
    0.630717863   16.458919347   16.908713477   16.609136510
    0.637896494   16.474352917   16.923977182   16.624402550
    0.645075125   16.490030655   16.939475348   16.639902294
    0.652253756   16.505956712   16.955211565   16.655639060
    0.659432387   16.522135493   16.971189637   16.671616329
    0.666611018   16.538571679   16.987413599   16.687837767
    0.673789649   16.555270261   17.003887747   16.704307232
    0.680968280   16.572236562   17.020616659   16.721028794
    0.688146912   16.589476277   17.037605224   16.738006752
    0.695325543   16.606995513   17.054858680   16.755245653
    0.702504174   16.624800833   17.072382649   16.772750317
    0.709682805   16.642899305   17.090183180   16.790525857
    0.716861436   16.661298569   17.108266805   16.808577709
    0.724040067   16.680006899   17.126640591   16.826911666
    0.731218698   16.699033284   17.145312215   16.845533908
    0.738397329   16.718387523   17.164290035   16.864451044
    0.745575960   16.738080332   17.183583191   16.883670158
    0.752754591   16.758123468   17.203201706   16.903198857
    0.759933222   16.778529881   17.223156620   16.923045334
    0.767111853   16.799313891   17.243460138   16.943218427
    0.774290484   16.820491395   17.264125816   16.963727704
    0.781469115   16.842080124   17.285168773   16.984583543
    0.788647746   16.864099940   17.306605957   17.005797243
    0.795826377   16.886573208   17.328456464   17.027381131
    0.803005008   16.909525244   17.350741925   17.049348712
    0.810183639   16.932984861   17.373486988   17.071714822
    0.817362270   16.956985058   17.396719908   17.094495827
    0.824540902   16.981563864   17.420473296   17.117709844
    0.831719533   17.006765411   17.444785051   17.141377013
    0.838898164   17.032641294   17.469699551   17.165519828
    0.846076795   17.059252312   17.495269185   17.190163522
    0.853255426   17.086670728   17.521556340   17.215336553
    0.860434057   17.114983223   17.548636001   17.241071188
    0.867612688   17.144294817   17.576599208   17.267404240
    0.874791319   17.174734117   17.605557695   17.294377974
    0.881969950   17.206460448   17.635650192   17.322041272
    0.889148581   17.239673647   17.667051097   17.350451108
    0.896327212   17.274627670   17.699982541   17.379674469
    0.903505843   17.311649684   17.734731322   17.409790864
    0.910684474   17.351166944   17.771672769   17.440895646
    0.917863105   17.393744323   17.811304093   17.473104426
    0.925041736   17.440134775   17.854289235   17.506558867
    0.932220367   17.491339143   17.901512040   17.541433932
    0.939398998   17.548645115   17.954110772   17.577945324
    0.946577629   17.613508278   18.013371758   17.616350353
    0.953756260   17.686715340   18.079982701   17.656913318
    0.960934891   17.764592276   18.150650081   17.699717934
    0.968113523   17.824045272   18.204755673   17.743893442
    0.975292154   17.780985533   18.167272134   17.785438391
    0.982470785   17.517993043   17.933437727   17.818721112
    0.989649416   17.233316313   17.680053644   17.855010314
    0.996828047   17.171760365   17.625441880   17.908286573
    1.004006678   17.232735685   17.679831299   17.974551055
    1.011185309   17.321825946   17.758931891   18.050445333
    1.018363940   17.411602079   17.838127397   18.136129354
    1.025542571   17.497357492   17.912797259   18.231108533
    1.032721202   17.578286401   17.980787661   18.325508204
    1.039899833   17.648513635   18.032016199   18.373693784
    1.047078464   17.692279570   18.042225619   18.272139227
    1.054257095   17.719685484   18.024509990   18.071826553
    1.061435726   17.774386114   18.042753442   18.030531378
    1.068614357   17.842669340   18.092187902   18.107990921
    1.075792988   17.862823075   18.143142572   18.109512007
    1.082971619   17.749822443   18.176149777   17.830575707
    1.090150250   17.592150946   18.202560281   17.453624419
    1.097328881   17.567985586   18.248062817   17.356413045
    1.104507513   17.631472650   18.306760414   17.441218687
    1.111686144   17.716469393   18.369238780   17.566379036
    1.118864775   17.799236815   18.429451592   17.677398173
    1.126043406   17.868334830   18.478289671   17.741729683
    1.133222037   17.924775345   18.516674027   17.768843635
    1.140400668   17.976680763   18.552502058   17.814198578
    1.147579299   17.994429237   18.549168034   17.857189903
    1.154757930   17.974414143   18.501914599   17.878189670
    1.161936561   17.993390784   18.502759509   17.922610399
    1.169115192   18.058571094   18.559523094   17.994219317
    1.176293823   18.139684310   18.633563151   18.072382592
    1.183472454   18.222202543   18.700785099   18.145526995
    1.190651085   18.297476060   18.736981428   18.203301488
    1.197829716   18.369931152   18.752210601   18.250778780
    1.205008347   18.457867380   18.800539547   18.312450943
    1.212186978   18.552314268   18.875626308   18.385757431
    1.219365609   18.607039741   18.937778160   18.452166213
    1.226544240   18.516999097   18.928172172   18.482232338
    1.233722871   18.286178218   18.847886814   18.477285237
    1.240901503   18.186155806   18.834287295   18.509322387
    1.248080134   18.245353299   18.902135661   18.585109889
    1.255258765   18.353068510   18.995091658   18.668425042
    1.262437396   18.444673872   19.076648821   18.712923262
    1.269616027   18.469542769   19.112788864   18.648188193
    1.276794658   18.457086392   19.124357657   18.530714202
    1.283973289   18.483774024   19.162282570   18.514128539
    1.291151920   18.485378751   19.168949862   18.556708478
    1.298330551   18.430803230   19.123078278   18.601052005
    1.305509182   18.436619313   19.139838534   18.663576433
    1.312687813   18.513804516   19.229622218   18.744340705
    1.319866444   18.612408664   19.338509973   18.829800778
    1.327045075   18.708631692   19.418290463   18.914784173
    1.334223706   18.788641843   19.395549035   18.997608831
    1.341402337   18.856114406   19.290028953   19.079997283
    1.348580968   18.938532066   19.281342781   19.167096660
    1.355759599   19.032208913   19.369421186   19.254291233
    1.362938230   19.105370025   19.470739033   19.316848615
    1.370116861   19.103059259   19.519680109   19.300786410
    1.377295492   19.042395569   19.510153296   19.226267189
    1.384474124   19.035707090   19.479301672   19.216343921
    1.391652755   19.063976208   19.373561992   19.256215497
    1.398831386   19.121584985   19.302053795   19.324445719
    1.406010017   19.220110819   19.350630518   19.422419675
    1.413188648   19.336932245   19.450469484   19.533701780
    1.420367279   19.454492679   19.557137027   19.646315944
    1.427545910   19.545127175   19.654911564   19.740376815
    1.434724541   19.540428983   19.729783885   19.765735865
    1.441903172   19.429810515   19.780376917   19.717894329
    1.449081803   19.380068581   19.837990961   19.732434243
    1.456260434   19.393061943   19.902423925   19.824941439
    1.463439065   19.418547913   19.967900622   19.924011183
    1.470617696   19.463203120   20.043796404   19.939178284
    1.477796327   19.472651404   20.124114560   19.766363174
    1.484974958   19.486151093   20.206533701   19.592391949
    1.492153589   19.562299569   20.293070303   19.613387442
    1.499332220   19.669487564   20.382724396   19.736207590
    1.506510851   19.782806023   20.475107453   19.883969113
    1.513689482   19.895069885   20.570417250   20.033361145
    1.520868114   20.000493969   20.667263485   20.168528499
    1.528046745   20.078728842   20.757424748   20.239647754
    1.535225376   20.091706621   20.821627970   20.149002694
    1.542404007   20.078754405   20.861145325   19.962560310
    1.549582638   20.130138495   20.917867390   19.898313060
    1.556761269   20.227629220   21.019780032   19.968004421
    1.563939900   20.339090401   21.153810669   20.091581984
    1.571118531   20.454312533   21.305784576   20.224830495
    1.578297162   20.570954211   21.467827273   20.354990703
    1.585475793   20.684583330   21.614721861   20.473509308
    1.592654424   20.777330872   21.651884396   20.553758284
    1.599833055   20.822281035   21.429877687   20.554610829
    1.607011686   20.861981274   21.150974942   20.537842884
    1.614190317   20.949531168   21.121510527   20.594834860
    1.621368948   21.044664917   21.164907529   20.690628880
    1.628547579   21.118350134   21.067418339   20.787046693
    1.635726210   21.208109081   20.927105409   20.884213897
    1.642904841   21.346357007   20.960808504   20.991897091
    1.650083472   21.514976557   21.076920404   21.103453983
    1.657262104   21.692007026   21.132314778   21.208957897
    1.664440735   21.866666285   21.157010836   21.311886328
    1.671619366   21.994706749   21.257962707   21.415075623
    1.678797997   21.964636419   21.395732183   21.495090628
    1.685976628   21.800402964   21.516697383   21.547511968
    1.693155259   21.630681771   21.619242572   21.590803277
    1.700333890   21.442935937   21.730103844   21.623294641
    1.707512521   21.309635035   21.858151991   21.668420237
    1.714691152   21.414861363   22.012792143   21.772698969
    1.721869783   21.639985923   22.180450217   21.894621442
    1.729048414   21.835887077   22.338784945   21.968784247
    1.736227045   21.959486392   22.460297667   21.999146008
    1.743405676   22.024636473   22.495157104   22.062620318
    1.750584307   21.954235219   22.416418940   22.126498271
    1.757762938   21.592532419   22.196930271   22.099235086
    1.764941569   21.050096451   21.909143396   21.993574909
    1.772120200   20.874432697   21.857730513   21.986537445
    1.779298831   21.016059680   21.984960484   22.095972119
    1.786477462   21.249208428   22.157584970   22.249880711
    1.793656093   21.486339835   22.330254052   22.412319943
    1.800834725   21.709488807   22.494576488   22.575364947
    1.808013356   21.918740242   22.651356367   22.739004447
    1.815191987   22.114739782   22.802689554   22.902043714
    1.822370618   22.286756326   22.948961330   23.051925413
    1.829549249   22.403123106   23.086931137   23.156225958
    1.836727880   22.468790070   23.216726030   23.227891722
    1.843906511   22.535220514   23.339683899   23.335666701
    1.851085142   22.591129465   23.438345102   23.419745839
    1.858263773   22.648997113   23.484020292   23.325694389
    1.865442404   22.711671325   23.493016807   23.083686251
    1.872621035   22.825455745   23.566900642   23.026632554
    1.879799666   22.980248903   23.701243457   23.153688167
    1.886978297   23.145678832   23.855177799   23.336059613
    1.894156928   23.311014123   24.013178525   23.524195107
    1.901335559   23.473209714   24.168748525   23.705026667
    1.908514190   23.626942820   24.307287222   23.868001520
    1.915692821   23.762986689   24.397967050   23.998392212
    1.922871452   23.891158166   24.448815553   24.106389995
    1.930050083   24.038215046   24.533677647   24.220694564
    1.937228715   24.203997012   24.670329461   24.364076533
    1.944407346   24.379683190   24.834925395   24.533719235
    1.951585977   24.562729290   25.010050977   24.715197227
    1.958764608   24.753808121   25.190848866   24.903261823
    1.965943239   24.953551341   25.376548554   25.096075651
    1.973121870   25.157975528   25.563594743   25.285467960
    1.980300501   25.349707770   25.739224002   25.443075758
    1.987479132   25.513451704   25.899743405   25.542778430
    1.994657763   25.675761902   26.076925638   25.631387256
    2.001836394   25.788028303   26.269732030   25.740891807
    2.009015025   25.746438656   26.438423483   25.841061195
    2.016193656   25.678785248   26.563411607   25.980578880
    2.023372287   25.753075632   26.691155010   26.189540862
    2.030550918   25.984086388   26.838001913   26.411225455
    2.037729549   26.276348985   26.863573393   26.571950500
    2.044908180   26.553801195   26.821528084   26.715635769
    2.052086811   26.723224631   26.797599812   26.865485706
    2.059265442   26.641944649   26.692463433   26.829447092
    2.066444073   26.323186146   26.540766166   26.584752538
    2.073622705   26.134289435   26.548147264   26.444730486
    2.080801336   26.261452000   26.724762810   26.502313515
    2.087979967   26.540300678   26.919174652   26.644706066
    2.095158598   26.830688499   27.115378036   26.867088855
    2.102337229   27.143979672   27.363095243   27.157447580
    2.109515860   27.510984676   27.685775530   27.483484325
    2.116694491   27.874977676   28.032860607   27.817362298
    2.123873122   28.111085108   28.341741033   28.130734761
    2.131051753   28.116472181   28.565161076   28.397769541
    2.138230384   28.145758666   28.697224619   28.665314058
    2.145409015   28.317376276   28.680806426   28.972635846
    2.152587646   28.340905316   28.518696107   29.222951727
    2.159766277   28.097270594   28.255431185   29.225630072
    2.166944908   27.789405753   28.002116152   28.806159839
    2.174123539   27.759509280   27.990805274   28.389026937
    2.181302170   28.069688556   28.260116416   28.474826250
    2.188480801   28.500134654   28.628736144   28.836437939
    2.195659432   28.885644175   28.984736013   29.229526080
    2.202838063   29.144745920   29.301514145   29.560127302
    2.210016694   29.313364527   29.616842923   29.801865865
    2.217195326   29.508340821   29.961880546   29.995718126
    2.224373957   29.777941251   30.323816335   30.174104139
    2.231552588   30.076448747   30.688212811   30.335944831
    2.238731219   30.379987112   31.049208260   30.587632209
    2.245909850   30.622295174   31.347688775   30.900131379
    2.253088481   30.864291292   31.485109451   31.269571166
    2.260267112   31.157760669   31.506872415   31.672016503
    2.267445743   31.476133026   31.570130905   32.007142490
    2.274624374   31.779301952   31.681550864   32.268016923
    2.281803005   32.190359482   31.948523296   32.637175303
    2.288981636   32.657520788   32.348958152   33.099089243
    2.296160267   32.903321497   32.709055031   33.376683164
    2.303338898   32.614115222   32.861491299   33.077164502
    2.310517529   32.119175847   32.926294507   32.506390878
    2.317696160   32.222540652   33.228262750   32.532214125
    2.324874791   32.707090513   33.675005452   32.970573941
    2.332053422   33.164496455   34.070908299   33.444299444
    2.339232053   33.440680523   34.343450934   33.865576450
    2.346410684   33.754155342   34.666726182   34.338205396
    2.353589316   34.235170855   35.093799337   34.873660599
    2.360767947   34.722404408   35.420560642   35.352137129
    2.367946578   35.092936571   35.542604303   35.748305028
    2.375125209   35.466897999   35.745538281   36.220470328
    2.382303840   36.041581770   36.202379161   36.834909172
    2.389482471   36.727394357   36.790184901   37.510086870
    2.396661102   37.206418530   37.293810909   38.095770530
    2.403839733   37.163332986   37.552177397   38.389184738
    2.411018364   37.041072095   37.804555848   38.535286529
    2.418196995   37.468637180   38.362944705   39.029384323
    2.425375626   38.270550978   39.126217265   39.808910242
    2.432554257   39.079910466   39.932281210   40.584022222
    2.439732888   39.659407052   40.689041193   41.164457700
    2.446911519   40.233481235   41.455918476   41.775739864
    2.454090150   40.960753803   42.148104556   42.532068320
    2.461268781   41.430810684   42.195076218   43.004365877
    2.468447412   41.469959862   41.196045528   42.995899972
    2.475626043   41.700517189   40.495266929   43.232952210
    2.482804674   42.346853076   40.798066680   44.051106865
    2.489983306   43.248643687   41.535041650   45.184034921
    2.497161937   44.313468907   42.457985067   46.502759227
    2.504340568   45.281810628   43.400888844   47.858325502
    2.511519199   46.138875656   44.257593919   49.108574814
    2.518697830   47.003121457   45.185073899   49.965899646
    2.525876461   47.878311726   46.278501600   50.296112937
    2.533055092   48.980352903   47.365024831   50.776201563
    2.540233723   50.088436422   48.246197270   51.310752614
