# energy grid [eV]     ieps_x  ieps_y  ieps_z
#
    0.200000000    6.679731333    7.456734064    5.532849407
    0.207178631    6.678374085    7.455135243    5.531754509
    0.214357262    6.676969782    7.453481255    5.530622024
    0.221535893    6.675518506    7.451772220    5.529452051
    0.228714524    6.674020342    7.450008263    5.528244695
    0.235893155    6.672475378    7.448189513    5.527000060
    0.243071786    6.670883703    7.446316101    5.525718257
    0.250250417    6.669245409    7.444388161    5.524399395
    0.257429048    6.667560591    7.442405832    5.523043588
    0.264607679    6.665829347    7.440369255    5.521650952
    0.271786311    6.664051777    7.438278574    5.520221604
    0.278964942    6.662227982    7.436133937    5.518755665
    0.286143573    6.660358068    7.433935494    5.517253256
    0.293322204    6.658442142    7.431683398    5.515714502
    0.300500835    6.656480313    7.429377805    5.514139529
    0.307679466    6.654472692    7.427018875    5.512528465
    0.314858097    6.652419395    7.424606769    5.510881439
    0.322036728    6.650320537    7.422141652    5.509198584
    0.329215359    6.648176237    7.419623690    5.507480033
    0.336393990    6.645986617    7.417053055    5.505725921
    0.343572621    6.643751800    7.414429917    5.503936384
    0.350751252    6.641471910    7.411754451    5.502111561
    0.357929883    6.639147076    7.409026835    5.500251591
    0.365108514    6.636777428    7.406247249    5.498356615
    0.372287145    6.634363098    7.403415873    5.496426776
    0.379465776    6.631904219    7.400532893    5.494462218
    0.386644407    6.629400928    7.397598495    5.492463085
    0.393823038    6.626853364    7.394612866    5.490429524
    0.401001669    6.624261666    7.391576199    5.488361682
    0.408180301    6.621625977    7.388488685    5.486259708
    0.415358932    6.618946442    7.385350519    5.484123751
    0.422537563    6.616223206    7.382161898    5.481953962
    0.429716194    6.613456418    7.378923021    5.479750493
    0.436894825    6.610646229    7.375634088    5.477513495
    0.444073456    6.607792789    7.372295301    5.475243123
    0.451252087    6.604896254    7.368906865    5.472939531
    0.458430718    6.601956780    7.365468985    5.470602874
    0.465609349    6.598974523    7.361981870    5.468233307
    0.472787980    6.595949643    7.358445728    5.465830988
    0.479966611    6.592882302    7.354860771    5.463396073
    0.487145242    6.589772662    7.351227210    5.460928721
    0.494323873    6.586620889    7.347545261    5.458429090
    0.501502504    6.583427148    7.343815138    5.455897340
    0.508681135    6.580191608    7.340037058    5.453333631
    0.515859766    6.576914439    7.336211241    5.450738122
    0.523038397    6.573595812    7.332337906    5.448110976
    0.530217028    6.570235900    7.328417275    5.445452352
    0.537395659    6.566834877    7.324449570    5.442762414
    0.544574290    6.563392920    7.320435015    5.440041324
    0.551752922    6.559910207    7.316373835    5.437289244
    0.558931553    6.556386916    7.312266257    5.434506338
    0.566110184    6.552823228    7.308112509    5.431692770
    0.573288815    6.549219325    7.303912819    5.428848703
    0.580467446    6.545575391    7.299667418    5.425974302
    0.587646077    6.541891611    7.295376537    5.423069732
    0.594824708    6.538168171    7.291040408    5.420135157
    0.602003339    6.534405259    7.286659265    5.417170744
    0.609181970    6.530603064    7.282233342    5.414176657
    0.616360601    6.526761776    7.277762874    5.411153063
    0.623539232    6.522881587    7.273248099    5.408100128
    0.630717863    6.518962690    7.268689253    5.405018019
    0.637896494    6.515005278    7.264086576    5.401906901
    0.645075125    6.511009548    7.259440306    5.398766942
    0.652253756    6.506975695    7.254750683    5.395598309
    0.659432387    6.502903918    7.250017950    5.392401170
    0.666611018    6.498794415    7.245242348    5.389175691
    0.673789649    6.494647387    7.240424119    5.385922042
    0.680968280    6.490463034    7.235563509    5.382640388
    0.688146912    6.486241559    7.230660760    5.379330900
    0.695325543    6.481983164    7.225716119    5.375993744
    0.702504174    6.477688055    7.220729831    5.372629089
    0.709682805    6.473356436    7.215702143    5.369237104
    0.716861436    6.468988514    7.210633303    5.365817957
    0.724040067    6.464584495    7.205523559    5.362371817
    0.731218698    6.460144588    7.200373160    5.358898852
    0.738397329    6.455669003    7.195182355    5.355399233
    0.745575960    6.451157948    7.189951395    5.351873128
    0.752754591    6.446611636    7.184680530    5.348320705
    0.759933222    6.442030276    7.179370012    5.344742135
    0.767111853    6.437414083    7.174020093    5.341137587
    0.774290484    6.432763269    7.168631025    5.337507230
    0.781469115    6.428078049    7.163203061    5.333851233
    0.788647746    6.423358637    7.157736455    5.330169767
    0.795826377    6.418605248    7.152231462    5.326463000
    0.803005008    6.413818100    7.146688335    5.322731103
    0.810183639    6.408997409    7.141107330    5.318974245
    0.817362270    6.404143393    7.135488703    5.315192596
    0.824540902    6.399256271    7.129832709    5.311386326
    0.831719533    6.394336260    7.124139605    5.307555605
    0.838898164    6.389383581    7.118409647    5.303700602
    0.846076795    6.384398454    7.112643094    5.299821488
    0.853255426    6.379381100    7.106840202    5.295918432
    0.860434057    6.374331740    7.101001229    5.291991605
    0.867612688    6.369250595    7.095126434    5.288041175
    0.874791319    6.364137889    7.089216076    5.284067314
    0.881969950    6.358993843    7.083270413    5.280070191
    0.889148581    6.353818682    7.077289704    5.276049975
    0.896327212    6.348612628    7.071274209    5.272006838
    0.903505843    6.343375907    7.065224188    5.267940949
    0.910684474    6.338108742    7.059139901    5.263852477
    0.917863105    6.332811358    7.053021607    5.259741592
    0.925041736    6.327483981    7.046869567    5.255608465
    0.932220367    6.322126836    7.040684042    5.251453264
    0.939398998    6.316740150    7.034465293    5.247276160
    0.946577629    6.311324148    7.028213580    5.243077323
    0.953756260    6.305879058    7.021929164    5.238856921
    0.960934891    6.300405105    7.015612307    5.234615124
    0.968113523    6.294902517    7.009263269    5.230352102
    0.975292154    6.289371522    7.002882313    5.226068024
    0.982470785    6.283812346    6.996469699    5.221763060
    0.989649416    6.278225217    6.990025689    5.217437377
    0.996828047    6.272610364    6.983550544    5.213091147
    1.004006678    6.266968014    6.977044526    5.208724536
    1.011185309    6.261298396    6.970507897    5.204337715
    1.018363940    6.255601737    6.963940918    5.199930852
    1.025542571    6.249878266    6.957343851    5.195504116
    1.032721202    6.244128212    6.950716957    5.191057675
    1.039899833    6.238351802    6.944060497    5.186591697
    1.047078464    6.232549266    6.937374733    5.182106350
    1.054257095    6.226720833    6.930659926    5.177601804
    1.061435726    6.220866730    6.923916337    5.173078225
    1.068614357    6.214987186    6.917144228    5.168535781
    1.075792988    6.209082430    6.910343858    5.163974640
    1.082971619    6.203152690    6.903515490    5.159394969
    1.090150250    6.197198195    6.896659383    5.154796935
    1.097328881    6.191219173    6.889775798    5.150180706
    1.104507513    6.185215853    6.882864995    5.145546448
    1.111686144    6.179188462    6.875927234    5.140894328
    1.118864775    6.173137229    6.868962775    5.136224512
    1.126043406    6.167062382    6.861971878    5.131537166
    1.133222037    6.160964148    6.854954801    5.126832457
    1.140400668    6.154842755    6.847911804    5.122110549
    1.147579299    6.148698430    6.840843145    5.117371610
    1.154757930    6.142531401    6.833749084    5.112615803
    1.161936561    6.136341894    6.826629877    5.107843293
    1.169115192    6.130130137    6.819485783    5.103054246
    1.176293823    6.123896355    6.812317060    5.098248827
    1.183472454    6.117640776    6.805123963    5.093427198
    1.190651085    6.111363624    6.797906751    5.088589524
    1.197829716    6.105065126    6.790665679    5.083735969
    1.205008347    6.098745507    6.783401003    5.078866696
    1.212186978    6.092404993    6.776112979    5.073981868
    1.219365609    6.086043807    6.768801862    5.069081648
    1.226544240    6.079662174    6.761467907    5.064166198
    1.233722871    6.073260318    6.754111367    5.059235681
    1.240901503    6.066838463    6.746732497    5.054290258
    1.248080134    6.060396832    6.739331549    5.049330090
    1.255258765    6.053935648    6.731908777    5.044355338
    1.262437396    6.047455133    6.724464432    5.039366165
    1.269616027    6.040955510    6.716998767    5.034362729
    1.276794658    6.034436999    6.709512033    5.029345191
    1.283973289    6.027899822    6.702004479    5.024313710
    1.291151920    6.021344199    6.694476357    5.019268447
    1.298330551    6.014770351    6.686927916    5.014209559
    1.305509182    6.008178498    6.679359405    5.009137205
    1.312687813    6.001568857    6.671771071    5.004051544
    1.319866444    5.994941649    6.664163164    4.998952734
    1.327045075    5.988297091    6.656535929    4.993840931
    1.334223706    5.981635400    6.648889614    4.988716292
    1.341402337    5.974956795    6.641224463    4.983578975
    1.348580968    5.968261490    6.633540723    4.978429134
    1.355759599    5.961549702    6.625838638    4.973266927
    1.362938230    5.954821647    6.618118452    4.968092508
    1.370116861    5.948077539    6.610380407    4.962906032
    1.377295492    5.941317592    6.602624747    4.957707653
    1.384474124    5.934542020    6.594851713    4.952497525
    1.391652755    5.927751035    6.587061545    4.947275802
    1.398831386    5.920944850    6.579254485    4.942042636
    1.406010017    5.914123676    6.571430772    4.936798181
    1.413188648    5.907287725    6.563590644    4.931542587
    1.420367279    5.900437206    6.555734339    4.926276008
    1.427545910    5.893572329    6.547862096    4.920998593
    1.434724541    5.886693303    6.539974149    4.915710494
    1.441903172    5.879800336    6.532070736    4.910411860
    1.449081803    5.872893636    6.524152090    4.905102841
    1.456260434    5.865973410    6.516218446    4.899783586
    1.463439065    5.859039863    6.508270036    4.894454244
    1.470617696    5.852093201    6.500307095    4.889114963
    1.477796327    5.845133629    6.492329852    4.883765890
    1.484974958    5.838161350    6.484338539    4.878407172
    1.492153589    5.831176568    6.476333385    4.873038956
    1.499332220    5.824179484    6.468314620    4.867661387
    1.506510851    5.817170302    6.460282471    4.862274612
    1.513689482    5.810149220    6.452237166    4.856878775
    1.520868114    5.803116440    6.444178931    4.851474019
    1.528046745    5.796072161    6.436107992    4.846060490
    1.535225376    5.789016581    6.428024573    4.840638330
    1.542404007    5.781949897    6.419928897    4.835207681
    1.549582638    5.774872307    6.411821188    4.829768686
    1.556761269    5.767784007    6.403701667    4.824321487
    1.563939900    5.760685191    6.395570555    4.818866223
    1.571118531    5.753576055    6.387428072    4.813403036
    1.578297162    5.746456792    6.379274436    4.807932065
    1.585475793    5.739327593    6.371109867    4.802453450
    1.592654424    5.732188652    6.362934580    4.796967329
    1.599833055    5.725040159    6.354748792    4.791473839
    1.607011686    5.717882305    6.346552718    4.785973119
    1.614190317    5.710715278    6.338346572    4.780465305
    1.621368948    5.703539267    6.330130567    4.774950532
    1.628547579    5.696354459    6.321904916    4.769428938
    1.635726210    5.689161042    6.313669829    4.763900656
    1.642904841    5.681959200    6.305425516    4.758365822
    1.650083472    5.674749119    6.297172187    4.752824568
    1.657262104    5.667530983    6.288910049    4.747277028
    1.664440735    5.660304974    6.280639310    4.741723334
    1.671619366    5.653071275    6.272360176    4.736163618
    1.678797997    5.645830068    6.264072851    4.730598012
    1.685976628    5.638581531    6.255777540    4.725026645
    1.693155259    5.631325845    6.247474446    4.719449648
    1.700333890    5.624063189    6.239163771    4.713867151
    1.707512521    5.616793739    6.230845714    4.708279281
    1.714691152    5.609517673    6.222520477    4.702686167
    1.721869783    5.602235166    6.214188258    4.697087936
    1.729048414    5.594946392    6.205849254    4.691484716
    1.736227045    5.587651527    6.197503662    4.685876631
    1.743405676    5.580350742    6.189151678    4.680263808
    1.750584307    5.573044209    6.180793496    4.674646370
    1.757762938    5.565732100    6.172429310    4.669024444
    1.764941569    5.558414584    6.164059311    4.663398151
    1.772120200    5.551091831    6.155683692    4.657767614
    1.779298831    5.543764008    6.147302641    4.652132956
    1.786477462    5.536431284    6.138916349    4.646494299
    1.793656093    5.529093823    6.130525004    4.640851763
    1.800834725    5.521751792    6.122128791    4.635205467
    1.808013356    5.514405354    6.113727897    4.629555533
    1.815191987    5.507054673    6.105322507    4.623902078
    1.822370618    5.499699911    6.096912804    4.618245220
    1.829549249    5.492341229    6.088498971    4.612585078
    1.836727880    5.484978789    6.080081189    4.606921768
    1.843906511    5.477612749    6.071659638    4.601255405
    1.851085142    5.470243267    6.063234497    4.595586107
    1.858263773    5.462870502    6.054805946    4.589913986
    1.865442404    5.455494609    6.046374159    4.584239158
    1.872621035    5.448115744    6.037939315    4.578561736
    1.879799666    5.440734062    6.029501586    4.572881832
    1.886978297    5.433349717    6.021061147    4.567199559
    1.894156928    5.425962860    6.012618171    4.561515029
    1.901335559    5.418573643    6.004172828    4.555828350
    1.908514190    5.411182217    5.995725289    4.550139635
    1.915692821    5.403788732    5.987275723    4.544448992
    1.922871452    5.396393336    5.978824299    4.538756530
    1.930050083    5.388996176    5.970371183    4.533062356
    1.937228715    5.381597400    5.961916540    4.527366579
    1.944407346    5.374197153    5.953460537    4.521669304
    1.951585977    5.366795580    5.945003335    4.515970639
    1.958764608    5.359392824    5.936545098    4.510270687
    1.965943239    5.351989028    5.928085988    4.504569554
    1.973121870    5.344584334    5.919626163    4.498867343
    1.980300501    5.337178883    5.911165784    4.493164158
    1.987479132    5.329772813    5.902705008    4.487460101
    1.994657763    5.322366265    5.894243993    4.481755274
    2.001836394    5.314959376    5.885782893    4.476049779
    2.009015025    5.307552283    5.877321865    4.470343715
    2.016193656    5.300145121    5.868861060    4.464637183
    2.023372287    5.292738025    5.860400632    4.458930282
    2.030550918    5.285331129    5.851940732    4.453223110
    2.037729549    5.277924566    5.843481511    4.447515764
    2.044908180    5.270518469    5.835023116    4.441808343
    2.052086811    5.263112967    5.826565697    4.436100942
    2.059265442    5.255708191    5.818109399    4.430393658
    2.066444073    5.248304270    5.809654370    4.424686585
    2.073622705    5.240901331    5.801200753    4.418979817
    2.080801336    5.233499502    5.792748692    4.413273449
    2.087979967    5.226098909    5.784298330    4.407567573
    2.095158598    5.218699677    5.775849807    4.401862282
    2.102337229    5.211301930    5.767403265    4.396157668
    2.109515860    5.203905791    5.758958842    4.390453821
    2.116694491    5.196511383    5.750516676    4.384750832
    2.123873122    5.189118826    5.742076904    4.379048790
    2.131051753    5.181728240    5.733639663    4.373347785
    2.138230384    5.174339747    5.725205086    4.367647905
    2.145409015    5.166953462    5.716773309    4.361949238
    2.152587646    5.159569504    5.708344462    4.356251870
    2.159766277    5.152187990    5.699918678    4.350555888
    2.166944908    5.144809035    5.691496088    4.344861378
    2.174123539    5.137432753    5.683076820    4.339168424
    2.181302170    5.130059257    5.674661004    4.333477112
    2.188480801    5.122688662    5.666248765    4.327787524
    2.195659432    5.115321078    5.657840231    4.322099744
    2.202838063    5.107956616    5.649435527    4.316413855
    2.210016694    5.100595385    5.641034775    4.310729937
    2.217195326    5.093237496    5.632638101    4.305048072
    2.224373957    5.085883055    5.624245625    4.299368341
    2.231552588    5.078532171    5.615857468    4.293690824
    2.238731219    5.071184948    5.607473750    4.288015598
    2.245909850    5.063841493    5.599094590    4.282342744
    2.253088481    5.056501909    5.590720105    4.276672339
    2.260267112    5.049166299    5.582350413    4.271004459
    2.267445743    5.041834767    5.573985629    4.265339183
    2.274624374    5.034507414    5.565625867    4.259676585
    2.281803005    5.027184340    5.557271241    4.254016741
    2.288981636    5.019865646    5.548921864    4.248359725
    2.296160267    5.012551429    5.540577847    4.242705612
    2.303338898    5.005241788    5.532239301    4.237054475
    2.310517529    4.997936821    5.523906334    4.231406387
    2.317696160    4.990636622    5.515579056    4.225761420
    2.324874791    4.983341287    5.507257575    4.220119646
    2.332053422    4.976050912    5.498941995    4.214481135
    2.339232053    4.968765588    5.490632423    4.208845957
    2.346410684    4.961485409    5.482328964    4.203214184
    2.353589316    4.954210466    5.474031721    4.197585882
    2.360767947    4.946940851    5.465740795    4.191961122
    2.367946578    4.939676653    5.457456289    4.186339970
    2.375125209    4.932417961    5.449178304    4.180722494
    2.382303840    4.925164864    5.440906937    4.175108761
    2.389482471    4.917917449    5.432642289    4.169498836
    2.396661102    4.910675802    5.424384457    4.163892785
    2.403839733    4.903440010    5.416133537    4.158290673
    2.411018364    4.896210156    5.407889624    4.152692564
    2.418196995    4.888986326    5.399652815    4.147098522
    2.425375626    4.881768602    5.391423201    4.141508610
    2.432554257    4.874557066    5.383200876    4.135922889
    2.439732888    4.867351800    5.374985932    4.130341423
    2.446911519    4.860152884    5.366778459    4.124764271
    2.454090150    4.852960399    5.358578548    4.119191496
    2.461268781    4.845774424    5.350386287    4.113623156
    2.468447412    4.838595036    5.342201765    4.108059312
    2.475626043    4.831422313    5.334025068    4.102500022
    2.482804674    4.824256331    5.325856283    4.096945345
    2.489983306    4.817097166    5.317695495    4.091395338
    2.497161937    4.809944894    5.309542788    4.085850060
    2.504340568    4.802799588    5.301398246    4.080309565
    2.511519199    4.795661321    5.293261951    4.074773911
    2.518697830    4.788530167    5.285133985    4.069243154
    2.525876461    4.781406196    5.277014429    4.063717347
    2.533055092    4.774289481    5.268903363    4.058196545
    2.540233723    4.767180090    5.260800865    4.052680803
