# energy grid [eV]     epsr_x  epsr_y  epsr_z
#
    0.200000000    8.339062537    8.885595878   11.835220711
    0.207178631    8.340658589    8.887327745   11.837613124
    0.214357262    8.342311880    8.889121774   11.840091359
    0.221535893    8.344022513    8.890978080   11.842655571
    0.228714524    8.345790591    8.892896784   11.845305922
    0.235893155    8.347616226    8.894878011   11.848042578
    0.243071786    8.349499530    8.896921890   11.850865714
    0.250250417    8.351440622    8.899028555   11.853775507
    0.257429048    8.353439621    8.901198144   11.856772143
    0.264607679    8.355496653    8.903430799   11.859855813
    0.271786311    8.357611848    8.905726669   11.863026716
    0.278964942    8.359785339    8.908085905   11.866285056
    0.286143573    8.362017264    8.910508664   11.869631042
    0.293322204    8.364307763    8.912995108   11.873064892
    0.300500835    8.366656985    8.915545403   11.876586829
    0.307679466    8.369065077    8.918159721   11.880197084
    0.314858097    8.371532196    8.920838238   11.883895893
    0.322036728    8.374058501    8.923581135   11.887683501
    0.329215359    8.376644155    8.926388600   11.891560159
    0.336393990    8.379289326    8.929260823   11.895526125
    0.343572621    8.381994187    8.932198003   11.899581664
    0.350751252    8.384758916    8.935200341   11.903727049
    0.357929883    8.387583695    8.938268046   11.907962560
    0.365108514    8.390468711    8.941401332   11.912288486
    0.372287145    8.393414157    8.944600417   11.916705122
    0.379465776    8.396420229    8.947865526   11.921212772
    0.386644407    8.399487131    8.951196891   11.925811747
    0.393823038    8.402615069    8.954594748   11.930502369
    0.401001669    8.405804257    8.958059340   11.935284964
    0.408180301    8.409054913    8.961590917   11.940159872
    0.415358932    8.412367262    8.965189733   11.945127437
    0.422537563    8.415741533    8.968856051   11.950188015
    0.429716194    8.419177961    8.972590140   11.955341971
    0.436894825    8.422676788    8.976392274   11.960589677
    0.444073456    8.426238261    8.980262737   11.965931519
    0.451252087    8.429862635    8.984201817   11.971367889
    0.458430718    8.433550169    8.988209810   11.976899190
    0.465609349    8.437301131    8.992287022   11.982525839
    0.472787980    8.441115793    8.996433762   11.988248258
    0.479966611    8.444994436    9.000650352   11.994066886
    0.487145242    8.448937347    9.004937117   11.999982169
    0.494323873    8.452944822    9.009294394   12.005994566
    0.501502504    8.457017161    9.013722527   12.012104550
    0.508681135    8.461154676    9.018221867   12.018312604
    0.515859766    8.465357683    9.022792778   12.024619226
    0.523038397    8.469626509    9.027435628   12.031024925
    0.530217028    8.473961489    9.032150798   12.037530225
    0.537395659    8.478362965    9.036938679   12.044135666
    0.544574290    8.482831289    9.041799669   12.050841800
    0.551752922    8.487366824    9.046734180   12.057649196
    0.558931553    8.491969940    9.051742632   12.064558437
    0.566110184    8.496641019    9.056825457   12.071570125
    0.573288815    8.501380452    9.061983099   12.078684879
    0.580467446    8.506188641    9.067216013   12.085903333
    0.587646077    8.511066001    9.072524666   12.093226142
    0.594824708    8.516012956    9.077909539   12.100653980
    0.602003339    8.521029944    9.083371126   12.108187541
    0.609181970    8.526117416    9.088909934   12.115827540
    0.616360601    8.531275834    9.094526485   12.123574715
    0.623539232    8.536505676    9.100221315   12.131429825
    0.630717863    8.541807433    9.105994976   12.139393656
    0.637896494    8.547181612    9.111848038   12.147467016
    0.645075125    8.552628737    9.117781086   12.155650743
    0.652253756    8.558149346    9.123794721   12.163945702
    0.659432387    8.563743997    9.129889567   12.172352785
    0.666611018    8.569413265    9.136066264   12.180872920
    0.673789649    8.575157745    9.142325474   12.189507063
    0.680968280    8.580978053    9.148667879   12.198256207
    0.688146912    8.586874825    9.155094186   12.207121383
    0.695325543    8.592848723    9.161605122   12.216103658
    0.702504174    8.598900430    9.168201442   12.225204142
    0.709682805    8.605030659    9.174883927   12.234423989
    0.716861436    8.611240146    9.181653384   12.243764399
    0.724040067    8.617529659    9.188510653   12.253226621
    0.731218698    8.623899996    9.195456602   12.262811960
    0.738397329    8.630351992    9.202492133   12.272521774
    0.745575960    8.636886512    9.209618185   12.282357485
    0.752754591    8.643504463    9.216835733   12.292320577
    0.759933222    8.650206794    9.224145793   12.302412607
    0.767111853    8.656994496    9.231549422   12.312635206
    0.774290484    8.663868608    9.239047727   12.322990086
    0.781469115    8.670830223    9.246641860   12.333479047
    0.788647746    8.677880487    9.254333028   12.344103983
    0.795826377    8.685020608    9.262122495   12.354866894
    0.803005008    8.692251860    9.270011586   12.365769887
    0.810183639    8.699575590    9.278001692   12.376815194
    0.817362270    8.706993220    9.286094276   12.388005180
    0.824540902    8.714506261    9.294290881   12.399342353
    0.831719533    8.722116316    9.302593131   12.410829382
    0.838898164    8.729825093    9.311002745   12.422469111
    0.846076795    8.737634413    9.319521543   12.434264573
    0.853255426    8.745546223    9.328151456   12.446219019
    0.860434057    8.753562611    9.336894533   12.458335930
    0.867612688    8.761685819    9.345752963   12.470619052
    0.874791319    8.769918261    9.354729077   12.483072420
    0.881969950    8.778262547    9.363825374   12.495700394
    0.889148581    8.786721503    9.373044533   12.508507698
    0.896327212    8.795298198    9.382389436   12.521499464
    0.903505843    8.803995980    9.391863194   12.534681285
    0.910684474    8.812818505    9.401469170   12.548059276
    0.917863105    8.821769790    9.411211018   12.561640145
    0.925041736    8.830854254    9.421092715   12.575431275
    0.932220367    8.840076786    9.431118607   12.589440822
    0.939398998    8.849442809    9.441293462   12.603677835
    0.946577629    8.858958371    9.451622533   12.618152390
    0.953756260    8.868630241    9.462111627   12.632875758
    0.960934891    8.878466034    9.472767198   12.647860606
    0.968113523    8.888474362    9.483596451   12.663121240
    0.975292154    8.898665011    9.494607470   12.678673899
    0.982470785    8.909049169    9.505809376   12.694537121
    0.989649416    8.919639701    9.517212524   12.710732193
    0.996828047    8.930451494    9.528828737   12.727283720
    1.004006678    8.941501900    9.540671614   12.744220325
    1.011185309    8.952811284    9.552756907   12.761575563
    1.018363940    8.964403740    9.565103010   12.779389068
    1.025542571    8.976308021    9.577731581   12.797708062
    1.032721202    8.988558742    9.590668366   12.816589322
    1.039899833    9.001198000    9.603944269   12.836101789
    1.047078464    9.014277527    9.617596802   12.856330072
    1.054257095    9.027861629    9.631672022   12.877379212
    1.061435726    9.042031224    9.646227206   12.899381226
    1.068614357    9.056889458    9.661334540   12.922504221
    1.075792988    9.072569579    9.677086282   12.946965164
    1.082971619    9.089246015    9.693601997   12.973047847
    1.090150250    9.107149752    9.711038578   13.001127831
    1.097328881    9.126588693    9.729603517   13.031705470
    1.104507513    9.147970579    9.749569879   13.065443049
    1.111686144    9.171812512    9.771282897   13.103180082
    1.118864775    9.198667308    9.795113803   13.145813210
    1.126043406    9.228683354    9.821180718   13.193579747
    1.133222037    9.259672918    9.848120785   13.242914473
    1.140400668    9.279772002    9.868421346   13.274507283
    1.147579299    9.250582642    9.857695689   13.225876566
    1.154757930    9.140484146    9.795882932   13.045560843
    1.161936561    9.052245545    9.748454293   12.900726353
    1.169115192    9.047037191    9.754435658   12.890852173
    1.176293823    9.078175977    9.784255226   12.939938630
    1.183472454    9.117165985    9.819944586   13.001560841
    1.190651085    9.156769175    9.857057205   13.063885003
    1.197829716    9.195698489    9.894742154   13.124871358
    1.205008347    9.231438991    9.930385646   13.181039639
    1.212186978    9.251271521    9.951070592   13.214453811
    1.219365609    9.219720010    9.921089544   13.174826222
    1.226544240    9.131896126    9.835455806   13.055330137
    1.233722871    9.083741753    9.790342093   12.992440132
    1.240901503    9.093102654    9.803639380   13.011633849
    1.248080134    9.121541148    9.836828630   13.058402062
    1.255258765    9.151929741    9.872795369   13.108540134
    1.262437396    9.180297954    9.907656628   13.156570020
    1.269616027    9.206290435    9.941198973   13.202191155
    1.276794658    9.230306103    9.974021161   13.246231197
    1.283973289    9.252807652   10.006859168   13.289687512
    1.291151920    9.274181892   10.040470542   13.333559155
    1.298330551    9.294730851   10.075655523   13.378870871
    1.305509182    9.314689146   10.113297210   13.426724993
    1.312687813    9.334241862   10.154335148   13.478272295
    1.319866444    9.353534954   10.199418698   13.534293275
    1.327045075    9.372665761   10.247243956   13.593182250
    1.334223706    9.391608416   10.287857141   13.642829160
    1.341402337    9.409975168   10.282872263   13.636639784
    1.348580968    9.427074091   10.169622472   13.498560116
    1.355759599    9.444010040   10.029864314   13.327529901
    1.362938230    9.462597136   10.001677098   13.290693541
    1.370116861    9.482433319   10.043341113   13.337212247
    1.377295492    9.503024402   10.104115051   13.405233197
    1.384474124    9.524324461   10.168909776   13.476083103
    1.391652755    9.546354483   10.234989508   13.546337157
    1.398831386    9.568632700   10.298982240   13.613425991
    1.406010017    9.588423568   10.342230684   13.663062575
    1.413188648    9.596541337   10.300826215   13.645549225
    1.420367279    9.583982712   10.112017088   13.512032665
    1.427545910    9.574845193    9.945012266   13.395032980
    1.434724541    9.586662639    9.922913297   13.390964396
    1.441903172    9.608065500    9.966109288   13.437657514
    1.449081803    9.631366786   10.020758805   13.493075924
    1.456260434    9.654494072   10.072346986   13.545926188
    1.463439065    9.677134674   10.118666395   13.594529163
    1.470617696    9.699378702   10.160308105   13.639385762
    1.477796327    9.721376817   10.198264888   13.681304596
    1.484974958    9.743265271   10.233406744   13.720993477
    1.492153589    9.765155833   10.266410047   13.759005307
    1.499332220    9.787139999   10.297785619   13.795761072
    1.506510851    9.809295135   10.327919126   13.831582282
    1.513689482    9.831689870   10.357104869   13.866718145
    1.520868114    9.854388482   10.385570909   13.901365911
    1.528046745    9.877454556   10.413497123   13.935685691
    1.535225376    9.900954288   10.441028110   13.969811306
    1.542404007    9.924959776   10.468282491   14.003858450
    1.549582638    9.949552649   10.495359721   14.037931099
    1.556761269    9.974828409   10.522345194   14.072126911
    1.563939900   10.000901985   10.549314188   14.106542178
    1.571118531   10.027915117   10.576335039   14.141276872
    1.578297162   10.056046476   10.603471850   14.176440326
    1.585475793   10.085525716   10.630786973   14.212158174
    1.592654424   10.116652936   10.658343464   14.248581242
    1.599833055   10.149824667   10.686207695   14.285896924
    1.607011686   10.185564369   10.714452175   14.324342273
    1.614190317   10.224541190   10.743158145   14.364212294
    1.621368948   10.267503878   10.772415539   14.405833900
    1.628547579   10.314831466   10.802309951   14.449384793
    1.635726210   10.364509596   10.832854769   14.494075225
    1.642904841   10.404198788   10.863715425   14.534938527
    1.650083472   10.389881733   10.893460349   14.554189516
    1.657262104   10.265047237   10.920249822   14.528991540
    1.664440735   10.137663805   10.948114824   14.503093264
    1.671619366   10.123206094   10.981412703   14.523292428
    1.678797997   10.167964823   11.018575688   14.567917130
    1.685976628   10.226419506   11.058342210   14.618612491
    1.693155259   10.285547549   11.100332619   14.670126721
    1.700333890   10.342280238   11.143008950   14.720952392
    1.707512521   10.392134060   11.178609807   14.767848486
    1.714691152   10.420571631   11.182847606   14.800465075
    1.721869783   10.418291701   11.139634522   14.812075440
    1.729048414   10.428193253   11.114941920   14.832149284
    1.736227045   10.471242883   11.140316768   14.874956710
    1.743405676   10.529786232   11.186801443   14.928032955
    1.750584307   10.593484769   11.238021362   14.984234489
    1.757762938   10.655918974   11.288906986   15.040294009
    1.764941569   10.698140009   11.334445531   15.088676138
    1.772120200   10.669597518   11.362685568   15.109474143
    1.779298831   10.564260574   11.372559146   15.100434426
    1.786477462   10.518484949   11.397424347   15.115555732
    1.793656093   10.556795905   11.443537311   15.163421527
    1.800834725   10.624444953   11.497842219   15.217470919
    1.808013356   10.696081917   11.554207190   15.257235791
    1.815191987   10.768437099   11.612539771   15.287269114
    1.822370618   10.847198988   11.675727401   15.335128066
    1.829549249   10.931780681   11.743954671   15.398812142
    1.836727880   11.012096960   11.814085022   15.467761878
    1.843906511   11.049964198   11.873515510   15.534225202
    1.851085142   10.964416898   11.895745203   15.587333519
    1.858263773   10.795199865   11.900825630   15.629995188
    1.865442404   10.709877085   11.954879300   15.678213403
    1.872621035   10.717592925   12.046691074   15.727842040
    1.879799666   10.781806244   12.143934311   15.761143160
    1.886978297   10.867987869   12.239905703   15.788177195
    1.894156928   10.961437975   12.302948110   15.809069060
    1.901335559   11.032055979   12.227201018   15.750518680
    1.908514190   11.027561549   11.990274867   15.651234439
    1.915692821   10.881845514   11.586255857   15.594881202
    1.922871452   10.724668201   11.231346930   15.595606038
    1.930050083   10.718516880   11.179864391   15.658961682
    1.937228715   10.795572500   11.282662622   15.747192624
    1.944407346   10.891543486   11.415005181   15.838703008
    1.951585977   10.986281317   11.541096243   15.928593088
    1.958764608   11.068348496   11.653033295   16.016382256
    1.965943239   11.109621972   11.743616652   16.099717506
    1.973121870   11.080359022   11.806474704   16.167802389
    1.980300501   11.043645789   11.864903352   16.194660099
    1.987479132   11.048801608   11.934389066   16.176497157
    1.994657763   11.087102986   12.005895991   16.184451338
    2.001836394   11.147620221   12.081237382   16.239283078
    2.009015025   11.220684398   12.166040327   16.319847014
    2.016193656   11.297905085   12.257628643   16.409365746
    2.023372287   11.376282054   12.354108801   16.501428460
    2.030550918   11.455045086   12.452661859   16.592146059
    2.037729549   11.529707483   12.537911108   16.668515168
    2.044908180   11.581570082   12.557663769   16.696874105
    2.052086811   11.577285788   12.449977708   16.667278756
    2.059265442   11.514180813   12.298600254   16.646910576
    2.066444073   11.443981797   12.222765789   16.673085036
    2.073622705   11.447220358   12.255916188   16.744180150
    2.080801336   11.507861191   12.347599255   16.838824129
    2.087979967   11.582305382   12.442955130   16.938774665
    2.095158598   11.650022949   12.506283684   17.034822755
    2.102337229   11.710387794   12.539581092   17.121991705
    2.109515860   11.777265828   12.580547601   17.187460080
    2.116694491   11.850898586   12.609077904   17.201641576
    2.123873122   11.927218363   12.640395729   17.213454088
    2.131051753   12.002352395   12.705246158   17.277911293
    2.138230384   12.066169939   12.777806256   17.352308843
    2.145409015   12.105657958   12.841292510   17.405317071
    2.152587646   12.090217224   12.889153915   17.414199272
    2.159766277   12.027149843   12.921993243   17.381981107
    2.166944908   12.025365447   12.977429063   17.410870587
    2.174123539   12.086982991   13.053594508   17.498761986
    2.181302170   12.167506110   13.129817653   17.596132515
    2.188480801   12.250436096   13.203553259   17.691744875
    2.195659432   12.331877315   13.281890201   17.796072272
    2.202838063   12.401270377   13.353048103   17.901691222
    2.210016694   12.443342464   13.395542819   17.995973526
    2.217195326   12.479387677   13.422816841   18.088032824
    2.224373957   12.542313085   13.477706634   18.192144336
    2.231552588   12.617330485   13.557671997   18.282967559
    2.238731219   12.673837556   13.643923142   18.305789008
    2.245909850   12.701936355   13.727819334   18.276184918
    2.253088481   12.732499127   13.811189319   18.285402256
    2.260267112   12.793895564   13.900517542   18.352041768
    2.267445743   12.874745933   13.994947637   18.463683718
    2.274624374   12.942691693   14.088946755   18.582594143
    2.281803005   12.989383225   14.179481860   18.685851176
    2.288981636   13.041626087   14.274452918   18.760674945
    2.296160267   13.096009874   14.384000359   18.777917023
    2.303338898   13.158472348   14.507421978   18.798834556
    2.310517529   13.233445542   14.639441052   18.888545668
    2.317696160   13.292985158   14.765703982   19.000342654
    2.324874791   13.328637526   14.837329658   19.090589547
    2.332053422   13.369210228   14.764093964   19.172788601
    2.339232053   13.441504679   14.624916640   19.272990127
    2.346410684   13.520837399   14.570392975   19.370539211
    2.353589316   13.587206120   14.521136053   19.439715955
    2.360767947   13.675220798   14.535586588   19.526890522
    2.367946578   13.794459503   14.641111472   19.650725055
    2.375125209   13.922051488   14.756403747   19.778556796
    2.382303840   14.044837378   14.860998746   19.899573212
    2.389482471   14.143106201   14.983791849   20.014932999
    2.396661102   14.185772012   15.112398881   20.106705439
    2.403839733   14.233645237   15.242829810   20.202378896
    2.411018364   14.346724223   15.381673518   20.315020032
    2.418196995   14.479790578   15.518618712   20.407144487
    2.425375626   14.598102357   15.655475051   20.506832850
    2.432554257   14.636480756   15.790556497   20.651308601
    2.439732888   14.567579958   15.916376273   20.817189952
    2.446911519   14.556570548   16.045602668   20.979682380
    2.454090150   14.535597952   16.143613963   21.095591311
    2.461268781   14.437289606   16.204991230   21.149369959
    2.468447412   14.473159194   16.315731142   21.192740553
    2.475626043   14.623877929   16.457433986   21.261412328
    2.482804674   14.741170515   16.557918564   21.376352047
    2.489983306   14.704469416   16.615250354   21.509040324
    2.497161937   14.523562420   16.703166389   21.659569383
    2.504340568   14.435701374   16.865342893   21.834818696
    2.511519199   14.517217125   17.058784394   22.039919634
    2.518697830   14.664717933   17.240296343   22.254791168
    2.525876461   14.811509912   17.389019871   22.454368167
    2.533055092   14.909767925   17.510655341   22.625950519
    2.540233723   15.009763193   17.661223738   22.791345448
