# energy grid [eV]     ieps_x  ieps_y  ieps_z
#
    0.200000000    5.012909568    5.197716117    7.319682151
    0.207178631    5.011979565    5.196721835    7.318242236
    0.214357262    5.011017335    5.195693136    7.316752420
    0.221535893    5.010022938    5.194630084    7.315212793
    0.228714524    5.008996432    5.193532748    7.313623445
    0.235893155    5.007937879    5.192401197    7.311984471
    0.243071786    5.006847342    5.191235503    7.310295968
    0.250250417    5.005724886    5.190035738    7.308558036
    0.257429048    5.004570578    5.188801979    7.306770776
    0.264607679    5.003384486    5.187534302    7.304934295
    0.271786311    5.002166681    5.186232788    7.303048700
    0.278964942    5.000917233    5.184897516    7.301114100
    0.286143573    4.999636217    5.183528571    7.299130608
    0.293322204    4.998323707    5.182126037    7.297098340
    0.300500835    4.996979781    5.180690001    7.295017412
    0.307679466    4.995604517    5.179220551    7.292887946
    0.314858097    4.994197994    5.177717777    7.290710064
    0.322036728    4.992760294    5.176181773    7.288483890
    0.329215359    4.991291501    5.174612630    7.286209551
    0.336393990    4.989791699    5.173010446    7.283887178
    0.343572621    4.988260973    5.171375317    7.281516902
    0.350751252    4.986699413    5.169707342    7.279098857
    0.357929883    4.985107106    5.168006621    7.276633180
    0.365108514    4.983484143    5.166273258    7.274120009
    0.372287145    4.981830617    5.164507355    7.271559484
    0.379465776    4.980146621    5.162709018    7.268951750
    0.386644407    4.978432250    5.160878354    7.266296949
    0.393823038    4.976687600    5.159015472    7.263595231
    0.401001669    4.974912768    5.157120481    7.260846743
    0.408180301    4.973107855    5.155193493    7.258051638
    0.415358932    4.971272959    5.153234620    7.255210067
    0.422537563    4.969408183    5.151243978    7.252322187
    0.429716194    4.967513629    5.149221682    7.249388154
    0.436894825    4.965589402    5.147167849    7.246408127
    0.444073456    4.963635607    5.145082597    7.243382267
    0.451252087    4.961652351    5.142966048    7.240310737
    0.458430718    4.959639742    5.140818321    7.237193700
    0.465609349    4.957597889    5.138639540    7.234031324
    0.472787980    4.955526901    5.136429829    7.230823777
    0.479966611    4.953426891    5.134189311    7.227571227
    0.487145242    4.951297971    5.131918115    7.224273846
    0.494323873    4.949140255    5.129616367    7.220931809
    0.501502504    4.946953857    5.127284196    7.217545288
    0.508681135    4.944738894    5.124921733    7.214114461
    0.515859766    4.942495482    5.122529107    7.210639505
    0.523038397    4.940223739    5.120106452    7.207120600
    0.530217028    4.937923784    5.117653900    7.203557927
    0.537395659    4.935595737    5.115171587    7.199951668
    0.544574290    4.933239720    5.112659647    7.196302008
    0.551752922    4.930855854    5.110118217    7.192609131
    0.558931553    4.928444262    5.107547434    7.188873225
    0.566110184    4.926005068    5.104947438    7.185094477
    0.573288815    4.923538397    5.102318367    7.181273078
    0.580467446    4.921044374    5.099660361    7.177409218
    0.587646077    4.918523127    5.096973564    7.173503089
    0.594824708    4.915974782    5.094258115    7.169554885
    0.602003339    4.913399468    5.091514160    7.165564801
    0.609181970    4.910797313    5.088741841    7.161533032
    0.616360601    4.908168449    5.085941304    7.157459776
    0.623539232    4.905513005    5.083112694    7.153345231
    0.630717863    4.902831114    5.080256158    7.149189597
    0.637896494    4.900122907    5.077371844    7.144993075
    0.645075125    4.897388518    5.074459899    7.140755865
    0.652253756    4.894628080    5.071520472    7.136478172
    0.659432387    4.891841728    5.068553713    7.132160199
    0.666611018    4.889029598    5.065559773    7.127802151
    0.673789649    4.886191824    5.062538801    7.123404234
    0.680968280    4.883328544    5.059490951    7.118966656
    0.688146912    4.880439894    5.056416373    7.114489623
    0.695325543    4.877526014    5.053315222    7.109973345
    0.702504174    4.874587040    5.050187651    7.105418032
    0.709682805    4.871623113    5.047033814    7.100823895
    0.716861436    4.868634372    5.043853866    7.096191145
    0.724040067    4.865620957    5.040647962    7.091519995
    0.731218698    4.862583010    5.037416258    7.086810659
    0.738397329    4.859520670    5.034158911    7.082063349
    0.745575960    4.856434082    5.030876078    7.077278282
    0.752754591    4.853323386    5.027567915    7.072455673
    0.759933222    4.850188726    5.024234582    7.067595739
    0.767111853    4.847030246    5.020876237    7.062698696
    0.774290484    4.843848088    5.017493038    7.057764764
    0.781469115    4.840642399    5.014085145    7.052794160
    0.788647746    4.837413321    5.010652717    7.047787103
    0.795826377    4.834161002    5.007195916    7.042743815
    0.803005008    4.830885586    5.003714900    7.037664515
    0.810183639    4.827587219    5.000209832    7.032549425
    0.817362270    4.824266049    4.996680872    7.027398766
    0.824540902    4.820922221    4.993128182    7.022212762
    0.831719533    4.817555884    4.989551924    7.016991634
    0.838898164    4.814167184    4.985952261    7.011735607
    0.846076795    4.810756270    4.982329354    7.006444905
    0.853255426    4.807323290    4.978683367    7.001119752
    0.860434057    4.803868392    4.975014462    6.995760373
    0.867612688    4.800391726    4.971322804    6.990366994
    0.874791319    4.796893440    4.967608555    6.984939841
    0.881969950    4.793373684    4.963871880    6.979479140
    0.889148581    4.789832608    4.960112942    6.973985118
    0.896327212    4.786270361    4.956331906    6.968458002
    0.903505843    4.782687094    4.952528935    6.962898020
    0.910684474    4.779082957    4.948704196    6.957305399
    0.917863105    4.775458102    4.944857851    6.951680369
    0.925041736    4.771812677    4.940990067    6.946023157
    0.932220367    4.768146836    4.937101008    6.940333993
    0.939398998    4.764460728    4.933190839    6.934613106
    0.946577629    4.760754506    4.929259725    6.928860725
    0.953756260    4.757028320    4.925307832    6.923077080
    0.960934891    4.753282323    4.921335324    6.917262402
    0.968113523    4.749516665    4.917342369    6.911416919
    0.975292154    4.745731500    4.913329130    6.905540863
    0.982470785    4.741926979    4.909295773    6.899634465
    0.989649416    4.738103254    4.905242464    6.893697955
    0.996828047    4.734260477    4.901169368    6.887731564
    1.004006678    4.730398801    4.897076651    6.881735524
    1.011185309    4.726518378    4.892964479    6.875710065
    1.018363940    4.722619360    4.888833017    6.869655419
    1.025542571    4.718701900    4.884682429    6.863571817
    1.032721202    4.714766149    4.880512883    6.857459491
    1.039899833    4.710812262    4.876324542    6.851318673
    1.047078464    4.706840389    4.872117573    6.845149594
    1.054257095    4.702850684    4.867892141    6.838952486
    1.061435726    4.698843298    4.863648410    6.832727581
    1.068614357    4.694818385    4.859386545    6.826475110
    1.075792988    4.690776097    4.855106713    6.820195305
    1.082971619    4.686716585    4.850809076    6.813888397
    1.090150250    4.682640003    4.846493800    6.807554620
    1.097328881    4.678546503    4.842161050    6.801194203
    1.104507513    4.674436236    4.837810990    6.794807379
    1.111686144    4.670309354    4.833443783    6.788394379
    1.118864775    4.666166011    4.829059594    6.781955434
    1.126043406    4.662006357    4.824658587    6.775490776
    1.133222037    4.657830544    4.820240924    6.769000636
    1.140400668    4.653638724    4.815806771    6.762485245
    1.147579299    4.649431048    4.811356289    6.755944833
    1.154757930    4.645207668    4.806889641    6.749379632
    1.161936561    4.640968735    4.802406991    6.742789871
    1.169115192    4.636714400    4.797908501    6.736175782
    1.176293823    4.632444814    4.793394333    6.729537594
    1.183472454    4.628160127    4.788864649    6.722875538
    1.190651085    4.623860490    4.784319610    6.716189842
    1.197829716    4.619546053    4.779759378    6.709480736
    1.205008347    4.615216966    4.775184114    6.702748450
    1.212186978    4.610873380    4.770593979    6.695993212
    1.219365609    4.606515444    4.765989133    6.689215252
    1.226544240    4.602143306    4.761369736    6.682414796
    1.233722871    4.597757118    4.756735949    6.675592074
    1.240901503    4.593357026    4.752087930    6.668747312
    1.248080134    4.588943181    4.747425839    6.661880739
    1.255258765    4.584515730    4.742749835    6.654992582
    1.262437396    4.580074822    4.738060075    6.648083066
    1.269616027    4.575620604    4.733356719    6.641152418
    1.276794658    4.571153224    4.728639924    6.634200865
    1.283973289    4.566672830    4.723909846    6.627228631
    1.291151920    4.562179568    4.719166644    6.620235942
    1.298330551    4.557673585    4.714410473    6.613223023
    1.305509182    4.553155027    4.709641489    6.606190097
    1.312687813    4.548624040    4.704859849    6.599137389
    1.319866444    4.544080771    4.700065707    6.592065122
    1.327045075    4.539525364    4.695259219    6.584973519
    1.334223706    4.534957964    4.690440538    6.577862803
    1.341402337    4.530378716    4.685609820    6.570733194
    1.348580968    4.525787765    4.680767216    6.563584916
    1.355759599    4.521185253    4.675912881    6.556418188
    1.362938230    4.516571326    4.671046966    6.549233231
    1.370116861    4.511946125    4.666169625    6.542030266
    1.377295492    4.507309795    4.661281009    6.534809512
    1.384474124    4.502662476    4.656381268    6.527571187
    1.391652755    4.498004311    4.651470554    6.520315509
    1.398831386    4.493335442    4.646549016    6.513042698
    1.406010017    4.488656010    4.641616805    6.505752969
    1.413188648    4.483966155    4.636674070    6.498446540
    1.420367279    4.479266019    4.631720959    6.491123626
    1.427545910    4.474555740    4.626757621    6.483784443
    1.434724541    4.469835458    4.621784202    6.476429205
    1.441903172    4.465105312    4.616800851    6.469058128
    1.449081803    4.460365442    4.611807713    6.461671423
    1.456260434    4.455615984    4.606804936    6.454269305
    1.463439065    4.450857077    4.601792664    6.446851986
    1.470617696    4.446088858    4.596771042    6.439419677
    1.477796327    4.441311463    4.591740214    6.431972589
    1.484974958    4.436525029    4.586700326    6.424510933
    1.492153589    4.431729691    4.581651519    6.417034917
    1.499332220    4.426925585    4.576593936    6.409544752
    1.506510851    4.422112846    4.571527721    6.402040645
    1.513689482    4.417291608    4.566453013    6.394522804
    1.520868114    4.412462004    4.561369955    6.386991436
    1.528046745    4.407624168    4.556278686    6.379446746
    1.535225376    4.402778234    4.551179346    6.371888940
    1.542404007    4.397924332    4.546072075    6.364318224
    1.549582638    4.393062595    4.540957011    6.356734800
    1.556761269    4.388193154    4.535834293    6.349138872
    1.563939900    4.383316140    4.530704057    6.341530642
    1.571118531    4.378431683    4.525566440    6.333910312
    1.578297162    4.373539913    4.520421579    6.326278083
    1.585475793    4.368640958    4.515269609    6.318634155
    1.592654424    4.363734948    4.510110665    6.310978728
    1.599833055    4.358822010    4.504944882    6.303311999
    1.607011686    4.353902271    4.499772393    6.295634168
    1.614190317    4.348975860    4.494593330    6.287945430
    1.621368948    4.344042902    4.489407828    6.280245981
    1.628547579    4.339103523    4.484216017    6.272536018
    1.635726210    4.334157848    4.479018028    6.264815735
    1.642904841    4.329206002    4.473813992    6.257085325
    1.650083472    4.324248109    4.468604040    6.249344981
    1.657262104    4.319284293    4.463388299    6.241594896
    1.664440735    4.314314677    4.458166899    6.233835261
    1.671619366    4.309339382    4.452939968    6.226066266
    1.678797997    4.304358531    4.447707633    6.218288100
    1.685976628    4.299372245    4.442470020    6.210500953
    1.693155259    4.294380645    4.437227256    6.202705012
    1.700333890    4.289383851    4.431979466    6.194900464
    1.707512521    4.284381982    4.426726774    6.187087495
    1.714691152    4.279375158    4.421469304    6.179266291
    1.721869783    4.274363495    4.416207181    6.171437035
    1.729048414    4.269347113    4.410940525    6.163599912
    1.736227045    4.264326128    4.405669460    6.155755104
    1.743405676    4.259300656    4.400394106    6.147902793
    1.750584307    4.254270815    4.395114585    6.140043159
    1.757762938    4.249236718    4.389831016    6.132176383
    1.764941569    4.244198480    4.384543518    6.124302643
    1.772120200    4.239156216    4.379252210    6.116422118
    1.779298831    4.234110039    4.373957210    6.108534985
    1.786477462    4.229060062    4.368658635    6.100641420
    1.793656093    4.224006397    4.363356602    6.092741599
    1.800834725    4.218949156    4.358051226    6.084835696
    1.808013356    4.213888449    4.352742624    6.076923885
    1.815191987    4.208824387    4.347430908    6.069006338
    1.822370618    4.203757080    4.342116193    6.061083228
    1.829549249    4.198686637    4.336798593    6.053154725
    1.836727880    4.193613166    4.331478219    6.045220999
    1.843906511    4.188536776    4.326155183    6.037282219
    1.851085142    4.183457573    4.320829597    6.029338553
    1.858263773    4.178375663    4.315501570    6.021390168
    1.865442404    4.173291154    4.310171213    6.013437230
    1.872621035    4.168204151    4.304838634    6.005479905
    1.879799666    4.163114757    4.299503942    5.997518357
    1.886978297    4.158023078    4.294167245    5.989552749
    1.894156928    4.152929216    4.288828649    5.981583244
    1.901335559    4.147833275    4.283488260    5.973610003
    1.908514190    4.142735357    4.278146184    5.965633187
    1.915692821    4.137635563    4.272802526    5.957652955
    1.922871452    4.132533994    4.267457390    5.949669466
    1.930050083    4.127430751    4.262110880    5.941682878
    1.937228715    4.122325933    4.256763098    5.933693347
    1.944407346    4.117219640    4.251414146    5.925701029
    1.951585977    4.112111969    4.246064126    5.917706079
    1.958764608    4.107003018    4.240713139    5.909708651
    1.965943239    4.101892885    4.235361284    5.901708898
    1.973121870    4.096781666    4.230008661    5.893706971
    1.980300501    4.091669457    4.224655369    5.885703023
    1.987479132    4.086556353    4.219301505    5.877697202
    1.994657763    4.081442449    4.213947167    5.869689658
    2.001836394    4.076327839    4.208592451    5.861680539
    2.009015025    4.071212616    4.203237453    5.853669992
    2.016193656    4.066096872    4.197882269    5.845658163
    2.023372287    4.060980700    4.192526993    5.837645199
    2.030550918    4.055864192    4.187171718    5.829631242
    2.037729549    4.050747437    4.181816539    5.821616437
    2.044908180    4.045630527    4.176461547    5.813600926
    2.052086811    4.040513550    4.171106834    5.805584850
    2.059265442    4.035396596    4.165752492    5.797568349
    2.066444073    4.030279753    4.160398611    5.789551564
    2.073622705    4.025163108    4.155045280    5.781534633
    2.080801336    4.020046748    4.149692589    5.773517693
    2.087979967    4.014930761    4.144340626    5.765500881
    2.095158598    4.009815231    4.138989479    5.757484333
    2.102337229    4.004700244    4.133639235    5.749468184
    2.109515860    3.999585884    4.128289981    5.741452567
    2.116694491    3.994472235    4.122941801    5.733437615
    2.123873122    3.989359381    4.117594782    5.725423461
    2.131051753    3.984247403    4.112249008    5.717410234
    2.138230384    3.979136384    4.106904562    5.709398065
    2.145409015    3.974026406    4.101561527    5.701387084
    2.152587646    3.968917549    4.096219986    5.693377418
    2.159766277    3.963809893    4.090880021    5.685369194
    2.166944908    3.958703518    4.085541712    5.677362539
    2.174123539    3.953598502    4.080205141    5.669357577
    2.181302170    3.948494924    4.074870386    5.661354434
    2.188480801    3.943392862    4.069537528    5.653353233
    2.195659432    3.938292393    4.064206644    5.645354096
    2.202838063    3.933193592    4.058877813    5.637357144
    2.210016694    3.928096537    4.053551111    5.629362498
    2.217195326    3.923001301    4.048226615    5.621370279
    2.224373957    3.917907961    4.042904402    5.613380603
    2.231552588    3.912816589    4.037584545    5.605393591
    2.238731219    3.907727260    4.032267121    5.597409357
    2.245909850    3.902640046    4.026952202    5.589428019
    2.253088481    3.897555019    4.021639863    5.581449691
    2.260267112    3.892472250    4.016330176    5.573474487
    2.267445743    3.887391812    4.011023212    5.565502521
    2.274624374    3.882313774    4.005719044    5.557533905
    2.281803005    3.877238206    4.000417743    5.549568749
    2.288981636    3.872165177    3.995119377    5.541607166
    2.296160267    3.867094757    3.989824018    5.533649263
    2.303338898    3.862027012    3.984531734    5.525695150
    2.310517529    3.856962011    3.979242594    5.517744935
    2.317696160    3.851899820    3.973956664    5.509798724
    2.324874791    3.846840506    3.968674012    5.501856623
    2.332053422    3.841784134    3.963394706    5.493918738
    2.339232053    3.836730770    3.958118809    5.485985172
    2.346410684    3.831680478    3.952846389    5.478056028
    2.353589316    3.826633322    3.947577509    5.470131409
    2.360767947    3.821589365    3.942312234    5.462211417
    2.367946578    3.816548671    3.937050626    5.454296152
    2.375125209    3.811511302    3.931792750    5.446385714
    2.382303840    3.806477318    3.926538667    5.438480201
    2.389482471    3.801446782    3.921288439    5.430579711
    2.396661102    3.796419754    3.916042126    5.422684342
    2.403839733    3.791396294    3.910799791    5.414794190
    2.411018364    3.786376461    3.905561491    5.406909350
    2.418196995    3.781360315    3.900327288    5.399029917
    2.425375626    3.776347913    3.895097239    5.391155983
    2.432554257    3.771339314    3.889871403    5.383287643
    2.439732888    3.766334574    3.884649837    5.375424987
    2.446911519    3.761333751    3.879432598    5.367568108
    2.454090150    3.756336901    3.874219744    5.359717094
    2.461268781    3.751344078    3.869011329    5.351872036
    2.468447412    3.746355339    3.863807409    5.344033022
    2.475626043    3.741370737    3.858608039    5.336200140
    2.482804674    3.736390327    3.853413274    5.328373476
    2.489983306    3.731414162    3.848223166    5.320553116
    2.497161937    3.726442295    3.843037769    5.312739147
    2.504340568    3.721474779    3.837857135    5.304931651
    2.511519199    3.716511665    3.832681317    5.297130713
    2.518697830    3.711553004    3.827510366    5.289336416
    2.525876461    3.706598848    3.822344332    5.281548841
    2.533055092    3.701649246    3.817183267    5.273768069
    2.540233723    3.696704249    3.812027220    5.265994181
