# energy grid [eV]     epsr_x  epsr_y  epsr_z
#
    0.200000000   12.718070193    5.920983682   13.123114011
    0.207178631   12.720762644    5.921811096   13.125855195
    0.214357262   12.723551456    5.922667997   13.128694435
    0.221535893   12.726436777    5.923554418   13.131631880
    0.228714524   12.729418764    5.924470394   13.134667682
    0.235893155   12.732497576    5.925415958   13.137801998
    0.243071786   12.735673378    5.926391148   13.141034991
    0.250250417   12.738946341    5.927396001   13.144366829
    0.257429048   12.742316641    5.928430554   13.147797684
    0.264607679   12.745784459    5.929494849   13.151327736
    0.271786311   12.749349983    5.930588924   13.154957169
    0.278964942   12.753013404    5.931712824   13.158686171
    0.286143573   12.756774922    5.932866590   13.162514938
    0.293322204   12.760634739    5.934050267   13.166443670
    0.300500835   12.764593065    5.935263900   13.170472571
    0.307679466   12.768650113    5.936507537   13.174601855
    0.314858097   12.772806105    5.937781225   13.178831736
    0.322036728   12.777061267    5.939085013   13.183162437
    0.329215359   12.781415829    5.940418952   13.187594187
    0.336393990   12.785870030    5.941783093   13.192127217
    0.343572621   12.790424112    5.943177489   13.196761767
    0.350751252   12.795078325    5.944602193   13.201498083
    0.357929883   12.799832924    5.946057262   13.206336414
    0.365108514   12.804688168    5.947542751   13.211277015
    0.372287145   12.809644325    5.949058719   13.216320151
    0.379465776   12.814701667    5.950605224   13.221466087
    0.386644407   12.819860473    5.952182325   13.226715098
    0.393823038   12.825121028    5.953790086   13.232067462
    0.401001669   12.830483621    5.955428568   13.237523467
    0.408180301   12.835948551    5.957097835   13.243083402
    0.415358932   12.841516119    5.958797953   13.248747566
    0.422537563   12.847186635    5.960528988   13.254516261
    0.429716194   12.852960415    5.962291008   13.260389798
    0.436894825   12.858837780    5.964084082   13.266368492
    0.444073456   12.864819059    5.965908281   13.272452665
    0.451252087   12.870904586    5.967763676   13.278642646
    0.458430718   12.877094702    5.969650340   13.284938769
    0.465609349   12.883389755    5.971568347   13.291341375
    0.472787980   12.889790100    5.973517774   13.297850810
    0.479966611   12.896296095    5.975498698   13.304467430
    0.487145242   12.902908111    5.977511196   13.311191594
    0.494323873   12.909626519    5.979555349   13.318023669
    0.501502504   12.916451703    5.981631237   13.324964028
    0.508681135   12.923384049    5.983738944   13.332013051
    0.515859766   12.930423952    5.985878553   13.339171125
    0.523038397   12.937571815    5.988050149   13.346438645
    0.530217028   12.944828045    5.990253820   13.353816009
    0.537395659   12.952193060    5.992489653   13.361303626
    0.544574290   12.959667282    5.994757738   13.368901909
    0.551752922   12.967251143    5.997058165   13.376611281
    0.558931553   12.974945078    5.999391028   13.384432169
    0.566110184   12.982749535    6.001756420   13.392365010
    0.573288815   12.990664965    6.004154436   13.400410245
    0.580467446   12.998691830    6.006585174   13.408568325
    0.587646077   13.006830596    6.009048731   13.416839707
    0.594824708   13.015081739    6.011545207   13.425224857
    0.602003339   13.023445742    6.014074704   13.433724247
    0.609181970   13.031923098    6.016637324   13.442338356
    0.616360601   13.040514305    6.019233173   13.451067673
    0.623539232   13.049219869    6.021862354   13.459912693
    0.630717863   13.058040307    6.024524977   13.468873918
    0.637896494   13.066976142    6.027221150   13.477951861
    0.645075125   13.076027906    6.029950984   13.487147040
    0.652253756   13.085196139    6.032714591   13.496459982
    0.659432387   13.094481389    6.035512084   13.505891223
    0.666611018   13.103884214    6.038343579   13.515441307
    0.673789649   13.113405179    6.041209193   13.525110784
    0.680968280   13.123044860    6.044109045   13.534900215
    0.688146912   13.132803839    6.047043255   13.544810170
    0.695325543   13.142682710    6.050011944   13.554841225
    0.702504174   13.152682073    6.053015238   13.564993966
    0.709682805   13.162802540    6.056053260   13.575268989
    0.716861436   13.173044730    6.059126138   13.585666896
    0.724040067   13.183409272    6.062234001   13.596188302
    0.731218698   13.193896807    6.065376979   13.606833827
    0.738397329   13.204507981    6.068555205   13.617604102
    0.745575960   13.215243454    6.071768812   13.628499768
    0.752754591   13.226103893    6.075017937   13.639521475
    0.759933222   13.237089977    6.078302717   13.650669882
    0.767111853   13.248202394    6.081623291   13.661945658
    0.774290484   13.259441841    6.084979802   13.673349480
    0.781469115   13.270809029    6.088372391   13.684882039
    0.788647746   13.282304676    6.091801204   13.696544032
    0.795826377   13.293929512    6.095266389   13.708336168
    0.803005008   13.305684278    6.098768093   13.720259165
    0.810183639   13.317569725    6.102306467   13.732313754
    0.817362270   13.329586616    6.105881665   13.744500673
    0.824540902   13.341735724    6.109493840   13.756820673
    0.831719533   13.354017836    6.113143150   13.769274515
    0.838898164   13.366433747    6.116829752   13.781862971
    0.846076795   13.378984266    6.120553808   13.794586824
    0.853255426   13.391670213    6.124315481   13.807446868
    0.860434057   13.404492419    6.128114934   13.820443909
    0.867612688   13.417451730    6.131952335   13.833578763
    0.874791319   13.430549001    6.135827852   13.846852259
    0.881969950   13.443785102    6.139741657   13.860265238
    0.889148581   13.457160914    6.143693923   13.873818551
    0.896327212   13.470677331    6.147684825   13.887513063
    0.903505843   13.484335261    6.151714540   13.901349651
    0.910684474   13.498135624    6.155783248   13.915329204
    0.917863105   13.512079355    6.159891132   13.929452622
    0.925041736   13.526167401    6.164038374   13.943720822
    0.932220367   13.540400722    6.168225163   13.958134729
    0.939398998   13.554780295    6.172451685   13.972695284
    0.946577629   13.569307109    6.176718133   13.987403441
    0.953756260   13.583982167    6.181024700   14.002260168
    0.960934891   13.598806488    6.185371581   14.017266444
    0.968113523   13.613781105    6.189758976   14.032423265
    0.975292154   13.628907066    6.194187083   14.047731639
    0.982470785   13.644185434    6.198656107   14.063192589
    0.989649416   13.659617290    6.203166253   14.078807153
    0.996828047   13.675203726    6.207717729   14.094576383
    1.004006678   13.690945854    6.212310745   14.110501346
    1.011185309   13.706844800    6.216945515   14.126583124
    1.018363940   13.722901709    6.221622254   14.142822815
    1.025542571   13.739117739    6.226341181   14.159221531
    1.032721202   13.755494068    6.231102516   14.175780401
    1.039899833   13.772031890    6.235906484   14.192500571
    1.047078464   13.788732417    6.240753311   14.209383202
    1.054257095   13.805596878    6.245643225   14.226429470
    1.061435726   13.822626522    6.250576458   14.243640572
    1.068614357   13.839822614    6.255553246   14.261017717
    1.075792988   13.857186440    6.260573826   14.278562135
    1.082971619   13.874719303    6.265638438   14.296275073
    1.090150250   13.892422527    6.270747325   14.314157794
    1.097328881   13.910297451    6.275900734   14.332211579
    1.104507513   13.928345430    6.281098914   14.350437724
    1.111686144   13.946567816    6.286342116   14.368837530
    1.118864775   13.964965990    6.291630595   14.387412323
    1.126043406   13.983541456    6.296964611   14.406163506
    1.133222037   14.002295702    6.302344426   14.425092480
    1.140400668   14.021230158    6.307770304   14.444200622
    1.147579299   14.040346293    6.313242512   14.463489337
    1.154757930   14.059645613    6.318761321   14.482960058
    1.161936561   14.079129651    6.324327006   14.502614243
    1.169115192   14.098799966    6.329939844   14.522453373
    1.176293823   14.118658139    6.335600116   14.542478949
    1.183472454   14.138705776    6.341308107   14.562692493
    1.190651085   14.158944506    6.347064103   14.583095552
    1.197829716   14.179375983    6.352868397   14.603689694
    1.205008347   14.200001888    6.358721284   14.624476509
    1.212186978   14.220823927    6.364623061   14.645457613
    1.219365609   14.241843831    6.370574030   14.666634643
    1.226544240   14.263063358    6.376574498   14.688009263
    1.233722871   14.284484295    6.382624773   14.709583158
    1.240901503   14.306108454    6.388725169   14.731358043
    1.248080134   14.327937678    6.394876002   14.753335653
    1.255258765   14.349973835    6.401077594   14.775517753
    1.262437396   14.372218827    6.407330269   14.797906134
    1.269616027   14.394674581    6.413634355   14.820502611
    1.276794658   14.417343058    6.419990186   14.843309030
    1.283973289   14.440226248    6.426398098   14.866327262
    1.291151920   14.463326174    6.432858431   14.889559207
    1.298330551   14.486644889    6.439371531   14.913006796
    1.305509182   14.510184480    6.445937748   14.936671986
    1.312687813   14.533947068    6.452557433   14.960556765
    1.319866444   14.557934807    6.459230947   14.984663154
    1.327045075   14.582149885    6.465958650   15.008993201
    1.334223706   14.606594526    6.472740909   15.033548988
    1.341402337   14.631270984    6.479578096   15.058332627
    1.348580968   14.656181545    6.486470587   15.083346265
    1.355759599   14.681328554    6.493418761   15.108592080
    1.362938230   14.706714409    6.500423006   15.134072290
    1.370116861   14.732341515    6.507483709   15.159789142
    1.377295492   14.758212316    6.514601267   15.185744919
    1.384474124   14.784329301    6.521776078   15.211941939
    1.391652755   14.810695002    6.529008549   15.238382558
    1.398831386   14.837311997    6.536299088   15.265069169
    1.406010017   14.864182902    6.543648110   15.292004204
    1.413188648   14.891310384    6.551056037   15.319190132
    1.420367279   14.918697148    6.558523292   15.346629464
    1.427545910   14.946345950    6.566050308   15.374324748
    1.434724541   14.974259591    6.573637520   15.402278576
    1.441903172   15.002440920    6.581285371   15.430493581
    1.449081803   15.030892834    6.588994307   15.458972439
    1.456260434   15.059618282    6.596764781   15.487717867
    1.463439065   15.088620263    6.604597253   15.516732631
    1.470617696   15.117901827    6.612492188   15.546019539
    1.477796327   15.147466080    6.620450055   15.575581447
    1.484974958   15.177316179    6.628471331   15.605421257
    1.492153589   15.207455341    6.636556500   15.635541919
    1.499332220   15.237886836    6.644706050   15.665946435
    1.506510851   15.268613994    6.652920477   15.696637854
    1.513689482   15.299640205    6.661200282   15.727619278
    1.520868114   15.330968920    6.669545973   15.758893860
    1.528046745   15.362603649    6.677958066   15.790464809
    1.535225376   15.394547971    6.686437081   15.822335386
    1.542404007   15.426805526    6.694983548   15.854508908
    1.549582638   15.459380022    6.703598001   15.886988752
    1.556761269   15.492275236    6.712280983   15.919778349
    1.563939900   15.525495013    6.721033042   15.952881191
    1.571118531   15.559043273    6.729854737   15.986300833
    1.578297162   15.592924005    6.738746630   16.020040889
    1.585475793   15.627141275    6.747709293   16.054105038
    1.592654424   15.661699226    6.756743305   16.088497023
    1.599833055   15.696602079    6.765849254   16.123220654
    1.607011686   15.731854136    6.775027733   16.158279808
    1.614190317   15.767459782    6.784279345   16.193678434
    1.621368948   15.803423484    6.793604702   16.229420547
    1.628547579   15.839749799    6.803004421   16.265510239
    1.635726210   15.876443370    6.812479131   16.301951674
    1.642904841   15.913508934    6.822029468   16.338749092
    1.650083472   15.950951318    6.831656075   16.375906812
    1.657262104   15.988775447    6.841359606   16.413429229
    1.664440735   16.026986342    6.851140723   16.451320824
    1.671619366   16.065589117    6.861000097   16.489586158
    1.678797997   16.104588981    6.870938405   16.528229878
    1.685976628   16.143991278    6.880956338   16.567256719
    1.693155259   16.183801492    6.891054604   16.606671504
    1.700333890   16.224025171    6.901233909   16.646479151
    1.707512521   16.264667967    6.911494972   16.686684667
    1.714691152   16.305735659    6.921838520   16.727293156
    1.721869783   16.347234150    6.932265292   16.768309813
    1.729048414   16.389169461    6.942776035   16.809739909
    1.736227045   16.431547727    6.953371501   16.851588791
    1.743405676   16.474375259    6.964052470   16.893862025
    1.750584307   16.517658528    6.974819738   16.936565374
    1.757762938   16.561404088    6.985674095   16.979704543
    1.764941569   16.605618627    6.996616341   17.023285325
    1.772120200   16.650308991    7.007647290   17.067313668
    1.779298831   16.695482182    7.018767771   17.111795652
    1.786477462   16.741145357    7.029978623   17.156737483
    1.793656093   16.787305836    7.041280699   17.202145496
    1.800834725   16.833971100    7.052674864   17.248026153
    1.808013356   16.881148801    7.064161996   17.294386053
    1.815191987   16.928846765    7.075742986   17.341231928
    1.822370618   16.977072997    7.087418736   17.388570651
    1.829549249   17.025835688    7.099190165   17.436409242
    1.836727880   17.075143217    7.111058202   17.484754867
    1.843906511   17.125004164    7.123023794   17.533614842
    1.851085142   17.175427306    7.135087898   17.582996644
    1.858263773   17.226421627    7.147251488   17.632907902
    1.865442404   17.277996314    7.159515552   17.683356404
    1.872621035   17.330160752    7.171881089   17.734350101
    1.879799666   17.382924539    7.184349109   17.785897121
    1.886978297   17.436297628    7.196920646   17.838005820
    1.894156928   17.490290313    7.209596760   17.890684769
    1.901335559   17.544912940    7.222378517   17.943942631
    1.908514190   17.600176065    7.235267011   17.997788263
    1.915692821   17.656090559    7.248263345   18.052230737
    1.922871452   17.712667676    7.261368626   18.107279438
    1.930050083   17.769918904    7.274583984   18.162943906
    1.937228715   17.827856014    7.287910570   18.219233785
    1.944407346   17.886491083    7.301349557   18.276158970
    1.951585977   17.945836560    7.314902132   18.333729785
    1.958764608   18.005905209    7.328569504   18.391956754
    1.965943239   18.066710067    7.342352900   18.450850500
    1.973121870   18.128264540    7.356253569   18.510421926
    1.980300501   18.190582417    7.370272777   18.570682226
    1.987479132   18.253677872    7.384411814   18.631642878
    1.994657763   18.317565475    7.398671988   18.693315642
    2.001836394   18.382260200    7.413054631   18.755712567
    2.009015025   18.447777447    7.427561097   18.818846004
    2.016193656   18.514133056    7.442192761   18.882728610
    2.023372287   18.581343318    7.456951023   18.947373364
    2.030550918   18.649425000    7.471837304   19.012793573
    2.037729549   18.718395351    7.486853051   19.079002883
    2.044908180   18.788272100    7.501999736   19.146015285
    2.052086811   18.859073486    7.517278855   19.213845128
    2.059265442   18.930818438    7.532691929   19.282507176
    2.066444073   19.003526528    7.548240509   19.352016604
    2.073622705   19.077217745    7.563926169   19.422388937
    2.080801336   19.151912685    7.579750512   19.493640118
    2.087979967   19.227632630    7.595715169   19.565786522
    2.095158598   19.304399536    7.611821796   19.638844946
    2.102337229   19.382236031    7.628072069   19.712832566
    2.109515860   19.461165489    7.644467694   19.787767064
    2.116694491   19.541212236    7.661010453   19.863667053
    2.123873122   19.622401344    7.677702153   19.940551526
    2.131051753   19.704758556    7.694544588   20.018439656
    2.138230384   19.788310442    7.711539573   20.097351205
    2.145409015   19.873084626    7.728688990   20.177306627
    2.152587646   19.959109918    7.745994819   20.258327088
    2.159766277   20.046415906    7.763459018   20.340434273
    2.166944908   20.135033147    7.781083552   20.423650516
    2.174123539   20.224993374    7.798870442   20.507998898
    2.181302170   20.316329473    7.816821752   20.593503141
    2.188480801   20.409075539    7.834939587   20.680187682
    2.195659432   20.503266915    7.853226083   20.768077711
    2.202838063   20.598940164    7.871683386   20.857199126
    2.210016694   20.696133057    7.890313629   20.947578503
    2.217195326   20.794885343    7.909119126   21.039243655
    2.224373957   20.895239085    7.928102448   21.132223861
    2.231552588   20.997237062    7.947265956   21.226548646
    2.238731219   21.100923473    7.966611994   21.322248307
    2.245909850   21.206344555    7.986142997   21.419354302
    2.253088481   21.313548565    8.005861464   21.517899218
    2.260267112   21.422585821    8.025769961   21.617916778
    2.267445743   21.533508778    8.045871114   21.719441852
    2.274624374   21.646372083    8.066167585   21.822510405
    2.281803005   21.761232594    8.086662066   21.927159366
    2.288981636   21.878149860    8.107357328   22.033427218
    2.296160267   21.997187144    8.128256365   22.141355384
    2.303338898   22.118410076    8.149362154   22.250985947
    2.310517529   22.241886641    8.170677622   22.362361402
    2.317696160   22.367688282    8.192205796   22.475526290
    2.324874791   22.495890099    8.213949793   22.590527340
    2.332053422   22.626570871    8.235912811   22.707412827
    2.339232053   22.759813314    8.258098124   22.826232822
    2.346410684   22.895704399    8.280509082   22.947039489
    2.353589316   23.034335604    8.303149114   23.069887098
    2.360767947   23.175803192    8.326021723   23.194832053
    2.367946578   23.320208573    8.349130480   23.321933027
    2.375125209   23.467658776    8.372479045   23.451251378
    2.382303840   23.618266822    8.396071116   23.582851201
    2.389482471   23.772152214    8.419910473   23.716799173
    2.396661102   23.929441330    8.444001354   23.853164766
    2.403839733   24.090267852    8.468348102   23.992020564
    2.411018364   24.254773155    8.492954714   24.133442209
    2.418196995   24.423107559    8.517825376   24.277508705
    2.425375626   24.595432186    8.542964617   24.424303540
    2.432554257   24.771918082    8.568377007   24.573914366
    2.439732888   24.952747871    8.594067192   24.726433292
    2.446911519   25.138115578    8.620039916   24.881955843
    2.454090150   25.328227937    8.646299983   25.040582045
    2.461268781   25.523306748    8.672852733   25.202417407
    2.468447412   25.723590148    8.699703784   25.367573076
    2.475626043   25.929333928    8.726858486   25.536166068
    2.482804674   26.140813310    8.754322359   25.708319675
    2.489983306   26.358325155    8.782101236   25.884164194
    2.497161937   26.582190312    8.810201220   26.063837419
    2.504340568   26.812755797    8.838628596   26.247484760
    2.511519199   27.050397928    8.867389882   26.435260136
    2.518697830   27.295525811    8.896491865   26.627326739
    2.525876461   27.548585169    8.925941615   26.823857738
    2.533055092   27.810063283    8.955746506   27.025037712
    2.540233723   28.080494005    8.985914241   27.231063539
