# energy grid [eV]     ieps_x  ieps_y  ieps_z
#
    0.200000000    8.003923468    3.331268839    8.374897052
    0.207178631    8.002278620    3.330836884    8.373206294
    0.214357262    8.000576649    3.330389871    8.371456786
    0.221535893    7.998817645    3.329927818    8.369648617
    0.228714524    7.997001700    3.329450744    8.367781878
    0.235893155    7.995128912    3.328958668    8.365856665
    0.243071786    7.993199379    3.328451609    8.363873075
    0.250250417    7.991213203    3.327929587    8.361831211
    0.257429048    7.989170487    3.327392624    8.359731175
    0.264607679    7.987071341    3.326840741    8.357573074
    0.271786311    7.984915874    3.326273960    8.355357017
    0.278964942    7.982704200    3.325692303    8.353083117
    0.286143573    7.980436435    3.325095793    8.350751489
    0.293322204    7.978112697    3.324484455    8.348362250
    0.300500835    7.975733109    3.323858312    8.345915521
    0.307679466    7.973297794    3.323217389    8.343411426
    0.314858097    7.970806880    3.322561712    8.340850091
    0.322036728    7.968260496    3.321891307    8.338231644
    0.329215359    7.965658777    3.321206200    8.335556217
    0.336393990    7.963001856    3.320506418    8.332823945
    0.343572621    7.960289872    3.319791989    8.330034963
    0.350751252    7.957522966    3.319062941    8.327189413
    0.357929883    7.954701280    3.318319303    8.324287435
    0.365108514    7.951824962    3.317561104    8.321329176
    0.372287145    7.948894159    3.316788374    8.318314781
    0.379465776    7.945909022    3.316001143    8.315244402
    0.386644407    7.942869706    3.315199441    8.312118192
    0.393823038    7.939776367    3.314383302    8.308936304
    0.401001669    7.936629163    3.313552756    8.305698897
    0.408180301    7.933428256    3.312707836    8.302406131
    0.415358932    7.930173810    3.311848574    8.299058168
    0.422537563    7.926865990    3.310975006    8.295655174
    0.429716194    7.923504966    3.310087163    8.292197317
    0.436894825    7.920090909    3.309185082    8.288684766
    0.444073456    7.916623992    3.308268797    8.285117693
    0.451252087    7.913104391    3.307338343    8.281496274
    0.458430718    7.909532283    3.306393757    8.277820686
    0.465609349    7.905907851    3.305435076    8.274091107
    0.472787980    7.902231276    3.304462335    8.270307721
    0.479966611    7.898502744    3.303475574    8.266470710
    0.487145242    7.894722442    3.302474830    8.262580261
    0.494323873    7.890890560    3.301460141    8.258636563
    0.501502504    7.887007289    3.300431546    8.254639807
    0.508681135    7.883072823    3.299389086    8.250590185
    0.515859766    7.879087359    3.298332799    8.246487892
    0.523038397    7.875051094    3.297262727    8.242333127
    0.530217028    7.870964230    3.296178910    8.238126088
    0.537395659    7.866826968    3.295081390    8.233866977
    0.544574290    7.862639514    3.293970208    8.229555997
    0.551752922    7.858402073    3.292845407    8.225193355
    0.558931553    7.854114854    3.291707029    8.220779257
    0.566110184    7.849778067    3.290555118    8.216313914
    0.573288815    7.845391925    3.289389717    8.211797537
    0.580467446    7.840956643    3.288210870    8.207230340
    0.587646077    7.836472437    3.287018622    8.202612538
    0.594824708    7.831939524    3.285813018    8.197944349
    0.602003339    7.827358125    3.284594103    8.193225993
    0.609181970    7.822728461    3.283361922    8.188457689
    0.616360601    7.818050756    3.282116523    8.183639662
    0.623539232    7.813325236    3.280857951    8.178772136
    0.630717863    7.808552127    3.279586253    8.173855337
    0.637896494    7.803731658    3.278301478    8.168889495
    0.645075125    7.798864060    3.277003672    8.163874838
    0.652253756    7.793949565    3.275692884    8.158811599
    0.659432387    7.788988406    3.274369162    8.153700011
    0.666611018    7.783980819    3.273032556    8.148540309
    0.673789649    7.778927041    3.271683115    8.143332730
    0.680968280    7.773827310    3.270320889    8.138077511
    0.688146912    7.768681866    3.268945927    8.132774894
    0.695325543    7.763490950    3.267558280    8.127425118
    0.702504174    7.758254806    3.266158000    8.122028428
    0.709682805    7.752973677    3.264745137    8.116585066
    0.716861436    7.747647810    3.263319742    8.111095279
    0.724040067    7.742277452    3.261881868    8.105559314
    0.731218698    7.736862851    3.260431567    8.099977420
    0.738397329    7.731404256    3.258968892    8.094349847
    0.745575960    7.725901919    3.257493895    8.088676845
    0.752754591    7.720356092    3.256006629    8.082958668
    0.759933222    7.714767029    3.254507149    8.077195569
    0.767111853    7.709134984    3.252995509    8.071387804
    0.774290484    7.703460214    3.251471761    8.065535628
    0.781469115    7.697742975    3.249935962    8.059639300
    0.788647746    7.691983526    3.248388166    8.053699078
    0.795826377    7.686182125    3.246828427    8.047715222
    0.803005008    7.680339034    3.245256802    8.041687994
    0.810183639    7.674454514    3.243673347    8.035617655
    0.817362270    7.668528827    3.242078116    8.029504468
    0.824540902    7.662562236    3.240471167    8.023348699
    0.831719533    7.656555006    3.238852557    8.017150611
    0.838898164    7.650507402    3.237222341    8.010910472
    0.846076795    7.644419691    3.235580578    8.004628549
    0.853255426    7.638292138    3.233927324    7.998305110
    0.860434057    7.632125013    3.232262638    7.991940423
    0.867612688    7.625918584    3.230586577    7.985534760
    0.874791319    7.619673121    3.228899200    7.979088390
    0.881969950    7.613388893    3.227200564    7.972601586
    0.889148581    7.607066172    3.225490729    7.966074620
    0.896327212    7.600705229    3.223769754    7.959507764
    0.903505843    7.594306337    3.222037697    7.952901294
    0.910684474    7.587869769    3.220294618    7.946255484
    0.917863105    7.581395799    3.218540577    7.939570610
    0.925041736    7.574884700    3.216775633    7.932846946
    0.932220367    7.568336748    3.214999847    7.926084771
    0.939398998    7.561752218    3.213213279    7.919284361
    0.946577629    7.555131386    3.211415988    7.912445995
    0.953756260    7.548474528    3.209608037    7.905569950
    0.960934891    7.541781922    3.207789485    7.898656507
    0.968113523    7.535053844    3.205960394    7.891705944
    0.975292154    7.528290573    3.204120825    7.884718542
    0.982470785    7.521492386    3.202270840    7.877694581
    0.989649416    7.514659562    3.200410499    7.870634343
    0.996828047    7.507792380    3.198539865    7.863538108
    1.004006678    7.500891119    3.196658999    7.856406159
    1.011185309    7.493956058    3.194767964    7.849238777
    1.018363940    7.486987478    3.192866822    7.842036245
    1.025542571    7.479985658    3.190955635    7.834798846
    1.032721202    7.472950878    3.189034466    7.827526863
    1.039899833    7.465883419    3.187103378    7.820220580
    1.047078464    7.458783562    3.185162432    7.812880279
    1.054257095    7.451651586    3.183211693    7.805506246
    1.061435726    7.444487773    3.181251224    7.798098763
    1.068614357    7.437292405    3.179281086    7.790658115
    1.075792988    7.430065761    3.177301345    7.783184588
    1.082971619    7.422808122    3.175312063    7.775678464
    1.090150250    7.415519771    3.173313303    7.768140029
    1.097328881    7.408200988    3.171305131    7.760569567
    1.104507513    7.400852054    3.169287608    7.752967363
    1.111686144    7.393473250    3.167260800    7.745333702
    1.118864775    7.386064857    3.165224769    7.737668869
    1.126043406    7.378627156    3.163179581    7.729973148
    1.133222037    7.371160428    3.161125299    7.722246825
    1.140400668    7.363664953    3.159061987    7.714490183
    1.147579299    7.356141012    3.156989710    7.706703508
    1.154757930    7.348588885    3.154908532    7.698887084
    1.161936561    7.341008853    3.152818517    7.691041196
    1.169115192    7.333401195    3.150719731    7.683166128
    1.176293823    7.325766191    3.148612237    7.675262163
    1.183472454    7.318104120    3.146496100    7.667329586
    1.190651085    7.310415262    3.144371385    7.659368681
    1.197829716    7.302699896    3.142238156    7.651379732
    1.205008347    7.294958299    3.140096478    7.643363020
    1.212186978    7.287190751    3.137946417    7.635318830
    1.219365609    7.279397529    3.135788036    7.627247445
    1.226544240    7.271578910    3.133621400    7.619149146
    1.233722871    7.263735172    3.131446575    7.611024215
    1.240901503    7.255866592    3.129263625    7.602872936
    1.248080134    7.247973445    3.127072616    7.594695588
    1.255258765    7.240056008    3.124873611    7.586492454
    1.262437396    7.232114556    3.122666677    7.578263813
    1.269616027    7.224149363    3.120451877    7.570009946
    1.276794658    7.216160704    3.118229277    7.561731133
    1.283973289    7.208148854    3.115998942    7.553427653
    1.291151920    7.200114084    3.113760937    7.545099785
    1.298330551    7.192056669    3.111515326    7.536747808
    1.305509182    7.183976880    3.109262175    7.528371999
    1.312687813    7.175874989    3.107001548    7.519972636
    1.319866444    7.167751267    3.104733510    7.511549995
    1.327045075    7.159605984    3.102458126    7.503104353
    1.334223706    7.151439410    3.100175460    7.494635987
    1.341402337    7.143251814    3.097885578    7.486145170
    1.348580968    7.135043464    3.095588545    7.477632177
    1.355759599    7.126814629    3.093284424    7.469097283
    1.362938230    7.118565575    3.090973281    7.460540760
    1.370116861    7.110296569    3.088655180    7.451962882
    1.377295492    7.102007877    3.086330185    7.443363920
    1.384474124    7.093699762    3.083998362    7.434744145
    1.391652755    7.085372490    3.081659774    7.426103829
    1.398831386    7.077026324    3.079314485    7.417443241
    1.406010017    7.068661526    3.076962561    7.408762650
    1.413188648    7.060278358    3.074604065    7.400062325
    1.420367279    7.051877082    3.072239062    7.391342534
    1.427545910    7.043457956    3.069867615    7.382603543
    1.434724541    7.035021241    3.067489789    7.373845619
    1.441903172    7.026567196    3.065105647    7.365069027
    1.449081803    7.018096077    3.062715254    7.356274031
    1.456260434    7.009608141    3.060318672    7.347460896
    1.463439065    7.001103645    3.057915966    7.338629884
    1.470617696    6.992582843    3.055507199    7.329781258
    1.477796327    6.984045990    3.053092435    7.320915278
    1.484974958    6.975493338    3.050671736    7.312032205
    1.492153589    6.966925140    3.048245167    7.303132299
    1.499332220    6.958341647    3.045812790    7.294215818
    1.506510851    6.949743110    3.043374668    7.285283020
    1.513689482    6.941129777    3.040930865    7.276334161
    1.520868114    6.932501898    3.038481442    7.267369498
    1.528046745    6.923859719    3.036026464    7.258389286
    1.535225376    6.915203487    3.033565991    7.249393778
    1.542404007    6.906533448    3.031100087    7.240383227
    1.549582638    6.897849846    3.028628814    7.231357886
    1.556761269    6.889152925    3.026152234    7.222318006
    1.563939900    6.880442926    3.023670409    7.213263837
    1.571118531    6.871720092    3.021183401    7.204195628
    1.578297162    6.862984662    3.018691272    7.195113627
    1.585475793    6.854236876    3.016194083    7.186018082
    1.592654424    6.845476971    3.013691895    7.176909238
    1.599833055    6.836705186    3.011184771    7.167787340
    1.607011686    6.827921757    3.008672772    7.158652633
    1.614190317    6.819126917    3.006155957    7.149505360
    1.621368948    6.810320902    3.003634389    7.140345762
    1.628547579    6.801503943    3.001108128    7.131174081
    1.635726210    6.792676273    2.998577234    7.121990555
    1.642904841    6.783838122    2.996041767    7.112795425
    1.650083472    6.774989720    2.993501789    7.103588927
    1.657262104    6.766131295    2.990957359    7.094371299
    1.664440735    6.757263074    2.988408537    7.085142775
    1.671619366    6.748385283    2.985855382    7.075903590
    1.678797997    6.739498148    2.983297955    7.066653978
    1.685976628    6.730601891    2.980736314    7.057394170
    1.693155259    6.721696736    2.978170519    7.048124397
    1.700333890    6.712782904    2.975600629    7.038844889
    1.707512521    6.703860616    2.973026703    7.029555876
    1.714691152    6.694930090    2.970448798    7.020257584
    1.721869783    6.685991545    2.967866975    7.010950241
    1.729048414    6.677045197    2.965281290    7.001634071
    1.736227045    6.668091262    2.962691802    6.992309298
    1.743405676    6.659129955    2.960098570    6.982976146
    1.750584307    6.650161488    2.957501650    6.973634836
    1.757762938    6.641186074    2.954901100    6.964285589
    1.764941569    6.632203923    2.952296978    6.954928625
    1.772120200    6.623215246    2.949689340    6.945564161
    1.779298831    6.614220250    2.947078243    6.936192416
    1.786477462    6.605219143    2.944463745    6.926813604
    1.793656093    6.596212131    2.941845902    6.917427940
    1.800834725    6.587199419    2.939224769    6.908035638
    1.808013356    6.578181210    2.936600404    6.898636911
    1.815191987    6.569157707    2.933972861    6.889231969
    1.822370618    6.560129111    2.931342197    6.879821023
    1.829549249    6.551095622    2.928708467    6.870404280
    1.836727880    6.542057438    2.926071727    6.860981949
    1.843906511    6.533014757    2.923432031    6.851554236
    1.851085142    6.523967776    2.920789433    6.842121345
    1.858263773    6.514916689    2.918143990    6.832683481
    1.865442404    6.505861690    2.915495755    6.823240846
    1.872621035    6.496802972    2.912844782    6.813793642
    1.879799666    6.487740726    2.910191125    6.804342069
    1.886978297    6.478675142    2.907534838    6.794886325
    1.894156928    6.469606409    2.904875975    6.785426609
    1.901335559    6.460534715    2.902214588    6.775963117
    1.908514190    6.451460246    2.899550731    6.766496043
    1.915692821    6.442383186    2.896884456    6.757025583
    1.922871452    6.433303721    2.894215817    6.747551929
    1.930050083    6.424222033    2.891544865    6.738075272
    1.937228715    6.415138303    2.888871652    6.728595802
    1.944407346    6.406052711    2.886196231    6.719113709
    1.951585977    6.396965436    2.883518653    6.709629181
    1.958764608    6.387876657    2.880838969    6.700142403
    1.965943239    6.378786548    2.878157232    6.690653562
    1.973121870    6.369695287    2.875473490    6.681162841
    1.980300501    6.360603046    2.872787796    6.671670423
    1.987479132    6.351509999    2.870100200    6.662176490
    1.994657763    6.342416316    2.867410752    6.652681222
    2.001836394    6.333322169    2.864719501    6.643184799
    2.009015025    6.324227726    2.862026499    6.633687397
    2.016193656    6.315133155    2.859331794    6.624189195
    2.023372287    6.306038622    2.856635435    6.614690366
    2.030550918    6.296944294    2.853937472    6.605191085
    2.037729549    6.287850333    2.851237953    6.595691526
    2.044908180    6.278756904    2.848536927    6.586191860
    2.052086811    6.269664167    2.845834442    6.576692256
    2.059265442    6.260572283    2.843130546    6.567192885
    2.066444073    6.251481411    2.840425287    6.557693915
    2.073622705    6.242391710    2.837718713    6.548195512
    2.080801336    6.233303336    2.835010870    6.538697841
    2.087979967    6.224216444    2.832301807    6.529201067
    2.095158598    6.215131189    2.829591569    6.519705353
    2.102337229    6.206047724    2.826880203    6.510210861
    2.109515860    6.196966200    2.824167756    6.500717750
    2.116694491    6.187886770    2.821454273    6.491226182
    2.123873122    6.178809581    2.818739801    6.481736313
    2.131051753    6.169734783    2.816024384    6.472248301
    2.138230384    6.160662522    2.813308069    6.462762301
    2.145409015    6.151592944    2.810590900    6.453278468
    2.152587646    6.142526194    2.807872923    6.443796955
    2.159766277    6.133462416    2.805154180    6.434317914
    2.166944908    6.124401751    2.802434718    6.424841496
    2.174123539    6.115344342    2.799714580    6.415367851
    2.181302170    6.106290327    2.796993810    6.405897126
    2.188480801    6.097239845    2.794272451    6.396429470
    2.195659432    6.088193035    2.791550546    6.386965028
    2.202838063    6.079150032    2.788828139    6.377503945
    2.210016694    6.070110972    2.786105273    6.368046365
    2.217195326    6.061075988    2.783381989    6.358592430
    2.224373957    6.052045215    2.780658331    6.349142282
    2.231552588    6.043018782    2.777934340    6.339696060
    2.238731219    6.033996822    2.775210057    6.330253903
    2.245909850    6.024979463    2.772485526    6.320815949
    2.253088481    6.015966834    2.769760786    6.311382335
    2.260267112    6.006959061    2.767035878    6.301953196
    2.267445743    5.997956271    2.764310844    6.292528667
    2.274624374    5.988958589    2.761585724    6.283108879
    2.281803005    5.979966138    2.758860559    6.273693966
    2.288981636    5.970979041    2.756135387    6.264284057
    2.296160267    5.961997420    2.753410249    6.254879283
    2.303338898    5.953021394    2.750685185    6.245479772
    2.310517529    5.944051083    2.747960233    6.236085651
    2.317696160    5.935086604    2.745235433    6.226697046
    2.324874791    5.926128076    2.742510823    6.217314082
    2.332053422    5.917175614    2.739786442    6.207936884
    2.339232053    5.908229333    2.737062328    6.198565573
    2.346410684    5.899289345    2.734338518    6.189200272
    2.353589316    5.890355765    2.731615051    6.179841101
    2.360767947    5.881428703    2.728891965    6.170488178
    2.367946578    5.872508270    2.726169295    6.161141624
    2.375125209    5.863594575    2.723447079    6.151801554
    2.382303840    5.854687727    2.720725355    6.142468085
    2.389482471    5.845787832    2.718004158    6.133141331
    2.396661102    5.836894998    2.715283524    6.123821407
    2.403839733    5.828009328    2.712563489    6.114508425
    2.411018364    5.819130927    2.709844090    6.105202497
    2.418196995    5.810259898    2.707125361    6.095903733
    2.425375626    5.801396342    2.704407338    6.086612243
    2.432554257    5.792540362    2.701690056    6.077328136
    2.439732888    5.783692056    2.698973549    6.068051518
    2.446911519    5.774851523    2.696257852    6.058782496
    2.454090150    5.766018862    2.693542999    6.049521175
    2.461268781    5.757194168    2.690829024    6.040267660
    2.468447412    5.748377538    2.688115960    6.031022053
    2.475626043    5.739569067    2.685403842    6.021784457
    2.482804674    5.730768848    2.682692701    6.012554972
    2.489983306    5.721976973    2.679982572    6.003333699
    2.497161937    5.713193535    2.677273488    5.994120736
    2.504340568    5.704418625    2.674565479    5.984916181
    2.511519199    5.695652332    2.671858579    5.975720132
    2.518697830    5.686894744    2.669152820    5.966532684
    2.525876461    5.678145951    2.666448233    5.957353933
    2.533055092    5.669406038    2.663744850    5.948183971
    2.540233723    5.660675091    2.661042702    5.939022892
