# energy grid [eV]     ieps_x  ieps_y  ieps_z
#
    0.200000000   11.943816318   12.199206529    8.850051051
    0.207178631   11.940970350   12.196268755    8.848200745
    0.214357262   11.938025664   12.193229095    8.846286160
    0.221535893   11.934982428   12.190087723    8.844307396
    0.228714524   11.931840813   12.186844821    8.842264556
    0.235893155   11.928601000   12.183500575    8.840157745
    0.243071786   11.925263173   12.180055178    8.837987074
    0.250250417   11.921827522   12.176508826    8.835752653
    0.257429048   11.918294241   12.172861724    8.833454599
    0.264607679   11.914663530   12.169114080    8.831093030
    0.271786311   11.910935597   12.165266109    8.828668068
    0.278964942   11.907110650   12.161318030    8.826179838
    0.286143573   11.903188908   12.157270069    8.823628469
    0.293322204   11.899170590   12.153122457    8.821014090
    0.300500835   11.895055925   12.148875430    8.818336837
    0.307679466   11.890845142   12.144529229    8.815596846
    0.314858097   11.886538480   12.140084101    8.812794259
    0.322036728   11.882136179   12.135540299    8.809929219
    0.329215359   11.877638488   12.130898079    8.807001872
    0.336393990   11.873045657   12.126157704    8.804012367
    0.343572621   11.868357944   12.121319443    8.800960857
    0.350751252   11.863575611   12.116383567    8.797847498
    0.357929883   11.858698924   12.111350355    8.794672447
    0.365108514   11.853728154   12.106220090    8.791435866
    0.372287145   11.848663579   12.100993059    8.788137919
    0.379465776   11.843505480   12.095669557    8.784778773
    0.386644407   11.838254141   12.090249880    8.781358598
    0.393823038   11.832909855   12.084734332    8.777877567
    0.401001669   11.827472915   12.079123220    8.774335854
    0.408180301   11.821943623   12.073416857    8.770733639
    0.415358932   11.816322282   12.067615559    8.767071102
    0.422537563   11.810609201   12.061719650    8.763348427
    0.429716194   11.804804695   12.055729454    8.759565801
    0.436894825   11.798909080   12.049645305    8.755723412
    0.444073456   11.792922679   12.043467536    8.751821453
    0.451252087   11.786845819   12.037196490    8.747860118
    0.458430718   11.780678830   12.030832509    8.743839604
    0.465609349   11.774422049   12.024375945    8.739760111
    0.472787980   11.768075813   12.017827150    8.735621841
    0.479966611   11.761640468   12.011186481    8.731424999
    0.487145242   11.755116361   12.004454303    8.727169792
    0.494323873   11.748503843   11.997630980    8.722856430
    0.501502504   11.741803270   11.990716883    8.718485125
    0.508681135   11.735015003   11.983712388    8.714056093
    0.515859766   11.728139404   11.976617873    8.709569550
    0.523038397   11.721176843   11.969433721    8.705025715
    0.530217028   11.714127689   11.962160318    8.700424811
    0.537395659   11.706992319   11.954798057    8.695767061
    0.544574290   11.699771112   11.947347330    8.691052693
    0.551752922   11.692464450   11.939808538    8.686281935
    0.558931553   11.685072719   11.932182081    8.681455017
    0.566110184   11.677596310   11.924468366    8.676572175
    0.573288815   11.670035615   11.916667804    8.671633641
    0.580467446   11.662391033   11.908780806    8.666639656
    0.587646077   11.654662963   11.900807790    8.661590457
    0.594824708   11.646851809   11.892749176    8.656486287
    0.602003339   11.638957978   11.884605388    8.651327390
    0.609181970   11.630981881   11.876376853    8.646114012
    0.616360601   11.622923931   11.868064001    8.640846401
    0.623539232   11.614784545   11.859667267    8.635524807
    0.630717863   11.606564143   11.851187087    8.630149481
    0.637896494   11.598263147   11.842623902    8.624720678
    0.645075125   11.589881985   11.833978155    8.619238654
    0.652253756   11.581421084   11.825250292    8.613703665
    0.659432387   11.572880877   11.816440762    8.608115973
    0.666611018   11.564261798   11.807550018    8.602475837
    0.673789649   11.555564285   11.798578516    8.596783521
    0.680968280   11.546788778   11.789526713    8.591039290
    0.688146912   11.537935720   11.780395069    8.585243411
    0.695325543   11.529005557   11.771184050    8.579396151
    0.702504174   11.519998736   11.761894120    8.573497781
    0.709682805   11.510915709   11.752525748    8.567548572
    0.716861436   11.501756929   11.743079407    8.561548797
    0.724040067   11.492522851   11.733555569    8.555498732
    0.731218698   11.483213933   11.723954712    8.549398652
    0.738397329   11.473830636   11.714277314    8.543248836
    0.745575960   11.464373422   11.704523855    8.537049562
    0.752754591   11.454842756   11.694694820    8.530801111
    0.759933222   11.445239105   11.684790694    8.524503766
    0.767111853   11.435562937   11.674811964    8.518157809
    0.774290484   11.425814725   11.664759120    8.511763527
    0.781469115   11.415994940   11.654632654    8.505321204
    0.788647746   11.406104058   11.644433061    8.498831129
    0.795826377   11.396142557   11.634160835    8.492293591
    0.803005008   11.386110913   11.623816474    8.485708879
    0.810183639   11.376009609   11.613400478    8.479077285
    0.817362270   11.365839126   11.602913347    8.472399101
    0.824540902   11.355599948   11.592355586    8.465674620
    0.831719533   11.345292561   11.581727698    8.458904139
    0.838898164   11.334917451   11.571030189    8.452087951
    0.846076795   11.324475108   11.560263568    8.445226354
    0.853255426   11.313966020   11.549428343    8.438319647
    0.860434057   11.303390681   11.538525025    8.431368127
    0.867612688   11.292749582   11.527554126    8.424372094
    0.874791319   11.282043218   11.516516159    8.417331850
    0.881969950   11.271272083   11.505411639    8.410247696
    0.889148581   11.260436675   11.494241082    8.403119935
    0.896327212   11.249537491   11.483005005    8.395948869
    0.903505843   11.238575030   11.471703925    8.388734804
    0.910684474   11.227549792   11.460338362    8.381478043
    0.917863105   11.216462278   11.448908836    8.374178894
    0.925041736   11.205312988   11.437415868    8.366837662
    0.932220367   11.194102427   11.425859980    8.359454655
    0.939398998   11.182831097   11.414241694    8.352030180
    0.946577629   11.171499503   11.402561535    8.344564546
    0.953756260   11.160108149   11.390820026    8.337058062
    0.960934891   11.148657542   11.379017693    8.329511038
    0.968113523   11.137148187   11.367155061    8.321923784
    0.975292154   11.125580592   11.355232656    8.314296610
    0.982470785   11.113955264   11.343251005    8.306629829
    0.989649416   11.102272711   11.331210635    8.298923751
    0.996828047   11.090533442   11.319112075    8.291178690
    1.004006678   11.078737965   11.306955851    8.283394957
    1.011185309   11.066886790   11.294742493    8.275572866
    1.018363940   11.054980425   11.282472528    8.267712730
    1.025542571   11.043019381   11.270146486    8.259814862
    1.032721202   11.031004168   11.257764896    8.251879577
    1.039899833   11.018935295   11.245328287    8.243907189
    1.047078464   11.006813274   11.232837188    8.235898013
    1.054257095   10.994638613   11.220292128    8.227852362
    1.061435726   10.982411825   11.207693637    8.219770553
    1.068614357   10.970133418   11.195042245    8.211652901
    1.075792988   10.957803903   11.182338479    8.203499719
    1.082971619   10.945423790   11.169582870    8.195311325
    1.090150250   10.932993590   11.156775946    8.187088033
    1.097328881   10.920513812   11.143918235    8.178830159
    1.104507513   10.907984966   11.131010267    8.170538019
    1.111686144   10.895407561   11.118052568    8.162211928
    1.118864775   10.882782106   11.105045667    8.153852201
    1.126043406   10.870109109   11.091990090    8.145459155
    1.133222037   10.857389079   11.078886365    8.137033105
    1.140400668   10.844622524   11.065735018    8.128574366
    1.147579299   10.831809951   11.052536574    8.120083254
    1.154757930   10.818951867   11.039291559    8.111560083
    1.161936561   10.806048778   11.026000497    8.103005169
    1.169115192   10.793101189   11.012663912    8.094418827
    1.176293823   10.780109606   10.999282327    8.085801371
    1.183472454   10.767074533   10.985856265    8.077153116
    1.190651085   10.753996474   10.972386247    8.068474376
    1.197829716   10.740875931   10.958872795    8.059765465
    1.205008347   10.727713407   10.945316427    8.051026696
    1.212186978   10.714509402   10.931717664    8.042258383
    1.219365609   10.701264418   10.918077023    8.033460839
    1.226544240   10.687978953   10.904395021    8.024634376
    1.233722871   10.674653507   10.890672175    8.015779307
    1.240901503   10.661288576   10.876909001    8.006895943
    1.248080134   10.647884658   10.863106011    7.997984596
    1.255258765   10.634442247   10.849263719    7.989045577
    1.262437396   10.620961839   10.835382637    7.980079196
    1.269616027   10.607443927   10.821463275    7.971085764
    1.276794658   10.593889003   10.807506143    7.962065589
    1.283973289   10.580297559   10.793511749    7.953018982
    1.291151920   10.566670083   10.779480600    7.943946249
    1.298330551   10.553007065   10.765413201    7.934847700
    1.305509182   10.539308993   10.751310058    7.925723641
    1.312687813   10.525576351   10.737171671    7.916574379
    1.319866444   10.511809626   10.722998545    7.907400220
    1.327045075   10.498009300   10.708791177    7.898201470
    1.334223706   10.484175856   10.694550067    7.888978433
    1.341402337   10.470309775   10.680275712    7.879731414
    1.348580968   10.456411535   10.665968607    7.870460716
    1.355759599   10.442481614   10.651629246    7.861166641
    1.362938230   10.428520489   10.637258123    7.851849492
    1.370116861   10.414528634   10.622855727    7.842509569
    1.377295492   10.400506523   10.608422548    7.833147174
    1.384474124   10.386454628   10.593959074    7.823762605
    1.391652755   10.372373418   10.579465789    7.814356162
    1.398831386   10.358263361   10.564943179    7.804928143
    1.406010017   10.344124926   10.550391726    7.795478845
    1.413188648   10.329958576   10.535811911    7.786008564
    1.420367279   10.315764776   10.521204211    7.776517596
    1.427545910   10.301543986   10.506569105    7.767006236
    1.434724541   10.287296668   10.491907068    7.757474777
    1.441903172   10.273023280   10.477218572    7.747923512
    1.449081803   10.258724277   10.462504090    7.738352733
    1.456260434   10.244400114   10.447764091    7.728762731
    1.463439065   10.230051246   10.432999042    7.719153796
    1.470617696   10.215678121   10.418209410    7.709526217
    1.477796327   10.201281191   10.403395658    7.699880283
    1.484974958   10.186860901   10.388558248    7.690216280
    1.492153589   10.172417698   10.373697639    7.680534495
    1.499332220   10.157952024   10.358814290    7.670835213
    1.506510851   10.143464322   10.343908656    7.661118717
    1.513689482   10.128955030   10.328981192    7.651385291
    1.520868114   10.114424587   10.314032347    7.641635218
    1.528046745   10.099873429   10.299062572    7.631868776
    1.535225376   10.085301988   10.284072315    7.622086248
    1.542404007   10.070710696   10.269062020    7.612287911
    1.549582638   10.056099983   10.254032131    7.602474043
    1.556761269   10.041470277   10.238983089    7.592644921
    1.563939900   10.026822002   10.223915332    7.582800820
    1.571118531   10.012155582   10.208829296    7.572942014
    1.578297162    9.997471439   10.193725418    7.563068777
    1.585475793    9.982769992   10.178604128    7.553181381
    1.592654424    9.968051657   10.163465856    7.543280096
    1.599833055    9.953316849   10.148311031    7.533365193
    1.607011686    9.938565981   10.133140077    7.523436939
    1.614190317    9.923799465   10.117953419    7.513495603
    1.621368948    9.909017707   10.102751476    7.503541450
    1.628547579    9.894221115   10.087534667    7.493574745
    1.635726210    9.879410091   10.072303409    7.483595752
    1.642904841    9.864585040   10.057058116    7.473604734
    1.650083472    9.849746358   10.041799199    7.463601952
    1.657262104    9.834894445   10.026527068    7.453587665
    1.664440735    9.820029695   10.011242130    7.443562133
    1.671619366    9.805152501    9.995944788    7.433525613
    1.678797997    9.790263253    9.980635447    7.423478362
    1.685976628    9.775362341    9.965314505    7.413420634
    1.693155259    9.760450149    9.949982360    7.403352684
    1.700333890    9.745527062    9.934639407    7.393274763
    1.707512521    9.730593462    9.919286039    7.383187123
    1.714691152    9.715649727    9.903922646    7.373090014
    1.721869783    9.700696235    9.888549617    7.362983684
    1.729048414    9.685733359    9.873167336    7.352868381
    1.736227045    9.670761473    9.857776187    7.342744350
    1.743405676    9.655780947    9.842376550    7.332611837
    1.750584307    9.640792147    9.826968805    7.322471084
    1.757762938    9.625795439    9.811553326    7.312322335
    1.764941569    9.610791187    9.796130486    7.302165828
    1.772120200    9.595779750    9.780700658    7.292001804
    1.779298831    9.580761488    9.765264209    7.281830501
    1.786477462    9.565736756    9.749821505    7.271652155
    1.793656093    9.550705907    9.734372911    7.261467002
    1.800834725    9.535669293    9.718918786    7.251275276
    1.808013356    9.520627262    9.703459490    7.241077209
    1.815191987    9.505580162    9.687995379    7.230873032
    1.822370618    9.490528336    9.672526806    7.220662976
    1.829549249    9.475472127    9.657054123    7.210447269
    1.836727880    9.460411872    9.641577679    7.200226137
    1.843906511    9.445347911    9.626097820    7.189999808
    1.851085142    9.430280576    9.610614889    7.179768505
    1.858263773    9.415210201    9.595129228    7.169532451
    1.865442404    9.400137115    9.579641177    7.159291868
    1.872621035    9.385061646    9.564151070    7.149046977
    1.879799666    9.369984119    9.548659243    7.138797995
    1.886978297    9.354904857    9.533166027    7.128545141
    1.894156928    9.339824180    9.517671751    7.118288631
    1.901335559    9.324742407    9.502176740    7.108028679
    1.908514190    9.309659852    9.486681320    7.097765500
    1.915692821    9.294576830    9.471185812    7.087499303
    1.922871452    9.279493650    9.455690534    7.077230302
    1.930050083    9.264410623    9.440195805    7.066958703
    1.937228715    9.249328053    9.424701937    7.056684716
    1.944407346    9.234246245    9.409209242    7.046408546
    1.951585977    9.219165500    9.393718030    7.036130399
    1.958764608    9.204086117    9.378228607    7.025850478
    1.965943239    9.189008393    9.362741279    7.015568986
    1.973121870    9.173932623    9.347256346    7.005286122
    1.980300501    9.158859098    9.331774108    6.995002087
    1.987479132    9.143788107    9.316294862    6.984717078
    1.994657763    9.128719939    9.300818902    6.974431293
    2.001836394    9.113654879    9.285346522    6.964144926
    2.009015025    9.098593208    9.269878010    6.953858170
    2.016193656    9.083535207    9.254413654    6.943571220
    2.023372287    9.068481155    9.238953738    6.933284265
    2.030550918    9.053431326    9.223498545    6.922997495
    2.037729549    9.038385994    9.208048355    6.912711098
    2.044908180    9.023345431    9.192603446    6.902425262
    2.052086811    9.008309904    9.177164092    6.892140171
    2.059265442    8.993279681    9.161730567    6.881856010
    2.066444073    8.978255024    9.146303140    6.871572961
    2.073622705    8.963236197    9.130882081    6.861291207
    2.080801336    8.948223458    9.115467654    6.851010926
    2.087979967    8.933217065    9.100060123    6.840732297
    2.095158598    8.918217272    9.084659749    6.830455497
    2.102337229    8.903224333    9.069266790    6.820180702
    2.109515860    8.888238497    9.053881503    6.809908087
    2.116694491    8.873260013    9.038504141    6.799637825
    2.123873122    8.858289126    9.023134955    6.789370087
    2.131051753    8.843326081    9.007774196    6.779105043
    2.138230384    8.828371118    8.992422109    6.768842863
    2.145409015    8.813424477    8.977078940    6.758583713
    2.152587646    8.798486394    8.961744930    6.748327761
    2.159766277    8.783557104    8.946420320    6.738075171
    2.166944908    8.768636841    8.931105347    6.727826107
    2.174123539    8.753725833    8.915800246    6.717580730
    2.181302170    8.738824309    8.900505251    6.707339202
    2.188480801    8.723932495    8.885220592    6.697101682
    2.195659432    8.709050614    8.869946498    6.686868328
    2.202838063    8.694178889    8.854683195    6.676639296
    2.210016694    8.679317538    8.839430907    6.666414744
    2.217195326    8.664466779    8.824189856    6.656194823
    2.224373957    8.649626826    8.808960262    6.645979688
    2.231552588    8.634797893    8.793742341    6.635769489
    2.238731219    8.619980190    8.778536310    6.625564377
    2.245909850    8.605173926    8.763342380    6.615364501
    2.253088481    8.590379307    8.748160763    6.605170007
    2.260267112    8.575596538    8.732991667    6.594981044
    2.267445743    8.560825822    8.717835299    6.584797754
    2.274624374    8.546067357    8.702691863    6.574620282
    2.281803005    8.531321344    8.687561560    6.564448771
    2.288981636    8.516587976    8.672444592    6.554283360
    2.296160267    8.501867450    8.657341155    6.544124190
    2.303338898    8.487159955    8.642251446    6.533971400
    2.310517529    8.472465683    8.627175658    6.523825126
    2.317696160    8.457784822    8.612113982    6.513685505
    2.324874791    8.443117556    8.597066608    6.503552671
    2.332053422    8.428464071    8.582033723    6.493426757
    2.339232053    8.413824547    8.567015513    6.483307895
    2.346410684    8.399199165    8.552012159    6.473196217
    2.353589316    8.384588102    8.537023845    6.463091852
    2.360767947    8.369991534    8.522050748    6.452994928
    2.367946578    8.355409636    8.507093046    6.442905572
    2.375125209    8.340842579    8.492150914    6.432823910
    2.382303840    8.326290532    8.477224524    6.422750068
    2.389482471    8.311753665    8.462314048    6.412684167
    2.396661102    8.297232143    8.447419655    6.402626331
    2.403839733    8.282726131    8.432541511    6.392576681
    2.411018364    8.268235790    8.417679782    6.382535336
    2.418196995    8.253761281    8.402834631    6.372502414
    2.425375626    8.239302763    8.388006219    6.362478034
    2.432554257    8.224860393    8.373194705    6.352462311
    2.439732888    8.210434324    8.358400247    6.342455360
    2.446911519    8.196024710    8.343623000    6.332457295
    2.454090150    8.181631702    8.328863117    6.322468229
    2.461268781    8.167255450    8.314120750    6.312488273
    2.468447412    8.152896100    8.299396048    6.302517538
    2.475626043    8.138553798    8.284689161    6.292556132
    2.482804674    8.124228688    8.270000232    6.282604163
    2.489983306    8.109920913    8.255329408    6.272661739
    2.497161937    8.095630611    8.240676829    6.262728964
    2.504340568    8.081357922    8.226042636    6.252805944
    2.511519199    8.067102983    8.211426968    6.242892782
    2.518697830    8.052865928    8.196829963    6.232989580
    2.525876461    8.038646890    8.182251754    6.223096438
    2.533055092    8.024446001    8.167692475    6.213213458
    2.540233723    8.010263391    8.153152258    6.203340738
