# energy grid [eV]     epsr_x  epsr_y  epsr_z
#
    0.200000000   13.576809857   12.663498326   12.105838239
    0.207178631   13.580065260   12.666540429   12.108591797
    0.214357262   13.583437941   12.669692576   12.111445415
    0.221535893   13.586928166   12.672955067   12.114399420
    0.228714524   13.590536211   12.676328216   12.117454151
    0.235893155   13.594262363   12.679812348   12.120609962
    0.243071786   13.598106920   12.683407801   12.123867220
    0.250250417   13.602070189   12.687114926   12.127226311
    0.257429048   13.606152491   12.690934089   12.130687634
    0.264607679   13.610354155   12.694865667   12.134251604
    0.271786311   13.614675522   12.698910053   12.137918654
    0.278964942   13.619116947   12.703067654   12.141689233
    0.286143573   13.623678794   12.707338891   12.145563808
    0.293322204   13.628361440   12.711724201   12.149542864
    0.300500835   13.633165274   12.716224036   12.153626906
    0.307679466   13.638090697   12.720838865   12.157816457
    0.314858097   13.643138124   12.725569171   12.162112060
    0.322036728   13.648307981   12.730415457   12.166514280
    0.329215359   13.653600709   12.735378240   12.171023703
    0.336393990   13.659016761   12.740458058   12.175640937
    0.343572621   13.664556604   12.745655465   12.180366614
    0.350751252   13.670220722   12.750971035   12.185201391
    0.357929883   13.676009610   12.756405363   12.190145947
    0.365108514   13.681923778   12.761959062   12.195200991
    0.372287145   13.687963755   12.767632767   12.200367257
    0.379465776   13.694130081   12.773427136   12.205645508
    0.386644407   13.700423314   12.779342848   12.211036538
    0.393823038   13.706844031   12.785380607   12.216541171
    0.401001669   13.713392823   12.791541139   12.222160264
    0.408180301   13.720070299   12.797825198   12.227894707
    0.415358932   13.726877087   12.804233564   12.233745427
    0.422537563   13.733813834   12.810767043   12.239713389
    0.429716194   13.740881206   12.817426470   12.245799597
    0.436894825   13.748079888   12.824212712   12.252005095
    0.444073456   13.755410589   12.831126664   12.258330973
    0.451252087   13.762874036   12.838169258   12.264778366
    0.458430718   13.770470980   12.845341456   12.271348457
    0.465609349   13.778202195   12.852644258   12.278042482
    0.472787980   13.786068480   12.860078703   12.284861729
    0.479966611   13.794070658   12.867645866   12.291807545
    0.487145242   13.802209580   12.875346867   12.298881338
    0.494323873   13.810486121   12.883182869   12.306084579
    0.501502504   13.818901188   12.891155080   12.313418809
    0.508681135   13.827455717   12.899264759   12.320885642
    0.515859766   13.836150675   12.907513213   12.328486768
    0.523038397   13.844987063   12.915901807   12.336223961
    0.530217028   13.853965915   12.924431963   12.344099083
    0.537395659   13.863088303   12.933105163   12.352114090
    0.544574290   13.872355336   12.941922955   12.360271041
    0.551752922   13.881768166   12.950886956   12.368572101
    0.558931553   13.891327985   12.959998856   12.377019552
    0.566110184   13.901036032   12.969260424   12.385615800
    0.573288815   13.910893594   12.978673513   12.394363387
    0.580467446   13.920902009   12.988240066   12.403265000
    0.587646077   13.931062669   12.997962121   12.412323481
    0.594824708   13.941377025   13.007841819   12.421541841
    0.602003339   13.951846590   13.017881412   12.430923278
    0.609181970   13.962472942   13.028083270   12.440471184
    0.616360601   13.973257730   13.038449894   12.450189171
    0.623539232   13.984202682   13.048983919   12.460081084
    0.630717863   13.995309606   13.059688132   12.470151027
    0.637896494   14.006580400   13.070565483   12.480403385
    0.645075125   14.018017057   13.081619097   12.490842849
    0.652253756   14.029621673   13.092852288   12.501474450
    0.659432387   14.041396461   13.104268581   12.512303590
    0.666611018   14.053343753   13.115871729   12.523336081
    0.673789649   14.065466017   13.127665730   12.534578190
    0.680968280   14.077765870   13.139654860   12.546036685
    0.688146912   14.090246086   13.151843690   12.557718892
    0.695325543   14.102909621   13.164237125   12.569632762
    0.702504174   14.115759626   13.176840433   12.581786938
    0.709682805   14.128799470   13.189659284   12.594190844
    0.716861436   14.142032761   13.202699801   12.606854780
    0.724040067   14.155463379   13.215968602   12.619790035
    0.731218698   14.169095504   13.229472863   12.633009015
    0.738397329   14.182933656   13.243220386   12.646525398
    0.745575960   14.196982732   13.257219672   12.660354313
    0.752754591   14.211248063   13.271480014   12.674512549
    0.759933222   14.225735471   13.286011600   12.689018806
    0.767111853   14.240451333   13.300825635   12.703893992
    0.774290484   14.255402671   13.315934484   12.719161584
    0.781469115   14.270597243   13.331351841   12.734848052
    0.788647746   14.286043663   13.347092929   12.750983389
    0.795826377   14.301751543   13.363174745   12.767601746
    0.803005008   14.317731663   13.379616341   12.784742223
    0.810183639   14.333996181   13.396439181   12.802449848
    0.817362270   14.350558894   13.413667566   12.820776806
    0.824540902   14.367435558   13.431329158   12.839783990
    0.831719533   14.384644292   13.449455635   12.859542986
    0.838898164   14.402206098   13.468083510   12.880138638
    0.846076795   14.420145512   13.487255164   12.901672390
    0.853255426   14.438491462   13.507020177   12.924266710
    0.860434057   14.457278389   13.527437047   12.948071009
    0.867612688   14.476547737   13.548575447   12.973269655
    0.874791319   14.496349960   13.570519223   13.000092975
    0.881969950   14.516747252   13.593370431   13.028832506
    0.889148581   14.537817300   13.617254815   13.059862290
    0.896327212   14.559658445   13.642329270   13.093668569
    0.903505843   14.582396665   13.668791878   13.130890269
    0.910684474   14.606194447   13.696894693   13.172370020
    0.917863105   14.631259709   13.726957015   13.219201850
    0.925041736   14.657844938   13.759366754   13.272705679
    0.932220367   14.686195016   13.794516924   13.334036902
    0.939398998   14.716275676   13.832462413   13.402256608
    0.946577629   14.746634403   13.871467543   13.466339788
    0.953756260   14.770606405   13.903156368   13.478656018
    0.960934891   14.773281703   13.908640976   13.333725420
    0.968113523   14.762671754   13.898447015   13.085322614
    0.975292154   14.776849810   13.921679023   12.996056040
    0.982470785   14.813976011   13.976443248   13.049382340
    0.989649416   14.860958389   14.046564597   13.149270038
    0.996828047   14.913729629   14.127497735   13.262122961
    1.004006678   14.971626102   14.218759748   13.381318880
    1.011185309   15.031152439   14.314275822   13.500300526
    1.018363940   15.072551021   14.378666283   13.583279033
    1.025542571   15.026905400   14.288193013   13.502883527
    1.032721202   14.813804436   13.898556450   13.110267870
    1.039899833   14.607618417   13.523913122   12.731909451
    1.047078464   14.568972622   13.453896404   12.668756492
    1.054257095   14.612518997   13.535942357   12.763105435
    1.061435726   14.672416739   13.652886159   12.893958882
    1.068614357   14.730248631   13.773098628   13.029025722
    1.075792988   14.782998649   13.892201237   13.164137302
    1.082971619   14.831050980   14.008285321   13.296852413
    1.090150250   14.874529236   14.102409049   13.403385443
    1.097328881   14.910640053   14.093731604   13.383228727
    1.104507513   14.933156610   13.830166866   13.047604771
    1.111686144   14.949319241   13.459629180   12.579759840
    1.118864775   14.975551111   13.334880766   12.416972381
    1.126043406   15.008758315   13.381401230   12.466775154
    1.133222037   15.043261304   13.469283861   12.568053638
    1.140400668   15.077303455   13.556005339   12.668057780
    1.147579299   15.110651349   13.633343156   12.756582607
    1.154757930   15.143430082   13.701545996   12.833941014
    1.161936561   15.175815039   13.762403549   12.902371148
    1.169115192   15.207964290   13.817650239   12.964058699
    1.176293823   15.240009608   13.868687267   13.020795465
    1.183472454   15.272060361   13.916608234   13.074016390
    1.190651085   15.304209163   13.962278204   13.124905418
    1.197829716   15.336536831   14.006408385   13.174498569
    1.205008347   15.369116323   14.049615276   13.223768201
    1.212186978   15.402015626   14.092456999   13.273667420
    1.219365609   15.435298940   14.135411758   13.325040460
    1.226544240   15.469022810   14.178645843   13.378005101
    1.233722871   15.503213314   14.220962206   13.429248293
    1.240901503   15.537779591   14.255974102   13.462236656
    1.248080134   15.572368265   14.265700574   13.430843184
    1.255258765   15.606955487   14.246327977   13.325159119
    1.262437396   15.642725134   14.246444489   13.269175408
    1.269616027   15.679999994   14.276733694   13.290048328
    1.276794658   15.718416652   14.317508202   13.337343109
    1.283973289   15.757869679   14.359774382   13.387948497
    1.291151920   15.798428483   14.401461477   13.436438183
    1.298330551   15.840227040   14.442427708   13.482307256
    1.305509182   15.883434714   14.482948257   13.526104113
    1.312687813   15.928255138   14.523351031   13.568493969
    1.319866444   15.974934253   14.563945548   13.610069762
    1.327045075   16.023773402   14.605022988   13.651342675
    1.334223706   16.075147677   14.646872754   13.692771599
    1.341402337   16.129531332   14.689803227   13.734798582
    1.348580968   16.187533194   14.734165415   13.777884893
    1.355759599   16.249946007   14.780381240   13.822549448
    1.362938230   16.317813877   14.828978786   13.869412633
    1.370116861   16.392517958   14.880634765   13.919246109
    1.377295492   16.475859372   14.936213825   13.973016372
    1.384474124   16.570030593   14.996750680   14.031858322
    1.391652755   16.677018758   15.063148624   14.096711727
    1.398831386   16.795600115   15.134682258   14.166545087
    1.406010017   16.908804883   15.202785967   14.231046108
    1.413188648   16.941562304   15.230293676   14.246842980
    1.420367279   16.719098154   15.133071815   14.122729980
    1.427545910   16.303703346   14.947016484   13.917206721
    1.434724541   16.140142643   14.883226094   13.852033877
    1.441903172   16.225292511   14.934755269   13.903330113
    1.449081803   16.390885815   15.022258709   13.988768739
    1.456260434   16.562974666   15.113931125   14.076019969
    1.463439065   16.681824847   15.192964089   14.143794130
    1.470617696   16.642499003   15.234492495   14.157239111
    1.477796327   16.478482237   15.243367343   14.127985807
    1.484974958   16.344318950   15.243414715   14.108553848
    1.492153589   16.093227106   15.184527166   14.053099982
    1.499332220   15.851636941   15.126906147   14.004060979
    1.506510851   15.849405236   15.159155450   14.031782942
    1.513689482   15.970983445   15.240183056   14.098451565
    1.520868114   16.115474427   15.334085755   14.172888905
    1.528046745   16.255001076   15.431518744   14.246898014
    1.535225376   16.385600140   15.531061245   14.319590539
    1.542404007   16.505668475   15.627856902   14.390092194
    1.549582638   16.601731301   15.695484455   14.450806377
    1.556761269   16.631094790   15.655082265   14.476442898
    1.563939900   16.577904595   15.461369007   14.445569902
    1.571118531   16.553330861   15.294402317   14.402922496
    1.578297162   16.608065049   15.273802641   14.400235327
    1.585475793   16.699742509   15.340582999   14.444307592
    1.592654424   16.799197147   15.431566037   14.510415731
    1.599833055   16.898503922   15.522931363   14.582020288
    1.607011686   16.997039785   15.609827802   14.654621106
    1.614190317   17.095328178   15.692340558   14.726030816
    1.621368948   17.191417891   15.770347930   14.787115435
    1.628547579   17.275570920   15.840414914   14.807140773
    1.635726210   17.340054908   15.899801582   14.760734550
    1.642904841   17.416817634   15.962553512   14.732479686
    1.650083472   17.523033609   16.037446304   14.772332614
    1.657262104   17.632797317   16.119388532   14.838269834
    1.664440735   17.693379974   16.204651489   14.893353202
    1.671619366   17.654339306   16.292243483   14.916818378
    1.678797997   17.635712817   16.387535188   14.943494755
    1.685976628   17.737863980   16.493517056   15.002885732
    1.693155259   17.894121486   16.598420537   15.073006434
    1.700333890   18.012070067   16.657659788   15.121278630
    1.707512521   17.928406144   16.573336500   15.111397426
    1.714691152   17.492594603   16.314913948   15.063212643
    1.721869783   17.055921364   16.106844054   15.048916816
    1.729048414   16.982122909   16.106609278   15.093536072
    1.736227045   17.102493426   16.210162583   15.164686436
    1.743405676   17.264028917   16.337182680   15.241347895
    1.750584307   17.422104458   16.464856878   15.318094319
    1.757762938   17.568502261   16.586433595   15.393900582
    1.764941569   17.699873762   16.686387514   15.466233753
    1.772120200   17.802702987   16.717210792   15.527132418
    1.779298831   17.857598949   16.644852720   15.576856760
    1.786477462   17.899588072   16.582207874   15.639840629
    1.793656093   17.982418531   16.623606795   15.722025263
    1.800834725   18.090659272   16.720615919   15.808678471
    1.808013356   18.198833536   16.824301669   15.868702410
    1.815191987   18.286608550   16.908447690   15.834880565
    1.822370618   18.355796979   16.973223196   15.716446431
    1.829549249   18.445421530   17.054274662   15.684857532
    1.836727880   18.555840019   17.151388328   15.745169203
    1.843906511   18.662434429   17.240053070   15.811043280
    1.851085142   18.753186756   17.307968406   15.842754205
    1.858263773   18.857150305   17.387385132   15.888752320
    1.865442404   18.979745003   17.489596445   15.970849824
    1.872621035   19.066908715   17.579227584   16.049998581
    1.879799666   19.015646772   17.598514979   16.077673327
    1.886978297   18.857579328   17.563442632   16.066660877
    1.894156928   18.836874831   17.603179992   16.108271085
    1.901335559   18.952244825   17.718191344   16.200456966
    1.908514190   19.112963400   17.861052837   16.310165058
    1.915692821   19.283155864   18.009965989   16.422670453
    1.922871452   19.444442787   18.139378440   16.520809860
    1.930050083   19.558541590   18.181080913   16.557900571
    1.937228715   19.595212910   18.091365391   16.501071288
    1.944407346   19.619884951   18.019256892   16.450303663
    1.951585977   19.570813788   17.974446232   16.428909538
    1.958764608   19.347191576   17.889547536   16.431077618
    1.965943239   19.218175842   17.891424266   16.497876121
    1.973121870   19.302372707   18.011550016   16.608709582
    1.980300501   19.464553182   18.173604670   16.728934860
    1.987479132   19.614549836   18.334346383   16.831392700
    1.994657763   19.706709492   18.473436821   16.876887745
    2.001836394   19.763843024   18.599440781   16.856899874
    2.009015025   19.852422090   18.740805782   16.861872509
    2.016193656   19.987596972   18.879414582   16.932672118
    2.023372287   20.126645761   18.915721025   17.004323906
    2.030550918   20.228824456   18.750339384   17.040054965
    2.037729549   20.308786887   18.529407276   17.082901375
    2.044908180   20.428848121   18.516244345   17.170048761
    2.052086811   20.582736655   18.648739665   17.273741194
    2.059265442   20.744454076   18.795262710   17.353614868
    2.066444073   20.905210675   18.921970050   17.410387209
    2.073622705   21.059372067   19.060360573   17.492620100
    2.080801336   21.170806981   19.184141160   17.592637765
    2.087979967   21.230261261   19.273982488   17.692760673
    2.095158598   21.250933260   19.342287332   17.797210766
    2.102337229   21.181948211   19.361911905   17.899226874
    2.109515860   21.170035087   19.418966467   18.013905079
    2.116694491   21.300094579   19.556546712   18.144489524
    2.123873122   21.493122059   19.721323246   18.255521528
    2.131051753   21.697416255   19.859116951   18.301970959
    2.138230384   21.905158600   19.956499056   18.341767347
    2.145409015   22.113764422   20.082893762   18.449177561
    2.152587646   22.296834128   20.252926136   18.574770927
    2.159766277   22.425805443   20.423356128   18.676488125
    2.166944908   22.441828150   20.530604809   18.675591514
    2.174123539   22.329590376   20.508669317   18.452075114
    2.181302170   22.226692704   20.472860028   18.188475080
    2.188480801   22.326669135   20.571773207   18.181204612
    2.195659432   22.551664004   20.705463865   18.314921065
    2.202838063   22.789777809   20.801345497   18.462826621
    2.210016694   22.974642548   20.914450332   18.617883050
    2.217195326   23.011791971   21.003681081   18.750222027
    2.224373957   22.974831920   21.069980402   18.851553021
    2.231552588   23.070385343   21.209552631   18.981269405
    2.238731219   23.279487005   21.394448416   19.130970352
    2.245909850   23.487838301   21.552280854   19.247821368
    2.253088481   23.708767254   21.722049153   19.365444775
    2.260267112   23.939732063   21.899167877   19.517262150
    2.267445743   24.051611759   21.964025811   19.637816191
    2.274624374   24.046731064   21.963766418   19.692883329
    2.281803005   24.092935537   22.051081537   19.699685550
    2.288981636   24.207175885   22.176583380   19.730997426
    2.296160267   24.220535166   22.184222014   19.858015063
    2.303338898   24.095156614   22.059292884   20.054668638
    2.310517529   24.176059020   22.115923291   20.291038197
    2.317696160   24.464858626   22.358575658   20.509486338
    2.324874791   24.789459928   22.643246021   20.611531734
    2.332053422   25.058221616   22.887919271   20.526765655
    2.339232053   25.226340825   23.038260079   20.457341662
    2.346410684   25.256270922   23.067161977   20.494905866
    2.353589316   25.321283751   23.141049066   20.619385724
    2.360767947   25.556765856   23.366027781   20.861519784
    2.367946578   25.896407277   23.653887490   21.138061685
    2.375125209   26.213112403   23.905540243   21.213712949
    2.382303840   26.380985770   24.092512858   20.823253547
    2.389482471   26.474713951   24.287024574   20.360947692
    2.396661102   26.608068095   24.549112505   20.388111935
    2.403839733   26.787132455   24.774860573   20.663545811
    2.411018364   26.934226313   24.819677561   20.845512185
    2.418196995   27.013584272   24.842165534   20.805583476
    2.425375626   27.239762878   25.034382803   20.779801948
    2.432554257   27.527829372   25.270169643   20.789383240
    2.439732888   27.854608079   25.562425250   20.899694309
    2.446911519   28.169895965   25.843224947   21.158510207
    2.454090150   28.141650212   25.793861881   21.392082242
    2.461268781   27.732740143   25.374800428   21.414982086
    2.468447412   27.589540320   25.129086101   21.280945070
    2.475626043   27.796941573   25.150577209   21.291433833
    2.482804674   28.119098299   25.370163647   21.463194498
    2.489983306   28.368930584   25.720313831   21.585649658
    2.497161937   28.417748580   26.000396799   21.522078531
    2.504340568   28.402364756   26.201401053   21.409876775
    2.511519199   28.632850702   26.496262906   21.481944962
    2.518697830   28.980025189   26.753365859   21.730548352
    2.525876461   29.155069430   26.714111857   22.042368732
    2.533055092   29.352904864   26.734990533   22.343781059
    2.540233723   29.720540551   27.100412233   22.586275727
