# energy grid [eV]     ieps_x  ieps_y  ieps_z
#
    0.200000000    3.982892764    6.912350135    4.884596104
    0.207178631    3.982258585    6.911144029    4.883704075
    0.214357262    3.981602340    6.909895929    4.882781060
    0.221535893    3.980924056    6.908605890    4.881827106
    0.228714524    3.980223767    6.907273968    4.880842263
    0.235893155    3.979501504    6.905900223    4.879826582
    0.243071786    3.978757301    6.904484715    4.878780116
    0.250250417    3.977991192    6.903027505    4.877702919
    0.257429048    3.977203211    6.901528659    4.876595048
    0.264607679    3.976393396    6.899988241    4.875456559
    0.271786311    3.975561784    6.898406320    4.874287511
    0.278964942    3.974708412    6.896782965    4.873087965
    0.286143573    3.973833320    6.895118247    4.871857983
    0.293322204    3.972936547    6.893412239    4.870597628
    0.300500835    3.972018136    6.891665015    4.869306965
    0.307679466    3.971078127    6.889876652    4.867986060
    0.314858097    3.970116564    6.888047227    4.866634982
    0.322036728    3.969133491    6.886176821    4.865253799
    0.329215359    3.968128952    6.884265515    4.863842583
    0.336393990    3.967102994    6.882313392    4.862401405
    0.343572621    3.966055662    6.880320537    4.860930340
    0.350751252    3.964987004    6.878287037    4.859429461
    0.357929883    3.963897070    6.876212979    4.857898847
    0.365108514    3.962785907    6.874098453    4.856338574
    0.372287145    3.961653567    6.871943552    4.854748722
    0.379465776    3.960500100    6.869748367    4.853129371
    0.386644407    3.959325559    6.867512994    4.851480605
    0.393823038    3.958129997    6.865237529    4.849802505
    0.401001669    3.956913467    6.862922070    4.848095157
    0.408180301    3.955676024    6.860566717    4.846358646
    0.415358932    3.954417723    6.858171571    4.844593061
    0.422537563    3.953138622    6.855736734    4.842798490
    0.429716194    3.951838777    6.853262310    4.840975023
    0.436894825    3.950518246    6.850748406    4.839122751
    0.444073456    3.949177088    6.848195129    4.837241766
    0.451252087    3.947815364    6.845602588    4.835332164
    0.458430718    3.946433133    6.842970892    4.833394038
    0.465609349    3.945030457    6.840300155    4.831427485
    0.472787980    3.943607398    6.837590489    4.829432603
    0.479966611    3.942164020    6.834842009    4.827409490
    0.487145242    3.940700386    6.832054831    4.825358247
    0.494323873    3.939216560    6.829229074    4.823278974
    0.501502504    3.937712609    6.826364857    4.821171774
    0.508681135    3.936188597    6.823462300    4.819036751
    0.515859766    3.934644593    6.820521525    4.816874010
    0.523038397    3.933080664    6.817542655    4.814683655
    0.530217028    3.931496878    6.814525817    4.812465794
    0.537395659    3.929893304    6.811471135    4.810220535
    0.544574290    3.928270013    6.808378737    4.807947988
    0.551752922    3.926627075    6.805248753    4.805648262
    0.558931553    3.924964562    6.802081313    4.803321468
    0.566110184    3.923282544    6.798876548    4.800967720
    0.573288815    3.921581097    6.795634591    4.798587131
    0.580467446    3.919860292    6.792355577    4.796179814
    0.587646077    3.918120204    6.789039640    4.793745886
    0.594824708    3.916360908    6.785686918    4.791285463
    0.602003339    3.914582479    6.782297549    4.788798662
    0.609181970    3.912784994    6.778871672    4.786285602
    0.616360601    3.910968530    6.775409428    4.783746402
    0.623539232    3.909133163    6.771910958    4.781181183
    0.630717863    3.907278973    6.768376404    4.778590065
    0.637896494    3.905406038    6.764805912    4.775973172
    0.645075125    3.903514437    6.761199627    4.773330625
    0.652253756    3.901604251    6.757557694    4.770662549
    0.659432387    3.899675560    6.753880262    4.767969069
    0.666611018    3.897728446    6.750167479    4.765250311
    0.673789649    3.895762989    6.746419495    4.762506400
    0.680968280    3.893779274    6.742636461    4.759737465
    0.688146912    3.891777382    6.738818528    4.756943634
    0.695325543    3.889757398    6.734965850    4.754125035
    0.702504174    3.887719404    6.731078581    4.751281798
    0.709682805    3.885663487    6.727156877    4.748414054
    0.716861436    3.883589732    6.723200892    4.745521934
    0.724040067    3.881498223    6.719210784    4.742605570
    0.731218698    3.879389048    6.715186712    4.739665095
    0.738397329    3.877262294    6.711128835    4.736700643
    0.745575960    3.875118047    6.707037312    4.733712346
    0.752754591    3.872956395    6.702912305    4.730700341
    0.759933222    3.870777427    6.698753976    4.727664763
    0.767111853    3.868581231    6.694562487    4.724605748
    0.774290484    3.866367897    6.690338002    4.721523432
    0.781469115    3.864137515    6.686080686    4.718417953
    0.788647746    3.861890174    6.681790705    4.715289449
    0.795826377    3.859625965    6.677468224    4.712138059
    0.803005008    3.857344980    6.673113412    4.708963922
    0.810183639    3.855047310    6.668726435    4.705767177
    0.817362270    3.852733046    6.664307464    4.702547966
    0.824540902    3.850402282    6.659856667    4.699306427
    0.831719533    3.848055109    6.655374215    4.696042704
    0.838898164    3.845691621    6.650860279    4.692756938
    0.846076795    3.843311912    6.646315032    4.689449270
    0.853255426    3.840916075    6.641738645    4.686119845
    0.860434057    3.838504205    6.637131292    4.682768805
    0.867612688    3.836076396    6.632493148    4.679396293
    0.874791319    3.833632743    6.627824386    4.676002455
    0.881969950    3.831173342    6.623125183    4.672587434
    0.889148581    3.828698288    6.618395714    4.669151376
    0.896327212    3.826207677    6.613636157    4.665694425
    0.903505843    3.823701606    6.608846688    4.662216728
    0.910684474    3.821180171    6.604027485    4.658718431
    0.917863105    3.818643468    6.599178727    4.655199679
    0.925041736    3.816091596    6.594300594    4.651660621
    0.932220367    3.813524652    6.589393264    4.648101402
    0.939398998    3.810942733    6.584456919    4.644522170
    0.946577629    3.808345937    6.579491738    4.640923073
    0.953756260    3.805734363    6.574497903    4.637304259
    0.960934891    3.803108110    6.569475596    4.633665875
    0.968113523    3.800467275    6.564424999    4.630008071
    0.975292154    3.797811958    6.559346295    4.626330995
    0.982470785    3.795142259    6.554239667    4.622634796
    0.989649416    3.792458276    6.549105299    4.618919622
    0.996828047    3.789760109    6.543943374    4.615185624
    1.004006678    3.787047859    6.538754077    4.611432951
    1.011185309    3.784321624    6.533537594    4.607661752
    1.018363940    3.781581506    6.528294109    4.603872177
    1.025542571    3.778827605    6.523023807    4.600064376
    1.032721202    3.776060021    6.517726876    4.596238499
    1.039899833    3.773278855    6.512403500    4.592394696
    1.047078464    3.770484208    6.507053868    4.588533118
    1.054257095    3.767676181    6.501678165    4.584653914
    1.061435726    3.764854874    6.496276579    4.580757236
    1.068614357    3.762020390    6.490849298    4.576843234
    1.075792988    3.759172830    6.485396508    4.572912058
    1.082971619    3.756312295    6.479918399    4.568963859
    1.090150250    3.753438886    6.474415159    4.564998787
    1.097328881    3.750552706    6.468886975    4.561016993
    1.104507513    3.747653856    6.463334037    4.557018629
    1.111686144    3.744742438    6.457756534    4.553003843
    1.118864775    3.741818554    6.452154654    4.548972788
    1.126043406    3.738882305    6.446528588    4.544925613
    1.133222037    3.735933795    6.440878523    4.540862469
    1.140400668    3.732973125    6.435204650    4.536783507
    1.147579299    3.730000397    6.429507159    4.532688876
    1.154757930    3.727015713    6.423786239    4.528578728
    1.161936561    3.724019175    6.418042080    4.524453212
    1.169115192    3.721010887    6.412274872    4.520312479
    1.176293823    3.717990949    6.406484805    4.516156678
    1.183472454    3.714959464    6.400672069    4.511985960
    1.190651085    3.711916534    6.394836854    4.507800474
    1.197829716    3.708862263    6.388979351    4.503600370
    1.205008347    3.705796750    6.383099750    4.499385798
    1.212186978    3.702720100    6.377198240    4.495156906
    1.219365609    3.699632414    6.371275012    4.490913843
    1.226544240    3.696533793    6.365330257    4.486656759
    1.233722871    3.693424341    6.359364163    4.482385803
    1.240901503    3.690304159    6.353376922    4.478101122
    1.248080134    3.687173349    6.347368724    4.473802866
    1.255258765    3.684032013    6.341339758    4.469491182
    1.262437396    3.680880253    6.335290214    4.465166218
    1.269616027    3.677718170    6.329220283    4.460828122
    1.276794658    3.674545867    6.323130153    4.456477041
    1.283973289    3.671363444    6.317020015    4.452113122
    1.291151920    3.668171003    6.310890057    4.447736512
    1.298330551    3.664968645    6.304740470    4.443347358
    1.305509182    3.661756472    6.298571442    4.438945805
    1.312687813    3.658534585    6.292383162    4.434532000
    1.319866444    3.655303085    6.286175820    4.430106088
    1.327045075    3.652062072    6.279949603    4.425668215
    1.334223706    3.648811648    6.273704700    4.421218526
    1.341402337    3.645551912    6.267441301    4.416757165
    1.348580968    3.642282966    6.261159591    4.412284276
    1.355759599    3.639004910    6.254859760    4.407800004
    1.362938230    3.635717843    6.248541995    4.403304492
    1.370116861    3.632421866    6.242206483    4.398797884
    1.377295492    3.629117079    6.235853411    4.394280321
    1.384474124    3.625803581    6.229482967    4.389751948
    1.391652755    3.622481472    6.223095336    4.385212905
    1.398831386    3.619150850    6.216690704    4.380663335
    1.406010017    3.615811816    6.210269258    4.376103379
    1.413188648    3.612464467    6.203831184    4.371533177
    1.420367279    3.609108903    6.197376666    4.366952871
    1.427545910    3.605745221    6.190905889    4.362362600
    1.434724541    3.602373521    6.184419038    4.357762503
    1.441903172    3.598993900    6.177916298    4.353152721
    1.449081803    3.595606457    6.171397852    4.348533391
    1.456260434    3.592211287    6.164863883    4.343904652
    1.463439065    3.588808490    6.158314575    4.339266642
    1.470617696    3.585398162    6.151750111    4.334619498
    1.477796327    3.581980399    6.145170673    4.329963358
    1.484974958    3.578555300    6.138576443    4.325298356
    1.492153589    3.575122959    6.131967602    4.320624630
    1.499332220    3.571683473    6.125344331    4.315942315
    1.506510851    3.568236938    6.118706812    4.311251545
    1.513689482    3.564783449    6.112055225    4.306552456
    1.520868114    3.561323103    6.105389748    4.301845181
    1.528046745    3.557855993    6.098710562    4.297129853
    1.535225376    3.554382215    6.092017846    4.292406606
    1.542404007    3.550901863    6.085311777    4.287675571
    1.549582638    3.547415031    6.078592535    4.282936881
    1.556761269    3.543921813    6.071860295    4.278190667
    1.563939900    3.540422304    6.065115236    4.273437060
    1.571118531    3.536916595    6.058357533    4.268676190
    1.578297162    3.533404781    6.051587363    4.263908187
    1.585475793    3.529886953    6.044804901    4.259133180
    1.592654424    3.526363205    6.038010321    4.254351297
    1.599833055    3.522833629    6.031203799    4.249562667
    1.607011686    3.519298315    6.024385508    4.244767418
    1.614190317    3.515757356    6.017555621    4.239965675
    1.621368948    3.512210844    6.010714311    4.235157565
    1.628547579    3.508658867    6.003861750    4.230343215
    1.635726210    3.505101518    5.996998110    4.225522749
    1.642904841    3.501538886    5.990123562    4.220696292
    1.650083472    3.497971061    5.983238276    4.215863968
    1.657262104    3.494398133    5.976342422    4.211025901
    1.664440735    3.490820190    5.969436169    4.206182213
    1.671619366    3.487237322    5.962519686    4.201333027
    1.678797997    3.483649617    5.955593142    4.196478464
    1.685976628    3.480057163    5.948656702    4.191618645
    1.693155259    3.476460047    5.941710536    4.186753691
    1.700333890    3.472858358    5.934754807    4.181883722
    1.707512521    3.469252181    5.927789683    4.177008857
    1.714691152    3.465641605    5.920815328    4.172129214
    1.721869783    3.462026715    5.913831907    4.167244912
    1.729048414    3.458407596    5.906839583    4.162356068
    1.736227045    3.454784335    5.899838519    4.157462799
    1.743405676    3.451157017    5.892828877    4.152565221
    1.750584307    3.447525727    5.885810820    4.147663449
    1.757762938    3.443890548    5.878784509    4.142757598
    1.764941569    3.440251566    5.871750103    4.137847784
    1.772120200    3.436608863    5.864707763    4.132934118
    1.779298831    3.432962523    5.857657647    4.128016715
    1.786477462    3.429312630    5.850599915    4.123095687
    1.793656093    3.425659264    5.843534723    4.118171145
    1.800834725    3.422002509    5.836462229    4.113243200
    1.808013356    3.418342447    5.829382590    4.108311964
    1.815191987    3.414679158    5.822295960    4.103377546
    1.822370618    3.411012723    5.815202495    4.098440055
    1.829549249    3.407343224    5.808102349    4.093499599
    1.836727880    3.403670740    5.800995675    4.088556287
    1.843906511    3.399995351    5.793882627    4.083610225
    1.851085142    3.396317136    5.786763356    4.078661521
    1.858263773    3.392636175    5.779638014    4.073710281
    1.865442404    3.388952545    5.772506752    4.068756609
    1.872621035    3.385266326    5.765369719    4.063800610
    1.879799666    3.381577594    5.758227064    4.058842389
    1.886978297    3.377886427    5.751078937    4.053882048
    1.894156928    3.374192902    5.743925485    4.048919691
    1.901335559    3.370497096    5.736766856    4.043955420
    1.908514190    3.366799084    5.729603194    4.038989335
    1.915692821    3.363098942    5.722434646    4.034021538
    1.922871452    3.359396746    5.715261357    4.029052128
    1.930050083    3.355692570    5.708083471    4.024081206
    1.937228715    3.351986489    5.700901131    4.019108870
    1.944407346    3.348278576    5.693714480    4.014135218
    1.951585977    3.344568906    5.686523659    4.009160347
    1.958764608    3.340857551    5.679328810    4.004184355
    1.965943239    3.337144584    5.672130073    3.999207337
    1.973121870    3.333430078    5.664927588    3.994229390
    1.980300501    3.329714105    5.657721492    3.989250607
    1.987479132    3.325996735    5.650511925    3.984271084
    1.994657763    3.322278040    5.643299024    3.979290913
    2.001836394    3.318558091    5.636082925    3.974310188
    2.009015025    3.314836958    5.628863764    3.969329001
    2.016193656    3.311114710    5.621641676    3.964347443
    2.023372287    3.307391417    5.614416795    3.959365606
    2.030550918    3.303667148    5.607189255    3.954383580
    2.037729549    3.299941971    5.599959188    3.949401453
    2.044908180    3.296215955    5.592726726    3.944419317
    2.052086811    3.292489167    5.585492001    3.939437257
    2.059265442    3.288761675    5.578255142    3.934455364
    2.066444073    3.285033544    5.571016280    3.929473722
    2.073622705    3.281304842    5.563775543    3.924492420
    2.080801336    3.277575635    5.556533059    3.919511542
    2.087979967    3.273845987    5.549288955    3.914531174
    2.095158598    3.270115965    5.542043359    3.909551400
    2.102337229    3.266385632    5.534796395    3.904572303
    2.109515860    3.262655053    5.527548188    3.899593968
    2.116694491    3.258924292    5.520298864    3.894616477
    2.123873122    3.255193413    5.513048544    3.889639911
    2.131051753    3.251462477    5.505797352    3.884664353
    2.138230384    3.247731548    5.498545410    3.879689881
    2.145409015    3.244000687    5.491292838    3.874716577
    2.152587646    3.240269957    5.484039757    3.869744520
    2.159766277    3.236539419    5.476786286    3.864773788
    2.166944908    3.232809133    5.469532544    3.859804460
    2.174123539    3.229079160    5.462278649    3.854836613
    2.181302170    3.225349559    5.455024718    3.849870324
    2.188480801    3.221620391    5.447770867    3.844905669
    2.195659432    3.217891715    5.440517213    3.839942723
    2.202838063    3.214163588    5.433263869    3.834981562
    2.210016694    3.210436070    5.426010950    3.830022260
    2.217195326    3.206709219    5.418758569    3.825064891
    2.224373957    3.202983090    5.411506838    3.820109527
    2.231552588    3.199257743    5.404255870    3.815156242
    2.238731219    3.195533233    5.397005775    3.810205106
    2.245909850    3.191809616    5.389756663    3.805256192
    2.253088481    3.188086948    5.382508643    3.800309570
    2.260267112    3.184365285    5.375261825    3.795365310
    2.267445743    3.180644681    5.368016316    3.790423480
    2.274624374    3.176925191    5.360772223    3.785484152
    2.281803005    3.173206868    5.353529653    3.780547391
    2.288981636    3.169489768    5.346288710    3.775613266
    2.296160267    3.165773941    5.339049500    3.770681845
    2.303338898    3.162059443    5.331812126    3.765753192
    2.310517529    3.158346324    5.324576693    3.760827375
    2.317696160    3.154634638    5.317343301    3.755904458
    2.324874791    3.150924434    5.310112054    3.750984506
    2.332053422    3.147215766    5.302883051    3.746067583
    2.339232053    3.143508683    5.295656394    3.741153753
    2.346410684    3.139803235    5.288432181    3.736243078
    2.353589316    3.136099473    5.281210511    3.731335620
    2.360767947    3.132397447    5.273991481    3.726431442
    2.367946578    3.128697204    5.266775190    3.721530604
    2.375125209    3.124998795    5.259561734    3.716633167
    2.382303840    3.121302267    5.252351207    3.711739191
    2.389482471    3.117607668    5.245143706    3.706848735
    2.396661102    3.113915046    5.237939323    3.701961858
    2.403839733    3.110224448    5.230738153    3.697078619
    2.411018364    3.106535920    5.223540288    3.692199075
    2.418196995    3.102849509    5.216345820    3.687323283
    2.425375626    3.099165261    5.209154840    3.682451300
    2.432554257    3.095483220    5.201967439    3.677583181
    2.439732888    3.091803434    5.194783706    3.672718983
    2.446911519    3.088125945    5.187603730    3.667858760
    2.454090150    3.084450798    5.180427599    3.663002567
    2.461268781    3.080778038    5.173255402    3.658150457
    2.468447412    3.077107708    5.166087223    3.653302484
    2.475626043    3.073439850    5.158923151    3.648458700
    2.482804674    3.069774509    5.151763269    3.643619158
    2.489983306    3.066111725    5.144607662    3.638783908
    2.497161937    3.062451542    5.137456415    3.633953004
    2.504340568    3.058794000    5.130309611    3.629126494
    2.511519199    3.055139141    5.123167331    3.624304429
    2.518697830    3.051487006    5.116029657    3.619486859
    2.525876461    3.047837636    5.108896671    3.614673832
    2.533055092    3.044191069    5.101768453    3.609865397
    2.540233723    3.040547347    5.094645082    3.605061602
