# energy grid [eV]     epsr_x  epsr_y  epsr_z
#
    0.200000000    6.683085445    9.943107575   11.675518144
    0.207178631    6.684227531    9.945157809   11.677893630
    0.214357262    6.685410515    9.947281706   11.680354422
    0.221535893    6.686634463    9.949479413   11.682900684
    0.228714524    6.687899445    9.951751083   11.685532587
    0.235893155    6.689205530    9.954096872   11.688250309
    0.243071786    6.690552792    9.956516944   11.691054034
    0.250250417    6.691941308    9.959011468   11.693943952
    0.257429048    6.693371157    9.961580619   11.696920261
    0.264607679    6.694842419    9.964224578   11.699983165
    0.271786311    6.696355179    9.966943532   11.703132875
    0.278964942    6.697909522    9.969737676   11.706369610
    0.286143573    6.699505537    9.972607208   11.709693595
    0.293322204    6.701143316    9.975552335   11.713105062
    0.300500835    6.702822954    9.978573270   11.716604251
    0.307679466    6.704544547    9.981670232   11.720191410
    0.314858097    6.706308195    9.984843447   11.723866795
    0.322036728    6.708114001    9.988093149   11.727630669
    0.329215359    6.709962069    9.991419577   11.731483302
    0.336393990    6.711852508    9.994822980   11.735424975
    0.343572621    6.713785428    9.998303611   11.739455974
    0.350751252    6.715760944   10.001861734   11.743576597
    0.357929883    6.717779173   10.005497619   11.747787149
    0.365108514    6.719840233   10.009211542   11.752087943
    0.372287145    6.721944249   10.013003792   11.756479303
    0.379465776    6.724091345   10.016874661   11.760961562
    0.386644407    6.726281652   10.020824453   11.765535062
    0.393823038    6.728515300   10.024853479   11.770200156
    0.401001669    6.730792426   10.028962060   11.774957206
    0.408180301    6.733113168   10.033150525   11.779806585
    0.415358932    6.735477668   10.037419215   11.784748678
    0.422537563    6.737886072   10.041768477   11.789783880
    0.429716194    6.740338529   10.046198673   11.794912597
    0.436894825    6.742835190   10.050710170   11.800135248
    0.444073456    6.745376213   10.055303349   11.805452265
    0.451252087    6.747961756   10.059978602   11.810864090
    0.458430718    6.750591983   10.064736332   11.816371180
    0.465609349    6.753267061   10.069576954   11.821974007
    0.472787980    6.755987161   10.074500895   11.827673053
    0.479966611    6.758752459   10.079508596   11.833468820
    0.487145242    6.761563133   10.084600509   11.839361820
    0.494323873    6.764419367   10.089777101   11.845352585
    0.501502504    6.767321348   10.095038856   11.851441662
    0.508681135    6.770269269   10.100386269   11.857629614
    0.515859766    6.773263325   10.105819853   11.863917024
    0.523038397    6.776303717   10.111340137   11.870304492
    0.530217028    6.779390652   10.116947666   11.876792640
    0.537395659    6.782524340   10.122643004   11.883382107
    0.544574290    6.785704997   10.128426735   11.890073557
    0.551752922    6.788932843   10.134299461   11.896867675
    0.558931553    6.792208104   10.140261804   11.903765170
    0.566110184    6.795531012   10.146314410   11.910766776
    0.573288815    6.798901804   10.152457946   11.917873254
    0.580467446    6.802320723   10.158693106   11.925085392
    0.587646077    6.805788019   10.165020606   11.932404007
    0.594824708    6.809303945   10.171441191   11.939829948
    0.602003339    6.812868765   10.177955636   11.947364098
    0.609181970    6.816482747   10.184564745   11.955007372
    0.616360601    6.820146166   10.191269353   11.962760726
    0.623539232    6.823859305   10.198070333   11.970625151
    0.630717863    6.827622455   10.204968591   11.978601684
    0.637896494    6.831435914   10.211965076   11.986691406
    0.645075125    6.835299989   10.219060775   11.994895444
    0.652253756    6.839214995   10.226256724   12.003214980
    0.659432387    6.843181256   10.233554003   12.011651248
    0.666611018    6.847199108   10.240953749   12.020205545
    0.673789649    6.851268893   10.248457150   12.028879227
    0.680968280    6.855390966   10.256065457   12.037673725
    0.688146912    6.859565694   10.263779986   12.046590539
    0.695325543    6.863793454   10.271602123   12.055631253
    0.702504174    6.868074637   10.279533330   12.064797539
    0.709682805    6.872409645   10.287575155   12.074091161
    0.716861436    6.876798898   10.295729234   12.083513991
    0.724040067    6.881242828   10.303997305   12.093068010
    0.731218698    6.885741883   10.312381211   12.102755325
    0.738397329    6.890296531   10.320882918   12.112578180
    0.745575960    6.894907257   10.329504520   12.122538966
    0.752754591    6.899574566   10.338248259   12.132640241
    0.759933222    6.904298985   10.347116534   12.142884741
    0.767111853    6.909081065   10.356111922   12.153275409
    0.774290484    6.913921381   10.365237198   12.163815406
    0.781469115    6.918820539   10.374495355   12.174508145
    0.788647746    6.923779172   10.383889631   12.185357316
    0.795826377    6.928797950   10.393423540   12.196366923
    0.803005008    6.933877577   10.403100904   12.207541316
    0.810183639    6.939018800   10.412925896   12.218885243
    0.817362270    6.944222410   10.422903079   12.230403899
    0.824540902    6.949489250   10.433037471   12.242102982
    0.831719533    6.954820219   10.443334595   12.253988773
    0.838898164    6.960216281   10.453800565   12.266068211
    0.846076795    6.965678471   10.464442164   12.278348995
    0.853255426    6.971207906   10.475266953   12.290839702
    0.860434057    6.976805799   10.486283397   12.303549922
    0.867612688    6.982473466   10.497501006   12.316490430
    0.874791319    6.988212353   10.508930524   12.329673383
    0.881969950    6.994024045   10.520584140   12.343112571
    0.889148581    6.999910301   10.532475756   12.356823707
    0.896327212    7.005873074   10.544621319   12.370824802
    0.903505843    7.011914555   10.557039218   12.385136614
    0.910684474    7.018037216   10.569750799   12.399783221
    0.917863105    7.024243866   10.582780995   12.414792727
    0.925041736    7.030537728   10.596159133   12.430198170
    0.932220367    7.036922525   10.609919973   12.446038683
    0.939398998    7.043402604   10.624105037   12.462360981
    0.946577629    7.049983088   10.638764354   12.479221322
    0.953756260    7.056670083   10.653958761   12.496688075
    0.960934891    7.063470947   10.669762975   12.514845167
    0.968113523    7.070394657   10.686269740   12.533796722
    0.975292154    7.077452309   10.703595499   12.553673415
    0.982470785    7.084657810   10.721888237   12.574641250
    0.989649416    7.092028842   10.741338454   12.596913843
    0.996828047    7.099588218   10.762194617   12.620769725
    1.004006678    7.107365801   10.784784972   12.646576752
    1.011185309    7.115401161   10.809547882   12.674826073
    1.018363940    7.123747094   10.837071901   12.706176980
    1.025542571    7.132473508   10.868140091   12.741506522
    1.032721202    7.141668690   10.903744389   12.781925584
    1.039899833    7.151424958   10.944921541   12.828595256
    1.047078464    7.161756059   10.991809106   12.881670191
    1.054257095    7.172237618   11.039537109   12.935700057
    1.061435726    7.180651900   11.062742968   12.962296764
    1.068614357    7.179994544   10.981370379   12.871852446
    1.075792988    7.165136373   10.736786438   12.598738959
    1.082971619    7.154885438   10.543860671   12.383465269
    1.090150250    7.159090954   10.515096486   12.351959849
    1.097328881    7.169300154   10.553876497   12.396077924
    1.104507513    7.180582620   10.603825295   12.452718480
    1.111686144    7.191662610   10.650320640   12.505515778
    1.118864775    7.202360533   10.691259100   12.552116707
    1.126043406    7.212742337   10.727335919   12.593300835
    1.133222037    7.222907746   10.759624078   12.630270580
    1.140400668    7.232944638   10.789051368   12.664065871
    1.147579299    7.242923558   10.816335572   12.695491564
    1.154757930    7.252900915   10.842018311   12.725155271
    1.161936561    7.262923223   10.866509988   12.753517600
    1.169115192    7.273030760   10.890127097   12.780933802
    1.176293823    7.283260539   10.913120194   12.807684923
    1.183472454    7.293648808   10.935694491   12.834000620
    1.190651085    7.304233351   10.958025362   12.860076170
    1.197829716    7.315055849   10.980270622   12.886085707
    1.205008347    7.326164594   11.002581115   12.912193327
    1.212186978    7.337617866   11.025110870   12.938563342
    1.219365609    7.349488392   11.048028021   12.965370879
    1.226544240    7.361869351   11.071527658   12.992813921
    1.233722871    7.374882311   11.095847516   13.021127650
    1.240901503    7.388686639   11.121285796   13.050600637
    1.248080134    7.403486039   11.148213352   13.081586575
    1.255258765    7.419512267   11.177044303   13.114482071
    1.262437396    7.436904383   11.208017821   13.149549236
    1.269616027    7.455156961   11.240202010   13.186097629
    1.276794658    7.470930625   11.267543614   13.219231470
    1.283973289    7.471821247   11.267628235   13.230588084
    1.291151920    7.439409252   11.207176445   13.192877522
    1.298330551    7.401966949   11.137098187   13.148267558
    1.305509182    7.398672740   11.127944935   13.155178634
    1.312687813    7.415083332   11.153521777   13.192342258
    1.319866444    7.436393963   11.186929897   13.238020072
    1.327045075    7.458301550   11.220140333   13.286182505
    1.334223706    7.480230755   11.251757702   13.336461616
    1.341402337    7.502543403   11.281985902   13.390003429
    1.348580968    7.525747236   11.311297729   13.448161952
    1.355759599    7.549988894   11.340039321   13.511050421
    1.362938230    7.573565301   11.367962758   13.572358090
    1.370116861    7.587593472   11.392705811   13.600585556
    1.377295492    7.566299221   11.407024459   13.504853433
    1.384474124    7.500597250   11.408421675   13.253051021
    1.391652755    7.460233413   11.416952954   13.090496161
    1.398831386    7.465327668   11.438444973   13.087899682
    1.406010017    7.486792702   11.464620132   13.142832132
    1.413188648    7.510507765   11.491478173   13.205540117
    1.420367279    7.533053598   11.518077175   13.263934494
    1.427545910    7.554039934   11.544338097   13.316588995
    1.434724541    7.573728873   11.570365548   13.364374971
    1.441903172    7.592454301   11.596282623   13.408416516
    1.449081803    7.610500868   11.622197165   13.449662874
    1.456260434    7.628092918   11.648199404   13.488847767
    1.463439065    7.645406355   11.674366113   13.526529305
    1.470617696    7.662582443   11.700765332   13.563136456
    1.477796327    7.679739277   11.727460478   13.599006896
    1.484974958    7.696980768   11.754513866   13.634415506
    1.492153589    7.714403863   11.781989932   13.669595754
    1.499332220    7.732104790   11.809958461   13.704756364
    1.506510851    7.750185058   11.838498204   13.740095297
    1.513689482    7.768757924   11.867701245   13.775812731
    1.520868114    7.787956085   11.897678645   13.812124608
    1.528046745    7.807941498   11.928567988   13.849278316
    1.535225376    7.828918330   11.960543584   13.887572153
    1.542404007    7.851149762   11.993829894   13.927379691
    1.549582638    7.874977281   12.028717158   13.969177097
    1.556761269    7.900831811   12.065571059   14.013558024
    1.563939900    7.929189001   12.104799736   14.061167271
    1.571118531    7.960274193   12.146628194   14.112272923
    1.578297162    7.992741724   12.190081924   14.164859985
    1.585475793    8.018547413   12.229033575   14.207239733
    1.592654424    8.009835366   12.242087885   14.199155819
    1.599833055    7.935476814   12.205354616   14.095589568
    1.607011686    7.867056502   12.174260957   13.999376962
    1.614190317    7.866774837   12.197049114   13.999747096
    1.621368948    7.900357406   12.247578143   14.046869353
    1.628547579    7.942503803   12.306724743   14.103691834
    1.635726210    7.986635562   12.369881923   14.160025077
    1.642904841    8.031980663   12.436780767   14.214303433
    1.650083472    8.077645728   12.505936793   14.266719399
    1.657262104    8.116159407   12.565729088   14.316635446
    1.664440735    8.117279784   12.570025069   14.359493222
    1.671619366    8.028463727   12.438923220   14.386855614
    1.678797997    7.910818955   12.265044305   14.409672029
    1.685976628    7.882640930   12.227843154   14.448657508
    1.693155259    7.912566510   12.279727702   14.498931589
    1.700333890    7.956840188   12.354342051   14.553332315
    1.707512521    8.001074822   12.429912993   14.608818601
    1.714691152    8.039653817   12.497906172   14.660040181
    1.721869783    8.062307595   12.542422230   14.689493264
    1.729048414    8.057653389   12.545882090   14.677070239
    1.736227045    8.052642227   12.550931664   14.668346083
    1.743405676    8.071691042   12.596383840   14.704834594
    1.750584307    8.102323840   12.663294700   14.765176954
    1.757762938    8.134999520   12.737054534   14.832961821
    1.764941569    8.167110873   12.812024733   14.902338542
    1.772120200    8.197847047   12.876978528   14.964452126
    1.779298831    8.225373061   12.891682211   14.988716385
    1.786477462    8.246695164   12.792052670   14.926496841
    1.793656093    8.266662551   12.665836316   14.844601569
    1.800834725    8.292822524   12.653177811   14.849690558
    1.808013356    8.323136501   12.708999051   14.907640978
    1.815191987    8.355129297   12.780997715   14.978805059
    1.822370618    8.387864177   12.853300949   15.050956404
    1.829549249    8.419622928   12.923016384   15.120542538
    1.836727880    8.444907943   12.989814248   15.182676619
    1.843906511    8.459842351   13.053777192   15.233552230
    1.851085142    8.479793767   13.116029374   15.283654602
    1.858263773    8.510674779   13.171049620   15.325674050
    1.865442404    8.543030001   13.211123945   15.339725617
    1.872621035    8.576331024   13.253665243   15.362584838
    1.879799666    8.599987287   13.300126039   15.416841369
    1.886978297    8.576217091   13.310717488   15.469938712
    1.894156928    8.507555644   13.283546617   15.495366146
    1.901335559    8.481434766   13.293879896   15.520321071
    1.908514190    8.505444463   13.342734127   15.561157142
    1.915692821    8.542573355   13.386052606   15.571944133
    1.922871452    8.579613922   13.419493645   15.558238929
    1.930050083    8.619797064   13.474097564   15.590014564
    1.937228715    8.661764829   13.544353301   15.657844506
    1.944407346    8.701474400   13.609292022   15.728139069
    1.951585977    8.734200067   13.644041689   15.777668148
    1.958764608    8.762104135   13.648487887   15.811457057
    1.965943239    8.796052047   13.672889744   15.863006786
    1.973121870    8.837405730   13.734980437   15.934879788
    1.980300501    8.882487395   13.813982394   16.015049951
    1.987479132    8.929365312   13.894123233   16.097989059
    1.994657763    8.976064697   13.957024937   16.180695612
    2.001836394    9.018455793   13.967307147   16.256964998
    2.009015025    9.059198317   13.939324384   16.321571596
    2.016193656    9.110990931   13.961080304   16.372029889
    2.023372287    9.174576137   14.027584288   16.414564627
    2.030550918    9.245588805   14.097465048   16.444534593
    2.037729549    9.319446911   14.151169545   16.426954603
    2.044908180    9.385948573   14.209531594   16.426160021
    2.052086811    9.395933530   14.281460318   16.457955796
    2.059265442    9.272733147   14.349206878   16.444380228
    2.066444073    9.136614667   14.419403569   16.425889360
    2.073622705    9.149986566   14.507827929   16.481391350
    2.080801336    9.251834526   14.608998581   16.578330617
    2.087979967    9.373380429   14.715178219   16.683862474
    2.095158598    9.457751262   14.812150460   16.782475945
    2.102337229    9.379380488   14.857780001   16.851881467
    2.109515860    9.048048635   14.820322449   16.876830806
    2.116694491    8.788327580   14.809306450   16.912093816
    2.123873122    8.767585212   14.863944626   16.978045006
    2.131051753    8.818429423   14.867331513   17.036039595
    2.138230384    8.855530739   14.774965188   17.087051266
    2.145409015    8.915782002   14.754710254   17.161213935
    2.152587646    9.002273968   14.831545669   17.248759118
    2.159766277    9.079924063   14.903361331   17.318784544
    2.166944908    9.121893995   14.925188559   17.377168017
    2.174123539    9.129424104   14.924839157   17.453465997
    2.181302170    9.158992408   14.978283083   17.551811452
    2.188480801    9.220622379   15.088927351   17.661590464
    2.195659432    9.278447977   15.212991183   17.759881918
    2.202838063    9.308750238   15.317338855   17.823328744
    2.210016694    9.336882368   15.368164446   17.868366641
    2.217195326    9.386352735   15.384992153   17.927074277
    2.224373957    9.446449840   15.446564808   18.013592139
    2.231552588    9.493820823   15.525050989   18.069487940
    2.238731219    9.513539389   15.571423152   18.040845102
    2.245909850    9.538579723   15.623937427   18.025596072
    2.253088481    9.584206134   15.702846423   18.067741642
    2.260267112    9.635750689   15.800289673   18.136727992
    2.267445743    9.682027418   15.908103384   18.203670144
    2.274624374    9.732211272   16.026944450   18.288356017
    2.281803005    9.795695431   16.162413103   18.415115509
    2.288981636    9.866526427   16.309773230   18.562960559
    2.296160267    9.941104723   16.466734060   18.719135328
    2.303338898   10.018599823   16.630084772   18.879349405
    2.310517529   10.096222181   16.779272802   19.031664965
    2.317696160   10.161555931   16.834427677   19.129048940
    2.324874791   10.193834602   16.667614841   19.092058718
    2.332053422   10.204336806   16.434717898   18.996526889
    2.339232053   10.180613691   16.365106374   18.965372919
    2.346410684   10.081103599   16.350602635   18.921654325
    2.353589316   10.022527207   16.403429588   18.926500501
    2.360767947   10.060608665   16.537972220   19.034182694
    2.367946578   10.140596525   16.695386612   19.192418699
    2.375125209   10.229690828   16.852498396   19.362421258
    2.382303840   10.322831966   17.016095167   19.537142701
    2.389482471   10.418479602   17.184683487   19.715367212
    2.396661102   10.515702692   17.355504807   19.896665441
    2.403839733   10.611335611   17.526132412   20.076529480
    2.411018364   10.689979797   17.686698444   20.233563182
    2.418196995   10.720165978   17.824813740   20.337336606
    2.425375626   10.718211097   17.952030793   20.426733564
    2.432554257   10.735721038   18.060609598   20.527910198
    2.439732888   10.772951733   18.117970851   20.563817506
    2.446911519   10.816267307   18.125153121   20.533579404
    2.454090150   10.827123158   18.112258011   20.481092920
    2.461268781   10.774800826   18.139647437   20.456124418
    2.468447412   10.719011484   18.259477648   20.514103384
    2.475626043   10.746734278   18.387260413   20.605650494
    2.482804674   10.830880699   18.479925813   20.703599790
    2.489983306   10.921042665   18.553227299   20.800418349
    2.497161937   11.000747318   18.602081227   20.880539383
    2.504340568   11.095049794   18.728369511   21.030451717
    2.511519199   11.207682395   18.937596822   21.251361839
    2.518697830   11.327784498   19.175214435   21.495584646
    2.525876461   11.448931484   19.409503718   21.733376651
    2.533055092   11.560343526   19.597283196   21.915429739
    2.540233723   11.649071939   19.688793595   21.980589224
