# energy grid [eV]     ieps_x  ieps_y  ieps_z
#
    0.200000000    4.384396422    6.775243719    8.316966391
    0.207178631    4.383680569    6.773921569    8.315398481
    0.214357262    4.382939802    6.772553502    8.313776015
    0.221535893    4.382174155    6.771139593    8.312099071
    0.228714524    4.381383661    6.769679915    8.310367725
    0.235893155    4.380568357    6.768174547    8.308582058
    0.243071786    4.379728279    6.766623566    8.306742153
    0.250250417    4.378863467    6.765027056    8.304848095
    0.257429048    4.377973959    6.763385101    8.302899971
    0.264607679    4.377059795    6.761697786    8.300897872
    0.271786311    4.376121017    6.759965201    8.298841890
    0.278964942    4.375157668    6.758187437    8.296732121
    0.286143573    4.374169790    6.756364588    8.294568660
    0.293322204    4.373157429    6.754496748    8.292351609
    0.300500835    4.372120630    6.752584015    8.290081069
    0.307679466    4.371059439    6.750626490    8.287757144
    0.314858097    4.369973905    6.748624275    8.285379942
    0.322036728    4.368864077    6.746577474    8.282949571
    0.329215359    4.367730003    6.744486194    8.280466142
    0.336393990    4.366571736    6.742350544    8.277929770
    0.343572621    4.365389326    6.740170634    8.275340570
    0.350751252    4.364182827    6.737946577    8.272698660
    0.357929883    4.362952293    6.735678490    8.270004162
    0.365108514    4.361697779    6.733366488    8.267257198
    0.372287145    4.360419341    6.731010692    8.264457893
    0.379465776    4.359117035    6.728611223    8.261606374
    0.386644407    4.357790920    6.726168203    8.258702770
    0.393823038    4.356441055    6.723681760    8.255747214
    0.401001669    4.355067499    6.721152020    8.252739839
    0.408180301    4.353670313    6.718579113    8.249680781
    0.415358932    4.352249560    6.715963170    8.246570178
    0.422537563    4.350805301    6.713304325    8.243408171
    0.429716194    4.349337602    6.710602714    8.240194902
    0.436894825    4.347846525    6.707858473    8.236930515
    0.444073456    4.346332138    6.705071741    8.233615157
    0.451252087    4.344794507    6.702242661    8.230248977
    0.458430718    4.343233699    6.699371374    8.226832124
    0.465609349    4.341649783    6.696458027    8.223364753
    0.472787980    4.340042827    6.693502765    8.219847018
    0.479966611    4.338412903    6.690505737    8.216279075
    0.487145242    4.336760081    6.687467093    8.212661083
    0.494323873    4.335084433    6.684386986    8.208993203
    0.501502504    4.333386032    6.681265568    8.205275597
    0.508681135    4.331664952    6.678102997    8.201508430
    0.515859766    4.329921268    6.674899428    8.197691869
    0.523038397    4.328155054    6.671655022    8.193826082
    0.530217028    4.326366388    6.668369938    8.189911238
    0.537395659    4.324555346    6.665044339    8.185947511
    0.544574290    4.322722007    6.661678388    8.181935073
    0.551752922    4.320866448    6.658272252    8.177874102
    0.558931553    4.318988751    6.654826098    8.173764773
    0.566110184    4.317088994    6.651340093    8.169607267
    0.573288815    4.315167260    6.647814408    8.165401765
    0.580467446    4.313223630    6.644249215    8.161148449
    0.587646077    4.311258187    6.640644688    8.156847504
    0.594824708    4.309271015    6.637001000    8.152499116
    0.602003339    4.307262198    6.633318328    8.148103473
    0.609181970    4.305231820    6.629596850    8.143660764
    0.616360601    4.303179969    6.625836744    8.139171181
    0.623539232    4.301106729    6.622038192    8.134634917
    0.630717863    4.299012189    6.618201374    8.130052166
    0.637896494    4.296896437    6.614326473    8.125423123
    0.645075125    4.294759560    6.610413676    8.120747987
    0.652253756    4.292601649    6.606463166    8.116026957
    0.659432387    4.290422794    6.602475131    8.111260233
    0.666611018    4.288223085    6.598449759    8.106448016
    0.673789649    4.286002613    6.594387240    8.101590512
    0.680968280    4.283761471    6.590287764    8.096687924
    0.688146912    4.281499752    6.586151524    8.091740460
    0.695325543    4.279217549    6.581978713    8.086748327
    0.702504174    4.276914955    6.577769523    8.081711734
    0.709682805    4.274592066    6.573524152    8.076630892
    0.716861436    4.272248976    6.569242795    8.071506013
    0.724040067    4.269885782    6.564925650    8.066337310
    0.731218698    4.267502580    6.560572916    8.061124998
    0.738397329    4.265099466    6.556184791    8.055869293
    0.745575960    4.262676540    6.551761477    8.050570412
    0.752754591    4.260233898    6.547303176    8.045228573
    0.759933222    4.257771639    6.542810089    8.039843995
    0.767111853    4.255289864    6.538282420    8.034416901
    0.774290484    4.252788671    6.533720373    8.028947511
    0.781469115    4.250268160    6.529124155    8.023436048
    0.788647746    4.247728434    6.524493970    8.017882738
    0.795826377    4.245169592    6.519830027    8.012287805
    0.803005008    4.242591738    6.515132532    8.006651476
    0.810183639    4.239994973    6.510401695    8.000973978
    0.817362270    4.237379400    6.505637725    7.995255540
    0.824540902    4.234745122    6.500840832    7.989496392
    0.831719533    4.232092244    6.496011227    7.983696764
    0.838898164    4.229420870    6.491149121    7.977856887
    0.846076795    4.226731104    6.486254728    7.971976995
    0.853255426    4.224023051    6.481328259    7.966057320
    0.860434057    4.221296817    6.476369929    7.960098098
    0.867612688    4.218552507    6.471379952    7.954099563
    0.874791319    4.215790229    6.466358543    7.948061951
    0.881969950    4.213010089    6.461305917    7.941985500
    0.889148581    4.210212194    6.456222290    7.935870448
    0.896327212    4.207396652    6.451107879    7.929717032
    0.903505843    4.204563570    6.445962900    7.923525493
    0.910684474    4.201713056    6.440787573    7.917296071
    0.917863105    4.198845220    6.435582113    7.911029006
    0.925041736    4.195960170    6.430346741    7.904724540
    0.932220367    4.193058016    6.425081674    7.898382916
    0.939398998    4.190138867    6.419787133    7.892004377
    0.946577629    4.187202832    6.414463337    7.885589166
    0.953756260    4.184250023    6.409110506    7.879137527
    0.960934891    4.181280549    6.403728861    7.872649706
    0.968113523    4.178294522    6.398318622    7.866125948
    0.975292154    4.175292052    6.392880011    7.859566500
    0.982470785    4.172273251    6.387413249    7.852971607
    0.989649416    4.169238229    6.381918557    7.846341518
    0.996828047    4.166187100    6.376396157    7.839676479
    1.004006678    4.163119975    6.370846273    7.832976739
    1.011185309    4.160036966    6.365269125    7.826242547
    1.018363940    4.156938186    6.359664937    7.819474152
    1.025542571    4.153823747    6.354033931    7.812671803
    1.032721202    4.150693763    6.348376330    7.805835750
    1.039899833    4.147548346    6.342692357    7.798966244
    1.047078464    4.144387609    6.336982235    7.792063535
    1.054257095    4.141211667    6.331246188    7.785127875
    1.061435726    4.138020632    6.325484438    7.778159514
    1.068614357    4.134814619    6.319697210    7.771158705
    1.075792988    4.131593740    6.313884725    7.764125699
    1.082971619    4.128358111    6.308047209    7.757060748
    1.090150250    4.125107846    6.302184883    7.749964106
    1.097328881    4.121843058    6.296297972    7.742836024
    1.104507513    4.118563862    6.290386699    7.735676756
    1.111686144    4.115270372    6.284451287    7.728486555
    1.118864775    4.111962704    6.278491959    7.721265674
    1.126043406    4.108640971    6.272508938    7.714014367
    1.133222037    4.105305289    6.266502449    7.706732887
    1.140400668    4.101955772    6.260472712    7.699421487
    1.147579299    4.098592535    6.254419952    7.692080423
    1.154757930    4.095215693    6.248344390    7.684709946
    1.161936561    4.091825361    6.242246249    7.677310312
    1.169115192    4.088421653    6.236125752    7.669881774
    1.176293823    4.085004686    6.229983120    7.662424587
    1.183472454    4.081574574    6.223818576    7.654939004
    1.190651085    4.078131432    6.217632340    7.647425279
    1.197829716    4.074675375    6.211424635    7.639883666
    1.205008347    4.071206517    6.205195681    7.632314419
    1.212186978    4.067724975    6.198945699    7.624717792
    1.219365609    4.064230863    6.192674910    7.617094038
    1.226544240    4.060724296    6.186383533    7.609443412
    1.233722871    4.057205389    6.180071789    7.601766166
    1.240901503    4.053674257    6.173739897    7.594062554
    1.248080134    4.050131015    6.167388076    7.586332830
    1.255258765    4.046575776    6.161016546    7.578577246
    1.262437396    4.043008658    6.154625524    7.570796055
    1.269616027    4.039429773    6.148215228    7.562989510
    1.276794658    4.035839236    6.141785877    7.555157863
    1.283973289    4.032237162    6.135337687    7.547301367
    1.291151920    4.028623665    6.128870874    7.539420273
    1.298330551    4.024998859    6.122385657    7.531514833
    1.305509182    4.021362860    6.115882249    7.523585298
    1.312687813    4.017715779    6.109360866    7.515631921
    1.319866444    4.014057732    6.102821724    7.507654950
    1.327045075    4.010388833    6.096265037    7.499654638
    1.334223706    4.006709194    6.089691018    7.491631234
    1.341402337    4.003018930    6.083099881    7.483584987
    1.348580968    3.999318153    6.076491839    7.475516147
    1.355759599    3.995606977    6.069867103    7.467424964
    1.362938230    3.991885515    6.063225886    7.459311685
    1.370116861    3.988153880    6.056568399    7.451176560
    1.377295492    3.984412184    6.049894852    7.443019835
    1.384474124    3.980660540    6.043205454    7.434841758
    1.391652755    3.976899060    6.036500416    7.426642575
    1.398831386    3.973127856    6.029779947    7.418422534
    1.406010017    3.969347041    6.023044253    7.410181881
    1.413188648    3.965556725    6.016293543    7.401920859
    1.420367279    3.961757020    6.009528023    7.393639716
    1.427545910    3.957948038    6.002747899    7.385338694
    1.434724541    3.954129889    5.995953378    7.377018037
    1.441903172    3.950302685    5.989144663    7.368677989
    1.449081803    3.946466535    5.982321959    7.360318794
    1.456260434    3.942621550    5.975485470    7.351940691
    1.463439065    3.938767841    5.968635397    7.343543924
    1.470617696    3.934905516    5.961771944    7.335128734
    1.477796327    3.931034686    5.954895310    7.326695359
    1.484974958    3.927155460    5.948005698    7.318244042
    1.492153589    3.923267946    5.941103306    7.309775019
    1.499332220    3.919372254    5.934188334    7.301288531
    1.506510851    3.915468491    5.927260980    7.292784814
    1.513689482    3.911556767    5.920321441    7.284264105
    1.520868114    3.907637188    5.913369915    7.275726642
    1.528046745    3.903709863    5.906406597    7.267172660
    1.535225376    3.899774898    5.899431683    7.258602394
    1.542404007    3.895832401    5.892445367    7.250016079
    1.549582638    3.891882478    5.885447843    7.241413947
    1.556761269    3.887925236    5.878439304    7.232796232
    1.563939900    3.883960780    5.871419940    7.224163166
    1.571118531    3.879989217    5.864389945    7.215514981
    1.578297162    3.876010651    5.857349508    7.206851906
    1.585475793    3.872025187    5.850298819    7.198174173
    1.592654424    3.868032931    5.843238066    7.189482010
    1.599833055    3.864033987    5.836167437    7.180775645
    1.607011686    3.860028458    5.829087120    7.172055306
    1.614190317    3.856016448    5.821997301    7.163321219
    1.621368948    3.851998061    5.814898164    7.154573611
    1.628547579    3.847973399    5.807789895    7.145812707
    1.635726210    3.843942565    5.800672677    7.137038731
    1.642904841    3.839905661    5.793546692    7.128251906
    1.650083472    3.835862789    5.786412123    7.119452454
    1.657262104    3.831814051    5.779269150    7.110640599
    1.664440735    3.827759547    5.772117954    7.101816559
    1.671619366    3.823699378    5.764958714    7.092980556
    1.678797997    3.819633645    5.757791607    7.084132809
    1.685976628    3.815562447    5.750616812    7.075273536
    1.693155259    3.811485885    5.743434505    7.066402953
    1.700333890    3.807404056    5.736244861    7.057521278
    1.707512521    3.803317060    5.729048056    7.048628726
    1.714691152    3.799224995    5.721844262    7.039725512
    1.721869783    3.795127960    5.714633652    7.030811850
    1.729048414    3.791026051    5.707416400    7.021887951
    1.736227045    3.786919365    5.700192674    7.012954029
    1.743405676    3.782808000    5.692962647    7.004010293
    1.750584307    3.778692052    5.685726486    6.995056955
    1.757762938    3.774571617    5.678484360    6.986094223
    1.764941569    3.770446789    5.671236436    6.977122304
    1.772120200    3.766317665    5.663982880    6.968141407
    1.779298831    3.762184338    5.656723858    6.959151738
    1.786477462    3.758046903    5.649459535    6.950153501
    1.793656093    3.753905454    5.642190073    6.941146900
    1.800834725    3.749760083    5.634915635    6.932132140
    1.808013356    3.745610884    5.627636383    6.923109422
    1.815191987    3.741457950    5.620352477    6.914078948
    1.822370618    3.737301372    5.613064078    6.905040918
    1.829549249    3.733141241    5.605771343    6.895995530
    1.836727880    3.728977649    5.598474431    6.886942985
    1.843906511    3.724810687    5.591173498    6.877883478
    1.851085142    3.720640445    5.583868700    6.868817206
    1.858263773    3.716467012    5.576560193    6.859744364
    1.865442404    3.712290478    5.569248129    6.850665147
    1.872621035    3.708110932    5.561932663    6.841579747
    1.879799666    3.703928461    5.554613945    6.832488358
    1.886978297    3.699743155    5.547292127    6.823391170
    1.894156928    3.695555100    5.539967360    6.814288372
    1.901335559    3.691364384    5.532639791    6.805180156
    1.908514190    3.687171093    5.525309570    6.796066708
    1.915692821    3.682975313    5.517976844    6.786948215
    1.922871452    3.678777131    5.510641758    6.777824864
    1.930050083    3.674576630    5.503304458    6.768696839
    1.937228715    3.670373896    5.495965088    6.759564325
    1.944407346    3.666169013    5.488623792    6.750427504
    1.951585977    3.661962064    5.481280712    6.741286558
    1.958764608    3.657753134    5.473935989    6.732141668
    1.965943239    3.653542305    5.466589764    6.722993013
    1.973121870    3.649329659    5.459242176    6.713840773
    1.980300501    3.645115278    5.451893363    6.704685125
    1.987479132    3.640899244    5.444543464    6.695526245
    1.994657763    3.636681638    5.437192615    6.686364309
    2.001836394    3.632462539    5.429840950    6.677199491
    2.009015025    3.628242029    5.422488606    6.668031964
    2.016193656    3.624020186    5.415135716    6.658861902
    2.023372287    3.619797089    5.407782411    6.649689475
    2.030550918    3.615572818    5.400428825    6.640514853
    2.037729549    3.611347449    5.393075088    6.631338205
    2.044908180    3.607121062    5.385721330    6.622159700
    2.052086811    3.602893732    5.378367680    6.612979505
    2.059265442    3.598665537    5.371014265    6.603797784
    2.066444073    3.594436553    5.363661212    6.594614704
    2.073622705    3.590206855    5.356308649    6.585430427
    2.080801336    3.585976518    5.348956699    6.576245117
    2.087979967    3.581745618    5.341605487    6.567058935
    2.095158598    3.577514228    5.334255136    6.557872042
    2.102337229    3.573282423    5.326905769    6.548684597
    2.109515860    3.569050275    5.319557506    6.539496758
    2.116694491    3.564817857    5.312210468    6.530308684
    2.123873122    3.560585242    5.304864775    6.521120529
    2.131051753    3.556352501    5.297520545    6.511932450
    2.138230384    3.552119707    5.290177896    6.502744600
    2.145409015    3.547886928    5.282836943    6.493557132
    2.152587646    3.543654237    5.275497804    6.484370199
    2.159766277    3.539421703    5.268160592    6.475183951
    2.166944908    3.535189395    5.260825422    6.465998538
    2.174123539    3.530957382    5.253492407    6.456814110
    2.181302170    3.526725733    5.246161658    6.447630813
    2.188480801    3.522494516    5.238833286    6.438448794
    2.195659432    3.518263798    5.231507403    6.429268200
    2.202838063    3.514033646    5.224184116    6.420089174
    2.210016694    3.509804127    5.216863535    6.410911859
    2.217195326    3.505575307    5.209545767    6.401736400
    2.224373957    3.501347251    5.202230918    6.392562936
    2.231552588    3.497120025    5.194919094    6.383391607
    2.238731219    3.492893693    5.187610400    6.374222555
    2.245909850    3.488668319    5.180304940    6.365055915
    2.253088481    3.484443967    5.173002816    6.355891827
    2.260267112    3.480220700    5.165704131    6.346730425
    2.267445743    3.475998581    5.158408986    6.337571845
    2.274624374    3.471777673    5.151117481    6.328416220
    2.281803005    3.467558036    5.143829716    6.319263684
    2.288981636    3.463339732    5.136545789    6.310114369
    2.296160267    3.459122823    5.129265798    6.300968406
    2.303338898    3.454907367    5.121989839    6.291825924
    2.310517529    3.450693427    5.114718009    6.282687052
    2.317696160    3.446481060    5.107450402    6.273551918
    2.324874791    3.442270326    5.100187113    6.264420649
    2.332053422    3.438061283    5.092928236    6.255293370
    2.339232053    3.433853989    5.085673861    6.246170207
    2.346410684    3.429648502    5.078424082    6.237051282
    2.353589316    3.425444879    5.071178989    6.227936719
    2.360767947    3.421243177    5.063938672    6.218826639
    2.367946578    3.417043451    5.056703220    6.209721163
    2.375125209    3.412845758    5.049472721    6.200620410
    2.382303840    3.408650153    5.042247263    6.191524499
    2.389482471    3.404456690    5.035026932    6.182433548
    2.396661102    3.400265424    5.027811814    6.173347673
    2.403839733    3.396076409    5.020601994    6.164266989
    2.411018364    3.391889698    5.013397557    6.155191612
    2.418196995    3.387705344    5.006198584    6.146121655
    2.425375626    3.383523400    4.999005159    6.137057231
    2.432554257    3.379343918    4.991817364    6.127998451
    2.439732888    3.375166950    4.984635279    6.118945426
    2.446911519    3.370992546    4.977458985    6.109898265
    2.454090150    3.366820757    4.970288560    6.100857078
    2.461268781    3.362651635    4.963124084    6.091821972
    2.468447412    3.358485227    4.955965633    6.082793053
    2.475626043    3.354321585    4.948813285    6.073770428
    2.482804674    3.350160757    4.941667116    6.064754201
    2.489983306    3.346002791    4.934527200    6.055744476
    2.497161937    3.341847736    4.927393614    6.046741356
    2.504340568    3.337695639    4.920266430    6.037744943
    2.511519199    3.333546548    4.913145722    6.028755338
    2.518697830    3.329400509    4.906031561    6.019772640
    2.525876461    3.325257568    4.898924020    6.010796950
    2.533055092    3.321117772    4.891823168    6.001828365
    2.540233723    3.316981166    4.884729076    5.992866983
