# energy grid [eV]     epsr_x  epsr_y  epsr_z
#
    0.200000000   14.262684184   18.711145684   19.148894943
    0.207178631   14.266807742   18.716804990   19.155366938
    0.214357262   14.271084514   18.722673864   19.162088413
    0.221535893   14.275515392   18.728753464   19.169061990
    0.228714524   14.280101312   18.735045014   19.176290459
    0.235893155   14.284843255   18.741549799   19.183776800
    0.243071786   14.289742256   18.748269179   19.191524190
    0.250250417   14.294799396   18.755204582   19.199536021
    0.257429048   14.300015816   18.762357519   19.207815916
    0.264607679   14.305392708   18.769729581   19.216367746
    0.271786311   14.310931327   18.777322447   19.225195656
    0.278964942   14.316632989   18.785137889   19.234304082
    0.286143573   14.322499079   18.793177781   19.243697782
    0.293322204   14.328531047   18.801444103   19.253381862
    0.300500835   14.334730420   18.809938951   19.263361810
    0.307679466   14.341098802   18.818664543   19.273643533
    0.314858097   14.347637880   18.827623233   19.284233398
    0.322036728   14.354349429   18.836817518   19.295138277
    0.329215359   14.361235319   18.846250054   19.306365605
    0.336393990   14.368297516   18.855923668   19.317923437
    0.343572621   14.375538098   18.865841372   19.329820517
    0.350751252   14.382959254   18.876006387   19.342066359
    0.357929883   14.390563298   18.886422158   19.354671335
    0.365108514   14.398352674   18.897092377   19.367646784
    0.372287145   14.406329969   18.908021017   19.381005129
    0.379465776   14.414497926   18.919212355   19.394760018
    0.386644407   14.422859453   18.930671011   19.408926489
    0.393823038   14.431417639   18.942401992   19.423521163
    0.401001669   14.440175771   18.954410740   19.438562466
    0.408180301   14.449137349   18.966703184   19.454070898
    0.415358932   14.458306113   18.979285817   19.470069345
    0.422537563   14.467686058   18.992165769   19.486583462
    0.429716194   14.477281465   19.005350908   19.503642122
    0.436894825   14.487096933   19.018849950   19.521277960
    0.444073456   14.497137409   19.032672604   19.539528041
    0.451252087   14.507408231   19.046829740   19.558434667
    0.458430718   14.517915176   19.061333596   19.578046376
    0.465609349   14.528664509   19.076198037   19.598419181
    0.472787980   14.539663054   19.091438876   19.619618111
    0.479966611   14.550918263   19.107074278   19.641719167
    0.487145242   14.562438313   19.123125271   19.664811792
    0.494323873   14.574232208   19.139616400   19.689002059
    0.501502504   14.586309912   19.156576582   19.714416790
    0.508681135   14.598682514   19.174040210   19.741208958
    0.515859766   14.611362420   19.192048627   19.769564853
    0.523038397   14.624363610   19.210652094   19.799713680
    0.530217028   14.637701945   19.229912463   19.831940589
    0.537395659   14.651395580   19.249906839   19.866604576
    0.544574290   14.665465490   19.270732679   19.904163360
    0.551752922   14.679936169   19.292514930   19.945208276
    0.558931553   14.694836560   19.315416105   19.990513496
    0.566110184   14.710201311   19.339650412   20.041105092
    0.573288815   14.726072417   19.365503009   20.098355158
    0.580467446   14.742501281   19.393353808   20.164098172
    0.587646077   14.759550694   19.423697281   20.240727927
    0.594824708   14.777294420   19.457117380   20.331075369
    0.602003339   14.795804539   19.494048789   20.437243271
    0.609181970   14.815086931   19.533647259   20.555090844
    0.616360601   14.834813859   19.569192459   20.651787443
    0.623539232   14.853471991   19.573515042   20.594656448
    0.630717863   14.868029395   19.493250232   20.123118106
    0.637896494   14.881161825   19.371899039   19.449580691
    0.645075125   14.900376514   19.334761309   19.185874440
    0.652253756   14.924622067   19.360540665   19.228039260
    0.659432387   14.951436690   19.402909497   19.349914825
    0.666611018   14.980238843   19.446221558   19.475187005
    0.673789649   15.011292436   19.487361216   19.588775353
    0.680968280   15.045196431   19.526366537   19.691066777
    0.688146912   15.082779590   19.563888225   19.785529445
    0.695325543   15.125079203   19.600598640   19.875832240
    0.702504174   15.173167495   19.637067679   19.965148285
    0.709682805   15.227195691   19.673674441   20.055217601
    0.716861436   15.282240911   19.710229301   20.142312253
    0.724040067   15.312692767   19.744484866   20.201745290
    0.731218698   15.238324552   19.768868320   20.154057232
    0.738397329   15.003360658   19.778152110   19.944065885
    0.745575960   14.823746267   19.793410467   19.787937288
    0.752754591   14.806862030   19.825200819   19.793303135
    0.759933222   14.856413631   19.864360935   19.864266532
    0.767111853   14.917359675   19.905735672   19.946108704
    0.774290484   14.975580088   19.948153127   20.024972767
    0.781469115   15.029161866   19.991653678   20.099191101
    0.788647746   15.078928885   20.036585154   20.169837944
    0.795826377   15.126092921   20.083391540   20.238397651
    0.803005008   15.171755172   20.132586637   20.306284693
    0.810183639   15.216856844   20.184779365   20.374817262
    0.817362270   15.262229817   20.240719437   20.445297771
    0.824540902   15.308662311   20.301355407   20.519115480
    0.831719533   15.356956681   20.367890902   20.597839827
    0.838898164   15.407953044   20.441774011   20.683233422
    0.846076795   15.462416862   20.524347367   20.776894784
    0.853255426   15.520373915   20.615060212   20.878356785
    0.860434057   15.578266593   20.703971291   20.977070965
    0.867612688   15.619117884   20.745909659   21.024758042
    0.874791319   15.600932031   20.630008117   20.902803722
    0.881969950   15.532776320   20.379268394   20.635849201
    0.889148581   15.524547196   20.281076136   20.531477467
    0.896327212   15.581405119   20.347824086   20.602931566
    0.903505843   15.662545247   20.471014890   20.734043052
    0.910684474   15.752846116   20.609123902   20.880292701
    0.917863105   15.850613063   20.755313344   21.034258642
    0.925041736   15.958136408   20.912579116   21.199051486
    0.932220367   16.078742677   21.086282396   21.380487743
    0.939398998   16.214583076   21.280210271   21.583564646
    0.946577629   16.359444534   21.486087999   21.803979529
    0.953756260   16.472818914   21.646190158   21.997645164
    0.960934891   16.434814032   21.587424106   22.023118669
    0.968113523   16.196063746   21.229189195   21.778061781
    0.975292154   15.953380107   20.818037067   21.315616776
    0.982470785   15.626384840   20.197740977   20.345606669
    0.989649416   15.363761620   19.667033020   19.446428671
    0.996828047   15.349360258   19.586738280   19.261003075
    1.004006678   15.319246532   19.579700319   19.385785038
    1.011185309   15.150914396   19.439638349   19.527733067
    1.018363940   15.111162245   19.425244358   19.692295704
    1.025542571   15.243984656   19.578423324   19.880817733
    1.032721202   15.435795211   19.779110175   20.062766137
    1.039899833   15.640009875   19.978869523   20.229175636
    1.047078464   15.844472400   20.169118848   20.381029354
    1.054257095   16.024966689   20.345171094   20.517236133
    1.061435726   16.084155839   20.479601929   20.622564024
    1.068614357   15.851368966   20.504958386   20.668205249
    1.075792988   15.471518937   20.394433874   20.684118393
    1.082971619   15.195092492   20.158786652   20.714168736
    1.090150250   15.044327569   19.930343994   20.762808544
    1.097328881   15.094694966   19.914864777   20.847090383
    1.104507513   15.195464948   20.019885682   20.929433415
    1.111686144   15.179378876   20.142188600   20.957139110
    1.118864775   15.092936622   20.251470913   20.937816447
    1.126043406   15.092935688   20.352143818   20.942266738
    1.133222037   15.191874976   20.453759897   21.007238688
    1.140400668   15.329376117   20.554808666   21.104309382
    1.147579299   15.471050996   20.653339844   21.209298680
    1.154757930   15.609677948   20.750001944   21.315899345
    1.161936561   15.745998057   20.845836264   21.423422435
    1.169115192   15.878826583   20.939712931   21.528850611
    1.176293823   15.991998213   21.021469682   21.614224321
    1.183472454   16.032701065   21.059347348   21.625136616
    1.190651085   15.981722183   21.041383372   21.540689057
    1.197829716   15.991259811   21.056820898   21.511499944
    1.205008347   16.100978691   21.130825536   21.582383807
    1.212186978   16.206121743   21.212038035   21.678762000
    1.219365609   16.147172789   21.238406893   21.733387237
    1.226544240   15.840370391   21.179508296   21.717398419
    1.233722871   15.634447222   21.153667916   21.729378115
    1.240901503   15.679566196   21.211675954   21.812976825
    1.248080134   15.815845024   21.297697891   21.924910819
    1.255258765   15.934811378   21.370619702   22.037811465
    1.262437396   16.003057342   21.417260151   22.141143362
    1.269616027   16.087534735   21.473059698   22.232473725
    1.276794658   16.201395708   21.550912658   22.276275526
    1.283973289   16.316419081   21.636272096   22.265115439
    1.291151920   16.465887721   21.724814540   22.308632405
    1.298330551   16.643780568   21.814909243   22.424127619
    1.305509182   16.771300965   21.901418830   22.560866549
    1.312687813   16.636421004   21.969746192   22.673183694
    1.319866444   16.025543922   22.005186458   22.729327549
    1.327045075   15.470451089   22.047096636   22.804868307
    1.334223706   15.387562107   22.126627543   22.950012460
    1.341402337   15.520122426   22.226492785   23.079001857
    1.348580968   15.678563556   22.334906200   23.003616748
    1.355759599   15.805087044   22.449470326   22.586201514
    1.362938230   15.922059245   22.570160035   22.257054064
    1.370116861   16.043826435   22.691667731   22.241838141
    1.377295492   16.154475358   22.795032169   22.324068838
    1.384474124   16.259744838   22.857139232   22.448711530
    1.391652755   16.365818226   22.904445276   22.609296029
    1.398831386   16.452756224   22.916518072   22.733114857
    1.406010017   16.475427212   22.728612631   22.739283756
    1.413188648   16.463584231   22.449498805   22.716242898
    1.420367279   16.514367842   22.399559815   22.806265810
    1.427545910   16.609280526   22.504928666   22.961426143
    1.434724541   16.703174310   22.625667162   23.115632488
    1.441903172   16.782931831   22.737173086   23.228469883
    1.449081803   16.840497948   22.844176750   23.255743273
    1.456260434   16.894098976   22.943880972   23.244722772
    1.463439065   16.976904190   23.054697977   23.271410594
    1.470617696   17.092052617   23.191741725   23.337468736
    1.477796327   17.230691313   23.357147199   23.460349048
    1.484974958   17.384008717   23.541573802   23.635810739
    1.492153589   17.533956655   23.713024866   23.815507932
    1.499332220   17.619002019   23.780427600   23.922122795
    1.506510851   17.504231629   23.608394213   23.851619515
    1.513689482   17.169873735   23.319087336   23.687454966
    1.520868114   16.915259186   23.193777138   23.616660967
    1.528046745   16.856644636   23.233972953   23.617299563
    1.535225376   16.941268665   23.383098273   23.716146086
    1.542404007   17.102987692   23.591561825   23.901023146
    1.549582638   17.260704023   23.784708843   24.112805434
    1.556761269   17.329800286   23.857903148   24.317896918
    1.563939900   17.266546978   23.753499875   24.485271035
    1.571118531   17.199287802   23.643734590   24.568661951
    1.578297162   17.201551758   23.579214074   24.548994056
    1.585475793   17.290589535   23.577451236   24.519825473
    1.592654424   17.426862652   23.640065279   24.488476834
    1.599833055   17.576375606   23.748610263   24.511123932
    1.607011686   17.719465007   23.912404096   24.666576361
    1.614190317   17.793124939   24.071739398   24.812371650
    1.621368948   17.722678764   24.170663603   24.762701704
    1.628547579   17.641318082   24.250751523   24.557335129
    1.635726210   17.690269086   24.371790251   24.440040899
    1.642904841   17.819644368   24.530285289   24.494919278
    1.650083472   17.985975478   24.719242372   24.694362454
    1.657262104   18.166108984   24.924569966   24.948856712
    1.664440735   18.343963990   25.137761573   25.204635458
    1.671619366   18.479686830   25.345074457   25.411723216
    1.678797997   18.485415618   25.508582949   25.491853854
    1.685976628   18.373310960   25.613268298   25.514999395
    1.693155259   18.340332333   25.742426741   25.656582731
    1.700333890   18.412017217   25.875570201   25.829197155
    1.707512521   18.379592688   25.777015767   25.829107868
    1.714691152   18.170075000   25.397759983   25.663645668
    1.721869783   18.092892041   25.225755753   25.627483849
    1.729048414   18.223239290   25.379300353   25.785466428
    1.736227045   18.419964977   25.649764142   26.026585250
    1.743405676   18.575621664   25.848070984   26.155075382
    1.750584307   18.612396097   25.825139859   26.048166633
    1.757762938   18.616942936   25.753192455   25.948750824
    1.764941569   18.706277981   25.863403613   26.001112003
    1.772120200   18.799356165   26.055497821   26.088474180
    1.779298831   18.825253929   26.265757227   26.157028189
    1.786477462   18.882940148   26.482437539   26.207361670
    1.793656093   19.018516326   26.645903677   26.199453239
    1.800834725   19.171269727   26.756896101   26.197430747
    1.808013356   19.315839913   26.770750082   26.315457121
    1.815191987   19.344801593   26.630262190   26.528420327
    1.822370618   19.117402704   26.454000452   26.710051676
    1.829549249   18.769948735   26.246398511   26.799476706
    1.836727880   18.661525290   26.181497863   26.914346774
    1.843906511   18.794413011   26.265418919   27.079569024
    1.851085142   19.014195793   26.373333852   27.233284301
    1.858263773   19.241061486   26.587930132   27.434043668
    1.865442404   19.433901060   26.882373534   27.652787162
    1.872621035   19.580913603   27.154503189   27.820895134
    1.879799666   19.691751919   27.397093519   27.982146043
    1.886978297   19.732652679   27.555160676   28.108199817
    1.894156928   19.799107749   27.684871099   28.186290192
    1.901335559   19.944465401   27.656161613   28.027071299
    1.908514190   20.103019912   27.324479592   27.687178208
    1.915692821   20.265448260   27.053199530   27.670395945
    1.922871452   20.416002009   27.083203999   27.934482744
    1.930050083   20.523995026   27.236855365   28.215523035
    1.937228715   20.620915823   27.320095476   28.377067967
    1.944407346   20.773247342   27.455907208   28.534766678
    1.951585977   20.976494274   27.751776732   28.724354263
    1.958764608   21.138947192   28.031724216   28.794097364
    1.965943239   21.225872018   28.235380882   28.828355465
    1.973121870   21.162185257   28.381902068   28.865867832
    1.980300501   20.976622224   28.460186102   28.967102438
    1.987479132   20.922219225   28.351489077   29.230678436
    1.994657763   21.096873587   28.108327384   29.462987511
    2.001836394   21.288192234   28.134892914   29.545910359
    2.009015025   21.225471165   28.278959232   29.579031719
    2.016193656   20.850380647   28.320776761   29.533884125
    2.023372287   20.674314133   28.467793504   29.477967874
    2.030550918   20.825163569   28.791255813   29.550895745
    2.037729549   21.140810179   29.199033397   29.863051152
    2.044908180   21.547227027   29.643415758   30.339510943
    2.052086811   21.990913054   30.085084999   30.874793993
    2.059265442   22.387685535   30.475414103   31.395554221
    2.066444073   22.624464988   30.742961158   31.769029501
    2.073622705   22.629515399   30.754949221   31.735369661
    2.080801336   22.402959758   30.449197610   31.237202634
    2.087979967   22.082988071   30.219070087   30.828617383
    2.095158598   21.662058807   30.236045041   30.609174782
    2.102337229   21.283544786   30.194810521   30.497861746
    2.109515860   21.077327353   30.154944734   30.584995284
    2.116694491   21.060038596   30.381717621   30.889536442
    2.123873122   20.898625503   30.647309007   31.181925555
    2.131051753   20.575489469   30.864137097   31.380241765
    2.138230384   20.648070893   31.218797651   31.724353002
    2.145409015   20.900015898   31.423696394   32.052045013
    2.152587646   20.884532672   31.064140882   32.078102836
    2.159766277   20.782576663   30.600154946   32.032646303
    2.166944908   20.958930248   30.679828837   32.266072152
    2.174123539   21.235542263   31.042680296   32.536698351
    2.181302170   21.357214998   31.281319715   32.417527167
    2.188480801   21.420541072   31.513821843   32.301369521
    2.195659432   21.670789934   31.972411667   32.617707514
    2.202838063   21.969365217   32.458799878   33.017885365
    2.210016694   22.210996453   32.804691149   33.254262368
    2.217195326   22.342644150   32.972772809   33.486191589
    2.224373957   22.407787775   32.911357554   33.724062071
    2.231552588   22.345055633   32.465091216   33.696683178
    2.238731219   22.103490954   32.067319321   33.537343441
    2.245909850   21.930273606   32.236950273   33.675499318
    2.253088481   22.035537102   32.673067831   34.094849386
    2.260267112   22.145214178   32.958307165   34.416395732
    2.267445743   22.239870943   33.038037879   34.464979219
    2.274624374   22.388375295   33.044746195   34.404038478
    2.281803005   22.515668009   33.082520807   34.453946573
    2.288981636   22.574463964   33.069773793   34.531966747
    2.296160267   22.664922725   33.205343237   34.818311142
    2.303338898   22.805616164   33.511207840   35.287938345
    2.310517529   23.024662926   33.890869603   35.639231870
    2.317696160   23.349190897   34.338536063   35.881159655
    2.324874791   23.688470174   34.820104719   36.198810995
    2.332053422   23.920888893   35.181563679   36.397876468
    2.339232053   24.056318899   35.368548197   36.454090007
    2.346410684   24.204016085   35.511421431   36.553821542
    2.353589316   24.367638958   35.670243182   36.736929887
    2.360767947   24.584484210   35.981967761   37.096802126
    2.367946578   24.849283262   36.466862975   37.667415767
    2.375125209   25.091046506   37.009981098   38.319856181
    2.382303840   25.399323926   37.575824927   39.013439270
    2.389482471   25.757853604   38.119553758   39.680115751
    2.396661102   25.997273802   38.615900966   40.199052085
    2.403839733   25.986926108   39.068395017   40.527739458
    2.411018364   25.894275543   39.513599126   40.864213131
    2.418196995   25.906110025   40.005624678   41.226466738
    2.425375626   25.973169093   40.432216541   41.361558666
    2.432554257   26.055116807   40.785005498   41.298722706
    2.439732888   26.298064392   41.264070415   41.637587071
    2.446911519   26.648871636   41.784760379   42.327906604
    2.454090150   26.914109378   42.049339009   42.900950389
    2.461268781   27.100487530   41.920981333   43.104143541
    2.468447412   27.353457926   41.986607030   43.369103086
    2.475626043   27.646120263   42.523895208   43.932255577
    2.482804674   27.944056930   43.248351425   44.550769312
    2.489983306   28.181140295   43.898109071   44.928427248
    2.497161937   28.454845465   44.472331500   45.263305844
    2.504340568   28.819048340   45.138589251   45.890867934
    2.511519199   29.132104770   45.782585604   46.712127486
    2.518697830   29.283213150   46.161034210   47.452942280
    2.525876461   29.421317027   46.532491795   48.199051241
    2.533055092   29.630271645   47.206977322   49.153667028
    2.540233723   29.884324568   47.906948946   50.239114992
