# energy grid [eV]     ieps_x  ieps_y  ieps_z
#
    0.200000000    8.906356931   11.881254096   12.134078967
    0.207178631    8.903905388   11.877832349   12.130282685
    0.214357262    8.901371359   11.874294903   12.126361482
    0.221535893    8.898755224   11.870642234   12.122316164
    0.228714524    8.896057371   11.866874824   12.118147549
    0.235893155    8.893278197   11.862993168   12.113856460
    0.243071786    8.890418104   11.858997767   12.109443731
    0.250250417    8.887477504   11.854889133   12.104910199
    0.257429048    8.884456813   11.850667786   12.100256709
    0.264607679    8.881356456   11.846334252   12.095484110
    0.271786311    8.878176861   11.841889066   12.090593255
    0.278964942    8.874918466   11.837332770   12.085584998
    0.286143573    8.871581709   11.832665912   12.080460197
    0.293322204    8.868167037   11.827889047   12.075219710
    0.300500835    8.864674901   11.823002735   12.069864396
    0.307679466    8.861105754   11.818007543   12.064395112
    0.314858097    8.857460056   11.812904041   12.058812716
    0.322036728    8.853738268   11.807692805   12.053118064
    0.329215359    8.849940858   11.802374417   12.047312009
    0.336393990    8.846068293   11.796949461   12.041395402
    0.343572621    8.842121046   11.791418525   12.035369091
    0.350751252    8.838099591   11.785782203   12.029233921
    0.357929883    8.834004405   11.780041091   12.022990731
    0.365108514    8.829835967   11.774195786   12.016640358
    0.372287145    8.825594758   11.768246892   12.010183634
    0.379465776    8.821281261   11.762195012   12.003621385
    0.386644407    8.816895958   11.756040754   11.996954432
    0.393823038    8.812439336   11.749784727   11.990183593
    0.401001669    8.807911881   11.743427542   11.983309677
    0.408180301    8.803314078   11.736969812   11.976333490
    0.415358932    8.798646416   11.730412151   11.969255832
    0.422537563    8.793909383   11.723755177   11.962077496
    0.429716194    8.789103467   11.716999505   11.954799269
    0.436894825    8.784229156   11.710145755   11.947421933
    0.444073456    8.779286938   11.703194546   11.939946264
    0.451252087    8.774277302   11.696146499   11.932373031
    0.458430718    8.769200735   11.689002233   11.924702998
    0.465609349    8.764057724   11.681762372   11.916936922
    0.472787980    8.758848756   11.674427536   11.909075554
    0.479966611    8.753574318   11.666998349   11.901119639
    0.487145242    8.748234895   11.659475432   11.893069918
    0.494323873    8.742830970   11.651859409   11.884927124
    0.501502504    8.737363028   11.644150902   11.876691985
    0.508681135    8.731831550   11.636350534   11.868365224
    0.515859766    8.726237018   11.628458928   11.859947556
    0.523038397    8.720579911   11.620476706   11.851439693
    0.530217028    8.714860709   11.612404491   11.842842341
    0.537395659    8.709079888   11.604242905   11.834156201
    0.544574290    8.703237925   11.595992568   11.825381967
    0.551752922    8.697335293   11.587654103   11.816520331
    0.558931553    8.691372466   11.579228129   11.807571977
    0.566110184    8.685349915   11.570715267   11.798537587
    0.573288815    8.679268110   11.562116137   11.789417836
    0.580467446    8.673127517   11.553431358   11.780213396
    0.587646077    8.666928605   11.544661546   11.770924933
    0.594824708    8.660671837   11.535807322   11.761553111
    0.602003339    8.654357677   11.526869300   11.752098588
    0.609181970    8.647986585   11.517848098   11.742562018
    0.616360601    8.641559020   11.508744330   11.732944052
    0.623539232    8.635075441   11.499558612   11.723245337
    0.630717863    8.628536303   11.490291557   11.713466516
    0.637896494    8.621942060   11.480943777   11.703608227
    0.645075125    8.615293164   11.471515886   11.693671108
    0.652253756    8.608590065   11.462008494   11.683655791
    0.659432387    8.601833211   11.452422211   11.673562905
    0.666611018    8.595023050   11.442757647   11.663393076
    0.673789649    8.588160025   11.433015410   11.653146928
    0.680968280    8.581244581   11.423196108   11.642825081
    0.688146912    8.574277157   11.413300347   11.632428152
    0.695325543    8.567258192   11.403328734   11.621956756
    0.702504174    8.560188125   11.393281871   11.611411506
    0.709682805    8.553067391   11.383160364   11.600793010
    0.716861436    8.545896422   11.372964816   11.590101876
    0.724040067    8.538675652   11.362695826   11.579338708
    0.731218698    8.531405510   11.352353997   11.568504109
    0.738397329    8.524086425   11.341939929   11.557598679
    0.745575960    8.516718822   11.331454219   11.546623015
    0.752754591    8.509303127   11.320897465   11.535577714
    0.759933222    8.501839763   11.310270265   11.524463369
    0.767111853    8.494329150   11.299573213   11.513280573
    0.774290484    8.486771708   11.288806905   11.502029914
    0.781469115    8.479167855   11.277971933   11.490711982
    0.788647746    8.471518007   11.267068891   11.479327363
    0.795826377    8.463822578   11.256098370   11.467876640
    0.803005008    8.456081980   11.245060960   11.456360397
    0.810183639    8.448296625   11.233957251   11.444779216
    0.817362270    8.440466922   11.222787830   11.433133675
    0.824540902    8.432593279   11.211553285   11.421424353
    0.831719533    8.424676100   11.200254203   11.409651826
    0.838898164    8.416715792   11.188891167   11.397816669
    0.846076795    8.408712756   11.177464762   11.385919457
    0.853255426    8.400667394   11.165975572   11.373960760
    0.860434057    8.392580106   11.154424176   11.361941150
    0.867612688    8.384451289   11.142811156   11.349861197
    0.874791319    8.376281339   11.131137092   11.337721467
    0.881969950    8.368070653   11.119402562   11.325522528
    0.889148581    8.359819623   11.107608142   11.313264945
    0.896327212    8.351528641   11.095754409   11.300949283
    0.903505843    8.343198097   11.083841938   11.288576103
    0.910684474    8.334828381   11.071871302   11.276145969
    0.917863105    8.326419879   11.059843073   11.263659439
    0.925041736    8.317972979   11.047757823   11.251117073
    0.932220367    8.309488063   11.035616123   11.238519429
    0.939398998    8.300965516   11.023418539   11.225867063
    0.946577629    8.292405719   11.011165642   11.213160531
    0.953756260    8.283809052   10.998857996   11.200400387
    0.960934891    8.275175894   10.986496166   11.187587184
    0.968113523    8.266506622   10.974080717   11.174721473
    0.975292154    8.257801612   10.961612212   11.161803806
    0.982470785    8.249061239   10.949091210   11.148834731
    0.989649416    8.240285876   10.936518273   11.135814797
    0.996828047    8.231475894   10.923893959   11.122744550
    1.004006678    8.222631664   10.911218824   11.109624537
    1.011185309    8.213753556   10.898493426   11.096455301
    1.018363940    8.204841936   10.885718319   11.083237386
    1.025542571    8.195897171   10.872894055   11.069971334
    1.032721202    8.186919626   10.860021186   11.056657686
    1.039899833    8.177909664   10.847100264   11.043296980
    1.047078464    8.168867649   10.834131837   11.029889756
    1.054257095    8.159793940   10.821116452   11.016436550
    1.061435726    8.150688897   10.808054655   11.002937898
    1.068614357    8.141552880   10.794946992   10.989394334
    1.075792988    8.132386244   10.781794004   10.975806392
    1.082971619    8.123189345   10.768596235   10.962174602
    1.090150250    8.113962538   10.755354223   10.948499495
    1.097328881    8.104706175   10.742068507   10.934781601
    1.104507513    8.095420609   10.728739625   10.921021447
    1.111686144    8.086106189   10.715368112   10.907219559
    1.118864775    8.076763265   10.701954502   10.893376461
    1.126043406    8.067392185   10.688499326   10.879492678
    1.133222037    8.057993294   10.675003116   10.865568732
    1.140400668    8.048566939   10.661466400   10.851605143
    1.147579299    8.039113462   10.647889706   10.837602429
    1.154757930    8.029633206   10.634273559   10.823561109
    1.161936561    8.020126513   10.620618484   10.809481700
    1.169115192    8.010593722   10.606925002   10.795364714
    1.176293823    8.001035172   10.593193635   10.781210666
    1.183472454    7.991451201   10.579424901   10.767020066
    1.190651085    7.981842143   10.565619317   10.752793426
    1.197829716    7.972208335   10.551777398   10.738531252
    1.205008347    7.962550108   10.537899658   10.724234053
    1.212186978    7.952867796   10.523986608   10.709902332
    1.219365609    7.943161728   10.510038759   10.695536594
    1.226544240    7.933432234   10.496056618   10.681137340
    1.233722871    7.923679643   10.482040692   10.666705070
    1.240901503    7.913904280   10.467991485   10.652240283
    1.248080134    7.904106472   10.453909499   10.637743476
    1.255258765    7.894286542   10.439795234   10.623215143
    1.262437396    7.884444813   10.425649191   10.608655777
    1.269616027    7.874581607   10.411471864   10.594065871
    1.276794658    7.864697243   10.397263749   10.579445913
    1.283973289    7.854792040   10.383025338   10.564796392
    1.291151920    7.844866316   10.368757123   10.550117793
    1.298330551    7.834920386   10.354459592   10.535410601
    1.305509182    7.824954566   10.340133231   10.520675299
    1.312687813    7.814969168   10.325778526   10.505912365
    1.319866444    7.804964505   10.311395959   10.491122280
    1.327045075    7.794940887   10.296986011   10.476305519
    1.334223706    7.784898624   10.282549160   10.461462557
    1.341402337    7.774838022   10.268085882   10.446593867
    1.348580968    7.764759389   10.253596653   10.431699921
    1.355759599    7.754663031   10.239081944   10.416781185
    1.362938230    7.744549249   10.224542225   10.401838128
    1.370116861    7.734418348   10.209977965   10.386871215
    1.377295492    7.724270628   10.195389629   10.371880907
    1.384474124    7.714106388   10.180777681   10.356867666
    1.391652755    7.703925927   10.166142582   10.341831950
    1.398831386    7.693729541   10.151484791   10.326774216
    1.406010017    7.683517526   10.136804766   10.311694919
    1.413188648    7.673290176   10.122102962   10.296594510
    1.420367279    7.663047784   10.107379830   10.281473440
    1.427545910    7.652790640   10.092635822   10.266332158
    1.434724541    7.642519035   10.077871386   10.251171108
    1.441903172    7.632233256   10.063086967   10.235990736
    1.449081803    7.621933592   10.048283009   10.220791482
    1.456260434    7.611620326   10.033459954   10.205573787
    1.463439065    7.601293744   10.018618240   10.190338087
    1.470617696    7.590954127   10.003758304   10.175084817
    1.477796327    7.580601758    9.988880580   10.159814411
    1.484974958    7.570236915    9.973985501   10.144527299
    1.492153589    7.559859878    9.959073496   10.129223909
    1.499332220    7.549470922    9.944144993   10.113904668
    1.506510851    7.539070325    9.929200416   10.098569999
    1.513689482    7.528658358    9.914240189   10.083220324
    1.520868114    7.518235296    9.899264732   10.067856062
    1.528046745    7.507801408    9.884274462   10.052477631
    1.535225376    7.497356966    9.869269796   10.037085444
    1.542404007    7.486902236    9.854251145   10.021679915
    1.549582638    7.476437485    9.839218922   10.006261453
    1.556761269    7.465962979    9.824173535    9.990830465
    1.563939900    7.455478982    9.809115389    9.975387359
    1.571118531    7.444985755    9.794044888    9.959932535
    1.578297162    7.434483560    9.778962434    9.944466396
    1.585475793    7.423972656    9.763868424    9.928989339
    1.592654424    7.413453300    9.748763255    9.913501760
    1.599833055    7.402925749    9.733647322    9.898004052
    1.607011686    7.392390258    9.718521014    9.882496608
    1.614190317    7.381847080    9.703384722    9.866979815
    1.621368948    7.371296467    9.688238832    9.851454060
    1.628547579    7.360738670    9.673083728    9.835919727
    1.635726210    7.350173937    9.657919791    9.820377198
    1.642904841    7.339602516    9.642747400    9.804826851
    1.650083472    7.329024653    9.627566933    9.789269063
    1.657262104    7.318440592    9.612378763    9.773704209
    1.664440735    7.307850576    9.597183262    9.758132660
    1.671619366    7.297254846    9.581980799    9.742554786
    1.678797997    7.286653644    9.566771741    9.726970954
    1.685976628    7.276047206    9.551556453    9.711381528
    1.693155259    7.265435769    9.536335295    9.695786870
    1.700333890    7.254819571    9.521108628    9.680187340
    1.707512521    7.244198843    9.505876808    9.664583295
    1.714691152    7.233573819    9.490640189    9.648975090
    1.721869783    7.222944730    9.475399124    9.633363077
    1.729048414    7.212311804    9.460153962    9.617747606
    1.736227045    7.201675271    9.444905049    9.602129024
    1.743405676    7.191035356    9.429652730    9.586507677
    1.750584307    7.180392284    9.414397347    9.570883906
    1.757762938    7.169746278    9.399139239    9.555258051
    1.764941569    7.159097562    9.383878743    9.539630451
    1.772120200    7.148446354    9.368616194    9.524001440
    1.779298831    7.137792874    9.353351924    9.508371350
    1.786477462    7.127137339    9.338086262    9.492740512
    1.793656093    7.116479966    9.322819535    9.477109254
    1.800834725    7.105820968    9.307552068    9.461477901
    1.808013356    7.095160558    9.292284183    9.445846775
    1.815191987    7.084498948    9.277016199    9.430216197
    1.822370618    7.073836348    9.261748433    9.414586484
    1.829549249    7.063172966    9.246481200    9.398957952
    1.836727880    7.052509010    9.231214813    9.383330914
    1.843906511    7.041844683    9.215949580    9.367705681
    1.851085142    7.031180191    9.200685810    9.352082560
    1.858263773    7.020515736    9.185423807    9.336461857
    1.865442404    7.009851518    9.170163873    9.320843875
    1.872621035    6.999187737    9.154906309    9.305228914
    1.879799666    6.988524592    9.139651411    9.289617274
    1.886978297    6.977862278    9.124399475    9.274009249
    1.894156928    6.967200991    9.109150793    9.258405134
    1.901335559    6.956540924    9.093905655    9.242805219
    1.908514190    6.945882269    9.078664350    9.227209792
    1.915692821    6.935225217    9.063427162    9.211619141
    1.922871452    6.924569957    9.048194375    9.196033548
    1.930050083    6.913916676    9.032966268    9.180453295
    1.937228715    6.903265561    9.017743120    9.164878660
    1.944407346    6.892616796    9.002525207    9.149309921
    1.951585977    6.881970564    8.987312801    9.133747352
    1.958764608    6.871327048    8.972106174    9.118191223
    1.965943239    6.860686427    8.956905594    9.102641804
    1.973121870    6.850048881    8.941711327    9.087099363
    1.980300501    6.839414586    8.926523638    9.071564164
    1.987479132    6.828783720    8.911342787    9.056036469
    1.994657763    6.818156455    8.896169033    9.040516539
    2.001836394    6.807532966    8.881002633    9.025004629
    2.009015025    6.796913424    8.865843842    9.009500996
    2.016193656    6.786297999    8.850692911    8.994005893
    2.023372287    6.775686860    8.835550091    8.978519570
    2.030550918    6.765080175    8.820415628    8.963042274
    2.037729549    6.754478108    8.805289767    8.947574253
    2.044908180    6.743880826    8.790172752    8.932115749
    2.052086811    6.733288490    8.775064822    8.916667004
    2.059265442    6.722701262    8.759966216    8.901228256
    2.066444073    6.712119304    8.744877170    8.885799743
    2.073622705    6.701542773    8.729797917    8.870381698
    2.080801336    6.690971827    8.714728689    8.854974354
    2.087979967    6.680406622    8.699669715    8.839577941
    2.095158598    6.669847313    8.684621221    8.824192685
    2.102337229    6.659294053    8.669583432    8.808818813
    2.109515860    6.648746994    8.654556571    8.793456547
    2.116694491    6.638206287    8.639540857    8.778106108
    2.123873122    6.627672080    8.624536509    8.762767715
    2.131051753    6.617144522    8.609543742    8.747441585
    2.138230384    6.606623759    8.594562769    8.732127930
    2.145409015    6.596109936    8.579593803    8.716826965
    2.152587646    6.585603197    8.564637052    8.701538897
    2.159766277    6.575103684    8.549692723    8.686263935
    2.166944908    6.564611537    8.534761021    8.671002284
    2.174123539    6.554126898    8.519842149    8.655754148
    2.181302170    6.543649904    8.504936307    8.640519728
    2.188480801    6.533180692    8.490043693    8.625299222
    2.195659432    6.522719398    8.475164504    8.610092828
    2.202838063    6.512266156    8.460298935    8.594900740
    2.210016694    6.501821100    8.445447177    8.579723151
    2.217195326    6.491384360    8.430609419    8.564560251
    2.224373957    6.480956068    8.415785851    8.549412229
    2.231552588    6.470536353    8.400976658    8.534279271
    2.238731219    6.460125343    8.386182023    8.519161562
    2.245909850    6.449723163    8.371402129    8.504059283
    2.253088481    6.439329940    8.356637155    8.488972615
    2.260267112    6.428945798    8.341887278    8.473901736
    2.267445743    6.418570858    8.327152675    8.458846822
    2.274624374    6.408205244    8.312433519    8.443808047
    2.281803005    6.397849074    8.297729982    8.428785583
    2.288981636    6.387502468    8.283042232    8.413779600
    2.296160267    6.377165544    8.268370439    8.398790266
    2.303338898    6.366838418    8.253714767    8.383817747
    2.310517529    6.356521205    8.239075381    8.368862208
    2.317696160    6.346214020    8.224452442    8.353923810
    2.324874791    6.335916975    8.209846110    8.339002713
    2.332053422    6.325630181    8.195256543    8.324099077
    2.339232053    6.315353750    8.180683897    8.309213056
    2.346410684    6.305087790    8.166128326    8.294344807
    2.353589316    6.294832409    8.151589982    8.279494480
    2.360767947    6.284587714    8.137069016    8.264662227
    2.367946578    6.274353811    8.122565577    8.249848196
    2.375125209    6.264130803    8.108079810    8.235052534
    2.382303840    6.253918795    8.093611861    8.220275387
    2.389482471    6.243717888    8.079161873    8.205516897
    2.396661102    6.233528183    8.064729986    8.190777205
    2.403839733    6.223349779    8.050316341    8.176056452
    2.411018364    6.213182777    8.035921074    8.161354774
    2.418196995    6.203027271    8.021544321    8.146672308
    2.425375626    6.192883360    8.007186216    8.132009187
    2.432554257    6.182751138    7.992846892    8.117365544
    2.439732888    6.172630699    7.978526478    8.102741510
    2.446911519    6.162522137    7.964225104    8.088137212
    2.454090150    6.152425542    7.949942897    8.073552778
    2.461268781    6.142341005    7.935679981    8.058988334
    2.468447412    6.132268617    7.921436480    8.044444002
    2.475626043    6.122208465    7.907212515    8.029919905
    2.482804674    6.112160637    7.893008208    8.015416162
    2.489983306    6.102125220    7.878823676    8.000932892
    2.497161937    6.092102298    7.864659036    7.986470211
    2.504340568    6.082091955    7.850514403    7.972028236
    2.511519199    6.072094276    7.836389891    7.957607078
    2.518697830    6.062109340    7.822285611    7.943206849
    2.525876461    6.052137231    7.808201673    7.928827660
    2.533055092    6.042178027    7.794138187    7.914469620
    2.540233723    6.032231808    7.780095258    7.900132834
