# energy grid [eV]     ieps_x  ieps_y  ieps_z
#
    0.200000000   10.506997119   10.273693318    6.159986090
    0.207178631   10.504624053   10.271422422    6.158845570
    0.214357262   10.502168614   10.269072678    6.157665386
    0.221535893   10.499630935   10.266644211    6.156445594
    0.228714524   10.497011156   10.264137151    6.155186253
    0.235893155   10.494309418   10.261551633    6.153887425
    0.243071786   10.491525870   10.258887795    6.152549170
    0.250250417   10.488660662   10.256145780    6.151171554
    0.257429048   10.485713951   10.253325733    6.149754643
    0.264607679   10.482685897   10.250427806    6.148298504
    0.271786311   10.479576663   10.247452154    6.146803208
    0.278964942   10.476386419   10.244398933    6.145268825
    0.286143573   10.473115337   10.241268308    6.143695429
    0.293322204   10.469763593   10.238060444    6.142083095
    0.300500835   10.466331370   10.234775511    6.140431900
    0.307679466   10.462818852   10.231413684    6.138741923
    0.314858097   10.459226228   10.227975141    6.137013244
    0.322036728   10.455553692   10.224460064    6.135245945
    0.329215359   10.451801441   10.220868637    6.133440110
    0.336393990   10.447969677   10.217201051    6.131595825
    0.343572621   10.444058604   10.213457499    6.129713177
    0.350751252   10.440068433   10.209638178    6.127792255
    0.357929883   10.435999376   10.205743288    6.125833150
    0.365108514   10.431851651   10.201773034    6.123835955
    0.372287145   10.427625479   10.197727624    6.121800763
    0.379465776   10.423321085   10.193607269    6.119727670
    0.386644407   10.418938697   10.189412185    6.117616773
    0.393823038   10.414478548   10.185142590    6.115468173
    0.401001669   10.409940874   10.180798706    6.113281969
    0.408180301   10.405325915   10.176380760    6.111058264
    0.415358932   10.400633916   10.171888981    6.108797162
    0.422537563   10.395865122   10.167323601    6.106498768
    0.429716194   10.391019786   10.162684857    6.104163189
    0.436894825   10.386098161   10.157972988    6.101790535
    0.444073456   10.381100506   10.153188237    6.099380915
    0.451252087   10.376027082   10.148330851    6.096934441
    0.458430718   10.370878155   10.143401078    6.094451226
    0.465609349   10.365653993   10.138399173    6.091931386
    0.472787980   10.360354867   10.133325390    6.089375036
    0.479966611   10.354981055   10.128179989    6.086782295
    0.487145242   10.349532833   10.122963232    6.084153282
    0.494323873   10.344010484   10.117675385    6.081488117
    0.501502504   10.338414293   10.112316717    6.078786922
    0.508681135   10.332744550   10.106887499    6.076049822
    0.515859766   10.327001544   10.101388006    6.073276941
    0.523038397   10.321185572   10.095818515    6.070468406
    0.530217028   10.315296932   10.090179308    6.067624345
    0.537395659   10.309335924   10.084470667    6.064744887
    0.544574290   10.303302852   10.078692880    6.061830162
    0.551752922   10.297198024   10.072846235    6.058880302
    0.558931553   10.291021750   10.066931024    6.055895442
    0.566110184   10.284774342   10.060947543    6.052875714
    0.573288815   10.278456117   10.054896089    6.049821256
    0.580467446   10.272067394   10.048776963    6.046732204
    0.587646077   10.265608493   10.042590467    6.043608697
    0.594824708   10.259079740   10.036336906    6.040450875
    0.602003339   10.252481461   10.030016591    6.037258878
    0.609181970   10.245813986   10.023629830    6.034032848
    0.616360601   10.239077648   10.017176937    6.030772930
    0.623539232   10.232272781   10.010658229    6.027479267
    0.630717863   10.225399723   10.004074022    6.024152006
    0.637896494   10.218458815    9.997424639    6.020791293
    0.645075125   10.211450399    9.990710401    6.017397276
    0.652253756   10.204374819    9.983931635    6.013970104
    0.659432387   10.197232423    9.977088667    6.010509929
    0.666611018   10.190023562    9.970181828    6.007016900
    0.673789649   10.182748587    9.963211449    6.003491172
    0.680968280   10.175407853    9.956177866    5.999932896
    0.688146912   10.168001716    9.949081413    5.996342229
    0.695325543   10.160530534    9.941922430    5.992719325
    0.702504174   10.152994670    9.934701257    5.989064341
    0.709682805   10.145394487    9.927418237    5.985377435
    0.716861436   10.137730348    9.920073714    5.981658765
    0.724040067   10.130002622    9.912668034    5.977908491
    0.731218698   10.122211678    9.905201546    5.974126774
    0.738397329   10.114357887    9.897674601    5.970313774
    0.745575960   10.106441621    9.890087549    5.966469655
    0.752754591   10.098463256    9.882440746    5.962594580
    0.759933222   10.090423169    9.874734545    5.958688713
    0.767111853   10.082321737    9.866969306    5.954752219
    0.774290484   10.074159342    9.859145386    5.950785263
    0.781469115   10.065936364    9.851263146    5.946788013
    0.788647746   10.057653188    9.843322948    5.942760636
    0.795826377   10.049310199    9.835325156    5.938703301
    0.803005008   10.040907782    9.827270135    5.934616177
    0.810183639   10.032446328    9.819158251    5.930499433
    0.817362270   10.023926225    9.810989874    5.926353240
    0.824540902   10.015347864    9.802765371    5.922177769
    0.831719533   10.006711638    9.794485114    5.917973194
    0.838898164    9.998017941    9.786149476    5.913739686
    0.846076795    9.989267168    9.777758828    5.909477419
    0.853255426    9.980459715    9.769313547    5.905186567
    0.860434057    9.971595981    9.760814007    5.900867305
    0.867612688    9.962676364    9.752260586    5.896519808
    0.874791319    9.953701264    9.743653662    5.892144253
    0.881969950    9.944671083    9.734993614    5.887740816
    0.889148581    9.935586222    9.726280822    5.883309674
    0.896327212    9.926447084    9.717515668    5.878851006
    0.903505843    9.917254075    9.708698533    5.874364989
    0.910684474    9.908007599    9.699829801    5.869851803
    0.917863105    9.898708063    9.690909855    5.865311626
    0.925041736    9.889355872    9.681939081    5.860744639
    0.932220367    9.879951435    9.672917865    5.856151023
    0.939398998    9.870495161    9.663846591    5.851530957
    0.946577629    9.860987459    9.654725649    5.846884624
    0.953756260    9.851428739    9.645555425    5.842212205
    0.960934891    9.841819411    9.636336308    5.837513883
    0.968113523    9.832159887    9.627068688    5.832789840
    0.975292154    9.822450578    9.617752954    5.828040258
    0.982470785    9.812691898    9.608389497    5.823265322
    0.989649416    9.802884258    9.598978706    5.818465215
    0.996828047    9.793028073    9.589520975    5.813640121
    1.004006678    9.783123756    9.580016694    5.808790224
    1.011185309    9.773171722    9.570466255    5.803915710
    1.018363940    9.763172385    9.560870052    5.799016762
    1.025542571    9.753126160    9.551228477    5.794093568
    1.032721202    9.743033462    9.541541924    5.789146311
    1.039899833    9.732894706    9.531810785    5.784175178
    1.047078464    9.722710310    9.522035456    5.779180354
    1.054257095    9.712480687    9.512216329    5.774162027
    1.061435726    9.702206255    9.502353799    5.769120382
    1.068614357    9.691887429    9.492448260    5.764055606
    1.075792988    9.681524625    9.482500106    5.758967886
    1.082971619    9.671118260    9.472509733    5.753857409
    1.090150250    9.660668750    9.462477534    5.748724362
    1.097328881    9.650176511    9.452403904    5.743568932
    1.104507513    9.639641959    9.442289238    5.738391306
    1.111686144    9.629065510    9.432133930    5.733191672
    1.118864775    9.618447581    9.421938374    5.727970218
    1.126043406    9.607788586    9.411702965    5.722727130
    1.133222037    9.597088941    9.401428097    5.717462598
    1.140400668    9.586349061    9.391114163    5.712176807
    1.147579299    9.575569362    9.380761557    5.706869947
    1.154757930    9.564750258    9.370370673    5.701542205
    1.161936561    9.553892163    9.359941904    5.696193768
    1.169115192    9.542995492    9.349475643    5.690824824
    1.176293823    9.532060657    9.338972283    5.685435561
    1.183472454    9.521088073    9.328432215    5.680026167
    1.190651085    9.510078151    9.317855831    5.674596830
    1.197829716    9.499031305    9.307243524    5.669147736
    1.205008347    9.487947945    9.296595682    5.663679073
    1.212186978    9.476828482    9.285912699    5.658191029
    1.219365609    9.465673329    9.275194962    5.652683790
    1.226544240    9.454482893    9.264442862    5.647157545
    1.233722871    9.443257585    9.253656787    5.641612480
    1.240901503    9.431997814    9.242837127    5.636048781
    1.248080134    9.420703986    9.231984267    5.630466636
    1.255258765    9.409376511    9.221098597    5.624866231
    1.262437396    9.398015793    9.210180501    5.619247752
    1.269616027    9.386622239    9.199230366    5.613611387
    1.276794658    9.375196254    9.188248576    5.607957319
    1.283973289    9.363738241    9.177235516    5.602285736
    1.291151920    9.352248605    9.166191570    5.596596823
    1.298330551    9.340727747    9.155117120    5.590890764
    1.305509182    9.329176069    9.144012548    5.585167746
    1.312687813    9.317593971    9.132878235    5.579427953
    1.319866444    9.305981853    9.121714561    5.573671568
    1.327045075    9.294340114    9.110521905    5.567898778
    1.334223706    9.282669151    9.099300647    5.562109764
    1.341402337    9.270969362    9.088051163    5.556304712
    1.348580968    9.259241140    9.076773830    5.550483804
    1.355759599    9.247484881    9.065469023    5.544647223
    1.362938230    9.235700979    9.054137118    5.538795151
    1.370116861    9.223889825    9.042778488    5.532927772
    1.377295492    9.212051811    9.031393504    5.527045266
    1.384474124    9.200187326    9.019982540    5.521147816
    1.391652755    9.188296759    9.008545964    5.515235602
    1.398831386    9.176380499    8.997084147    5.509308806
    1.406010017    9.164438931    8.985597457    5.503367606
    1.413188648    9.152472440    8.974086260    5.497412185
    1.420367279    9.140481410    8.962550923    5.491442720
    1.427545910    9.128466225    8.950991810    5.485459391
    1.434724541    9.116427264    8.939409285    5.479462377
    1.441903172    9.104364909    8.927803710    5.473451856
    1.449081803    9.092279537    8.916175447    5.467428006
    1.456260434    9.080171527    8.904524854    5.461391003
    1.463439065    9.068041253    8.892852292    5.455341025
    1.470617696    9.055889090    8.881158116    5.449278247
    1.477796327    9.043715412    8.869442684    5.443202847
    1.484974958    9.031520591    8.857706350    5.437114998
    1.492153589    9.019304995    8.845949466    5.431014877
    1.499332220    9.007068995    8.834172387    5.424902656
    1.506510851    8.994812957    8.822375461    5.418778510
    1.513689482    8.982537247    8.810559038    5.412642613
    1.520868114    8.970242230    8.798723467    5.406495136
    1.528046745    8.957928268    8.786869094    5.400336252
    1.535225376    8.945595722    8.774996264    5.394166132
    1.542404007    8.933244953    8.763105320    5.387984948
    1.549582638    8.920876319    8.751196605    5.381792870
    1.556761269    8.908490175    8.739270460    5.375590068
    1.563939900    8.896086877    8.727327224    5.369376711
    1.571118531    8.883666778    8.715367236    5.363152968
    1.578297162    8.871230231    8.703390830    5.356919007
    1.585475793    8.858777585    8.691398342    5.350674994
    1.592654424    8.846309188    8.679390106    5.344421099
    1.599833055    8.833825388    8.667366454    5.338157485
    1.607011686    8.821326530    8.655327715    5.331884320
    1.614190317    8.808812957    8.643274218    5.325601768
    1.621368948    8.796285011    8.631206291    5.319309994
    1.628547579    8.783743032    8.619124259    5.313009161
    1.635726210    8.771187359    8.607028445    5.306699432
    1.642904841    8.758618328    8.594919174    5.300380970
    1.650083472    8.746036275    8.582796765    5.294053936
    1.657262104    8.733441532    8.570661537    5.287718492
    1.664440735    8.720834431    8.558513808    5.281374798
    1.671619366    8.708215302    8.546353895    5.275023014
    1.678797997    8.695584474    8.534182111    5.268663299
    1.685976628    8.682942271    8.521998769    5.262295811
    1.693155259    8.670289019    8.509804180    5.255920708
    1.700333890    8.657625041    8.497598654    5.249538146
    1.707512521    8.644950656    8.485382499    5.243148284
    1.714691152    8.632266185    8.473156019    5.236751275
    1.721869783    8.619571945    8.460919520    5.230347275
    1.729048414    8.606868251    8.448673305    5.223936437
    1.736227045    8.594155417    8.436417674    5.217518916
    1.743405676    8.581433754    8.424152927    5.211094865
    1.750584307    8.568703573    8.411879361    5.204664434
    1.757762938    8.555965182    8.399597271    5.198227776
    1.764941569    8.543218887    8.387306954    5.191785041
    1.772120200    8.530464993    8.375008700    5.185336379
    1.779298831    8.517703803    8.362702800    5.178881939
    1.786477462    8.504935616    8.350389543    5.172421869
    1.793656093    8.492160733    8.338069218    5.165956316
    1.800834725    8.479379450    8.325742108    5.159485429
    1.808013356    8.466592063    8.313408498    5.153009352
    1.815191987    8.453798865    8.301068671    5.146528231
    1.822370618    8.441000146    8.288722905    5.140042212
    1.829549249    8.428196198    8.276371480    5.133551436
    1.836727880    8.415387308    8.264014672    5.127056048
    1.843906511    8.402573761    8.251652757    5.120556190
    1.851085142    8.389755841    8.239286008    5.114052003
    1.858263773    8.376933832    8.226914696    5.107543629
    1.865442404    8.364108012    8.214539090    5.101031206
    1.872621035    8.351278660    8.202159459    5.094514875
    1.879799666    8.338446053    8.189776070    5.087994773
    1.886978297    8.325610465    8.177389185    5.081471039
    1.894156928    8.312772169    8.164999069    5.074943809
    1.901335559    8.299931435    8.152605981    5.068413219
    1.908514190    8.287088533    8.140210182    5.061879404
    1.915692821    8.274243729    8.127811927    5.055342500
    1.922871452    8.261397288    8.115411473    5.048802639
    1.930050083    8.248549474    8.103009074    5.042259955
    1.937228715    8.235700548    8.090604981    5.035714579
    1.944407346    8.222850769    8.078199444    5.029166644
    1.951585977    8.210000395    8.065792712    5.022616280
    1.958764608    8.197149681    8.053385032    5.016063615
    1.965943239    8.184298882    8.040976649    5.009508780
    1.973121870    8.171448248    8.028567805    5.002951903
    1.980300501    8.158598031    8.016158742    4.996393110
    1.987479132    8.145748477    8.003749699    4.989832529
    1.994657763    8.132899833    7.991340914    4.983270285
    2.001836394    8.120052344    7.978932623    4.976706503
    2.009015025    8.107206252    7.966525061    4.970141307
    2.016193656    8.094361796    7.954118459    4.963574820
    2.023372287    8.081519217    7.941713048    4.957007166
    2.030550918    8.068678750    7.929309058    4.950438466
    2.037729549    8.055840631    7.916906715    4.943868841
    2.044908180    8.043005093    7.904506245    4.937298410
    2.052086811    8.030172366    7.892107871    4.930727294
    2.059265442    8.017342681    7.879711815    4.924155611
    2.066444073    8.004516264    7.867318298    4.917583478
    2.073622705    7.991693341    7.854927537    4.911011013
    2.080801336    7.978874136    7.842539750    4.904438331
    2.087979967    7.966058870    7.830155150    4.897865549
    2.095158598    7.953247764    7.817773952    4.891292780
    2.102337229    7.940441036    7.805396367    4.884720138
    2.109515860    7.927638902    7.793022604    4.878147736
    2.116694491    7.914841577    7.780652870    4.871575687
    2.123873122    7.902049273    7.768287373    4.865004101
    2.131051753    7.889262202    7.755926317    4.858433090
    2.138230384    7.876480571    7.743569905    4.851862762
    2.145409015    7.863704589    7.731218336    4.845293227
    2.152587646    7.850934461    7.718871812    4.838724593
    2.159766277    7.838170390    7.706530529    4.832156967
    2.166944908    7.825412579    7.694194683    4.825590457
    2.174123539    7.812661226    7.681864468    4.819025166
    2.181302170    7.799916531    7.669540078    4.812461201
    2.188480801    7.787178690    7.657221702    4.805898666
    2.195659432    7.774447897    7.644909530    4.799337665
    2.202838063    7.761724346    7.632603749    4.792778298
    2.210016694    7.749008226    7.620304545    4.786220669
    2.217195326    7.736299729    7.608012102    4.779664879
    2.224373957    7.723599040    7.595726603    4.773111028
    2.231552588    7.710906347    7.583448227    4.766559214
    2.238731219    7.698221832    7.571177155    4.760009538
    2.245909850    7.685545679    7.558913564    4.753462096
    2.253088481    7.672878068    7.546657630    4.746916986
    2.260267112    7.660219177    7.534409526    4.740374304
    2.267445743    7.647569185    7.522169425    4.733834145
    2.274624374    7.634928266    7.509937498    4.727296606
    2.281803005    7.622296593    7.497713915    4.720761778
    2.288981636    7.609674340    7.485498843    4.714229757
    2.296160267    7.597061676    7.473292448    4.707700634
    2.303338898    7.584458770    7.461094894    4.701174500
    2.310517529    7.571865789    7.448906345    4.694651447
    2.317696160    7.559282898    7.436726962    4.688131566
    2.324874791    7.546710260    7.424556903    4.681614945
    2.332053422    7.534148038    7.412396329    4.675101672
    2.339232053    7.521596392    7.400245394    4.668591837
    2.346410684    7.509055480    7.388104254    4.662085526
    2.353589316    7.496525460    7.375973062    4.655582826
    2.360767947    7.484006486    7.363851971    4.649083821
    2.367946578    7.471498713    7.351741130    4.642588598
    2.375125209    7.459002293    7.339640687    4.636097240
    2.382303840    7.446517375    7.327550792    4.629609830
    2.389482471    7.434044110    7.315471588    4.623126452
    2.396661102    7.421582643    7.303403221    4.616647187
    2.403839733    7.409133122    7.291345832    4.610172117
    2.411018364    7.396695689    7.279299564    4.603701321
    2.418196995    7.384270488    7.267264555    4.597234880
    2.425375626    7.371857660    7.255240944    4.590772872
    2.432554257    7.359457344    7.243228868    4.584315377
    2.439732888    7.347069677    7.231228461    4.577862471
    2.446911519    7.334694796    7.219239858    4.571414231
    2.454090150    7.322332837    7.207263190    4.564970734
    2.461268781    7.309983931    7.195298589    4.558532054
    2.468447412    7.297648212    7.183346184    4.552098267
    2.475626043    7.285325808    7.171406103    4.545669447
    2.482804674    7.273016849    7.159478472    4.539245666
    2.489983306    7.260721463    7.147563416    4.532826998
    2.497161937    7.248439774    7.135661059    4.526413514
    2.504340568    7.236171907    7.123771524    4.520005285
    2.511519199    7.223917985    7.111894930    4.513602382
    2.518697830    7.211678129    7.100031398    4.507204875
    2.525876461    7.199452459    7.088181045    4.500812833
    2.533055092    7.187241094    7.076343989    4.494426324
    2.540233723    7.175044150    7.064520344    4.488045416
