# energy grid [eV]     ieps_x  ieps_y  ieps_z
#
    0.200000000    3.207054510    7.124884528    5.903001649
    0.207178631    3.206559859    7.123503968    5.901771156
    0.214357262    3.206048100    7.122075556    5.900498058
    0.221535893    3.205519265    7.120599377    5.899182435
    0.228714524    3.204973391    7.119075517    5.897824370
    0.235893155    3.204410512    7.117504067    5.896423948
    0.243071786    3.203830666    7.115885117    5.894981256
    0.250250417    3.203233889    7.114218764    5.893496385
    0.257429048    3.202620222    7.112505103    5.891969426
    0.264607679    3.201989703    7.110744234    5.890400474
    0.271786311    3.201342372    7.108936259    5.888789627
    0.278964942    3.200678272    7.107081282    5.887136984
    0.286143573    3.199997445    7.105179411    5.885442646
    0.293322204    3.199299934    7.103230753    5.883706718
    0.300500835    3.198585783    7.101235421    5.881929307
    0.307679466    3.197855038    7.099193528    5.880110520
    0.314858097    3.197107743    7.097105189    5.878250469
    0.322036728    3.196343946    7.094970524    5.876349267
    0.329215359    3.195563695    7.092789653    5.874407028
    0.336393990    3.194767037    7.090562697    5.872423871
    0.343572621    3.193954022    7.088289782    5.870399915
    0.350751252    3.193124700    7.085971034    5.868335282
    0.357929883    3.192279121    7.083606583    5.866230095
    0.365108514    3.191417337    7.081196559    5.864084481
    0.372287145    3.190539400    7.078741096    5.861898566
    0.379465776    3.189645363    7.076240328    5.859672481
    0.386644407    3.188735280    7.073694392    5.857406358
    0.393823038    3.187809204    7.071103428    5.855100331
    0.401001669    3.186867192    7.068467575    5.852754534
    0.408180301    3.185909297    7.065786978    5.850369107
    0.415358932    3.184935578    7.063061780    5.847944188
    0.422537563    3.183946090    7.060292128    5.845479918
    0.429716194    3.182940892    7.057478171    5.842976442
    0.436894825    3.181920042    7.054620058    5.840433903
    0.444073456    3.180883598    7.051717941    5.837852449
    0.451252087    3.179831619    7.048771973    5.835232227
    0.458430718    3.178764167    7.045782310    5.832573389
    0.465609349    3.177681302    7.042749109    5.829876087
    0.472787980    3.176583084    7.039672529    5.827140473
    0.479966611    3.175469575    7.036552728    5.824366703
    0.487145242    3.174340837    7.033389870    5.821554934
    0.494323873    3.173196934    7.030184118    5.818705325
    0.501502504    3.172037929    7.026935635    5.815818035
    0.508681135    3.170863885    7.023644590    5.812893226
    0.515859766    3.169674866    7.020311149    5.809931061
    0.523038397    3.168470937    7.016935482    5.806931704
    0.530217028    3.167252164    7.013517759    5.803895323
    0.537395659    3.166018611    7.010058153    5.800822083
    0.544574290    3.164770346    7.006556838    5.797712155
    0.551752922    3.163507434    7.003013988    5.794565708
    0.558931553    3.162229942    6.999429780    5.791382914
    0.566110184    3.160937938    6.995804391    5.788163946
    0.573288815    3.159631489    6.992138000    5.784908978
    0.580467446    3.158310664    6.988430787    5.781618186
    0.587646077    3.156975531    6.984682934    5.778291748
    0.594824708    3.155626159    6.980894623    5.774929840
    0.602003339    3.154262617    6.977066038    5.771532643
    0.609181970    3.152884974    6.973197364    5.768100336
    0.616360601    3.151493302    6.969288787    5.764633103
    0.623539232    3.150087669    6.965340496    5.761131125
    0.630717863    3.148668146    6.961352677    5.757594586
    0.637896494    3.147234805    6.957325520    5.754023672
    0.645075125    3.145787716    6.953259217    5.750418569
    0.652253756    3.144326952    6.949153959    5.746779464
    0.659432387    3.142852583    6.945009937    5.743106545
    0.666611018    3.141364683    6.940827347    5.739400002
    0.673789649    3.139863322    6.936606383    5.735660024
    0.680968280    3.138348575    6.932347240    5.731886804
    0.688146912    3.136820513    6.928050116    5.728080533
    0.695325543    3.135279210    6.923715206    5.724241404
    0.702504174    3.133724740    6.919342711    5.720369611
    0.709682805    3.132157175    6.914932828    5.716465349
    0.716861436    3.130576591    6.910485760    5.712528814
    0.724040067    3.128983060    6.906001705    5.708560202
    0.731218698    3.127376657    6.901480867    5.704559711
    0.738397329    3.125757457    6.896923447    5.700527539
    0.745575960    3.124125535    6.892329651    5.696463884
    0.752754591    3.122480964    6.887699680    5.692368946
    0.759933222    3.120823821    6.883033742    5.688242925
    0.767111853    3.119154181    6.878332040    5.684086022
    0.774290484    3.117472118    6.873594783    5.679898440
    0.781469115    3.115777710    6.868822176    5.675680380
    0.788647746    3.114071030    6.864014428    5.671432046
    0.795826377    3.112352156    6.859171747    5.667153640
    0.803005008    3.110621163    6.854294343    5.662845367
    0.810183639    3.108878128    6.849382425    5.658507432
    0.817362270    3.107123127    6.844436203    5.654140040
    0.824540902    3.105356236    6.839455889    5.649743397
    0.831719533    3.103577533    6.834441694    5.645317709
    0.838898164    3.101787093    6.829393830    5.640863182
    0.846076795    3.099984993    6.824312509    5.636380025
    0.853255426    3.098171311    6.819197946    5.631868445
    0.860434057    3.096346124    6.814050353    5.627328650
    0.867612688    3.094509509    6.808869945    5.622760848
    0.874791319    3.092661542    6.803656936    5.618165248
    0.881969950    3.090802302    6.798411542    5.613542060
    0.889148581    3.088931866    6.793133978    5.608891494
    0.896327212    3.087050311    6.787824460    5.604213758
    0.903505843    3.085157715    6.782483204    5.599509064
    0.910684474    3.083254155    6.777110428    5.594777623
    0.917863105    3.081339709    6.771706347    5.590019643
    0.925041736    3.079414456    6.766271181    5.585235338
    0.932220367    3.077478471    6.760805146    5.580424918
    0.939398998    3.075531835    6.755308460    5.575588595
    0.946577629    3.073574623    6.749781343    5.570726580
    0.953756260    3.071606915    6.744224013    5.565839086
    0.960934891    3.069628788    6.738636688    5.560926323
    0.968113523    3.067640320    6.733019589    5.555988506
    0.975292154    3.065641589    6.727372935    5.551025845
    0.982470785    3.063632674    6.721696945    5.546038553
    0.989649416    3.061613651    6.715991840    5.541026843
    0.996828047    3.059584600    6.710257840    5.535990928
    1.004006678    3.057545598    6.704495165    5.530931019
    1.011185309    3.055496723    6.698704035    5.525847330
    1.018363940    3.053438053    6.692884672    5.520740073
    1.025542571    3.051369667    6.687037296    5.515609461
    1.032721202    3.049291641    6.681162128    5.510455707
    1.039899833    3.047204055    6.675259390    5.505279022
    1.047078464    3.045106986    6.669329302    5.500079621
    1.054257095    3.043000512    6.663372085    5.494857715
    1.061435726    3.040884710    6.657387962    5.489613516
    1.068614357    3.038759659    6.651377152    5.484347238
    1.075792988    3.036625437    6.645339879    5.479059092
    1.082971619    3.034482121    6.639276363    5.473749290
    1.090150250    3.032329788    6.633186825    5.468418044
    1.097328881    3.030168518    6.627071487    5.463065566
    1.104507513    3.027998386    6.620930570    5.457692069
    1.111686144    3.025819471    6.614764296    5.452297762
    1.118864775    3.023631850    6.608572887    5.446882857
    1.126043406    3.021435600    6.602356562    5.441447566
    1.133222037    3.019230799    6.596115544    5.435992098
    1.140400668    3.017017524    6.589850053    5.430516666
    1.147579299    3.014795852    6.583560311    5.425021477
    1.154757930    3.012565860    6.577246538    5.419506744
    1.161936561    3.010327625    6.570908955    5.413972675
    1.169115192    3.008081225    6.564547783    5.408419479
    1.176293823    3.005826734    6.558163241    5.402847366
    1.183472454    3.003564231    6.551755551    5.397256545
    1.190651085    3.001293792    6.545324932    5.391647223
    1.197829716    2.999015494    6.538871604    5.386019609
    1.205008347    2.996729411    6.532395787    5.380373911
    1.212186978    2.994435622    6.525897701    5.374710335
    1.219365609    2.992134202    6.519377563    5.369029088
    1.226544240    2.989825226    6.512835594    5.363330377
    1.233722871    2.987508772    6.506272012    5.357614408
    1.240901503    2.985184913    6.499687036    5.351881386
    1.248080134    2.982853727    6.493080883    5.346131517
    1.255258765    2.980515288    6.486453771    5.340365004
    1.262437396    2.978169672    6.479805918    5.334582053
    1.269616027    2.975816953    6.473137541    5.328782866
    1.276794658    2.973457208    6.466448857    5.322967648
    1.283973289    2.971090510    6.459740082    5.317136600
    1.291151920    2.968716934    6.453011433    5.311289924
    1.298330551    2.966336555    6.446263125    5.305427824
    1.305509182    2.963949448    6.439495374    5.299550498
    1.312687813    2.961555686    6.432708395    5.293658149
    1.319866444    2.959155343    6.425902402    5.287750975
    1.327045075    2.956748494    6.419077609    5.281829177
    1.334223706    2.954335211    6.412234231    5.275892952
    1.341402337    2.951915569    6.405372480    5.269942500
    1.348580968    2.949489641    6.398492570    5.263978018
    1.355759599    2.947057500    6.391594713    5.257999702
    1.362938230    2.944619218    6.384679120    5.252007749
    1.370116861    2.942174869    6.377746004    5.246002355
    1.377295492    2.939724525    6.370795576    5.239983715
    1.384474124    2.937268259    6.363828045    5.233952023
    1.391652755    2.934806143    6.356843622    5.227907473
    1.398831386    2.932338248    6.349842516    5.221850259
    1.406010017    2.929864647    6.342824937    5.215780571
    1.413188648    2.927385411    6.335791093    5.209698603
    1.420367279    2.924900611    6.328741190    5.203604545
    1.427545910    2.922410318    6.321675438    5.197498588
    1.434724541    2.919914604    6.314594043    5.191380920
    1.441903172    2.917413539    6.307497210    5.185251732
    1.449081803    2.914907194    6.300385145    5.179111210
    1.456260434    2.912395639    6.293258054    5.172959543
    1.463439065    2.909878943    6.286116141    5.166796917
    1.470617696    2.907357178    6.278959609    5.160623519
    1.477796327    2.904830411    6.271788662    5.154439532
    1.484974958    2.902298714    6.264603502    5.148245142
    1.492153589    2.899762154    6.257404332    5.142040533
    1.499332220    2.897220801    6.250191351    5.135825886
    1.506510851    2.894674723    6.242964762    5.129601385
    1.513689482    2.892123989    6.235724764    5.123367210
    1.520868114    2.889568667    6.228471556    5.117123542
    1.528046745    2.887008824    6.221205337    5.110870560
    1.535225376    2.884444529    6.213926305    5.104608444
    1.542404007    2.881875849    6.206634657    5.098337371
    1.549582638    2.879302851    6.199330590    5.092057519
    1.556761269    2.876725603    6.192014299    5.085769064
    1.563939900    2.874144169    6.184685980    5.079472182
    1.571118531    2.871558618    6.177345827    5.073167046
    1.578297162    2.868969015    6.169994034    5.066853833
    1.585475793    2.866375426    6.162630793    5.060532713
    1.592654424    2.863777917    6.155256298    5.054203860
    1.599833055    2.861176553    6.147870739    5.047867445
    1.607011686    2.858571399    6.140474307    5.041523638
    1.614190317    2.855962521    6.133067192    5.035172608
    1.621368948    2.853349981    6.125649584    5.028814526
    1.628547579    2.850733846    6.118221671    5.022449557
    1.635726210    2.848114178    6.110783640    5.016077871
    1.642904841    2.845491042    6.103335679    5.009699631
    1.650083472    2.842864502    6.095877973    5.003315005
    1.657262104    2.840234619    6.088410709    4.996924156
    1.664440735    2.837601458    6.080934069    4.990527247
    1.671619366    2.834965080    6.073448240    4.984124441
    1.678797997    2.832325549    6.065953402    4.977715900
    1.685976628    2.829682926    6.058449738    4.971301784
    1.693155259    2.827037272    6.050937430    4.964882254
    1.700333890    2.824388651    6.043416659    4.958457467
    1.707512521    2.821737122    6.035887603    4.952027583
    1.714691152    2.819082747    6.028350441    4.945592759
    1.721869783    2.816425586    6.020805352    4.939153150
    1.729048414    2.813765700    6.013252513    4.932708912
    1.736227045    2.811103148    6.005692101    4.926260198
    1.743405676    2.808437991    5.998124289    4.919807164
    1.750584307    2.805770288    5.990549254    4.913349961
    1.757762938    2.803100098    5.982967169    4.906888740
    1.764941569    2.800427480    5.975378207    4.900423653
    1.772120200    2.797752492    5.967782539    4.893954849
    1.779298831    2.795075194    5.960180338    4.887482476
    1.786477462    2.792395642    5.952571774    4.881006684
    1.793656093    2.789713895    5.944957015    4.874527618
    1.800834725    2.787030010    5.937336231    4.868045425
    1.808013356    2.784344044    5.929709590    4.861560250
    1.815191987    2.781656054    5.922077257    4.855072236
    1.822370618    2.778966096    5.914439400    4.848581528
    1.829549249    2.776274227    5.906796182    4.842088267
    1.836727880    2.773580502    5.899147769    4.835592595
    1.843906511    2.770884978    5.891494324    4.829094652
    1.851085142    2.768187708    5.883836009    4.822594578
    1.858263773    2.765488749    5.876172985    4.816092510
    1.865442404    2.762788155    5.868505413    4.809588587
    1.872621035    2.760085980    5.860833453    4.803082945
    1.879799666    2.757382279    5.853157264    4.796575721
    1.886978297    2.754677105    5.845477003    4.790067048
    1.894156928    2.751970511    5.837792828    4.783557060
    1.901335559    2.749262551    5.830104895    4.777045890
    1.908514190    2.746553278    5.822413358    4.770533671
    1.915692821    2.743842744    5.814718373    4.764020533
    1.922871452    2.741131001    5.807020092    4.757506607
    1.930050083    2.738418101    5.799318668    4.750992020
    1.937228715    2.735704096    5.791614252    4.744476902
    1.944407346    2.732989038    5.783906996    4.737961380
    1.951585977    2.730272976    5.776197049    4.731445580
    1.958764608    2.727555962    5.768484559    4.724929628
    1.965943239    2.724838047    5.760769674    4.718413647
    1.973121870    2.722119279    5.753052543    4.711897762
    1.980300501    2.719399710    5.745333309    4.705382094
    1.987479132    2.716679388    5.737612120    4.698866766
    1.994657763    2.713958362    5.729889118    4.692351899
    2.001836394    2.711236682    5.722164448    4.685837611
    2.009015025    2.708514395    5.714438251    4.679324022
    2.016193656    2.705791551    5.706710669    4.672811250
    2.023372287    2.703068196    5.698981842    4.666299412
    2.030550918    2.700344379    5.691251911    4.659788624
    2.037729549    2.697620147    5.683521014    4.653279000
    2.044908180    2.694895546    5.675789288    4.646770656
    2.052086811    2.692170624    5.668056870    4.640263704
    2.059265442    2.689445426    5.660323897    4.633758258
    2.066444073    2.686719999    5.652590503    4.627254427
    2.073622705    2.683994389    5.644856823    4.620752324
    2.080801336    2.681268640    5.637122989    4.614252058
    2.087979967    2.678542798    5.629389134    4.607753737
    2.095158598    2.675816909    5.621655390    4.601257469
    2.102337229    2.673091015    5.613921885    4.594763361
    2.109515860    2.670365162    5.606188751    4.588271520
    2.116694491    2.667639393    5.598456116    4.581782050
    2.123873122    2.664913752    5.590724107    4.575295056
    2.131051753    2.662188282    5.582992851    4.568810641
    2.138230384    2.659463026    5.575262473    4.562328907
    2.145409015    2.656738027    5.567533100    4.555849957
    2.152587646    2.654013327    5.559804854    4.549373891
    2.159766277    2.651288968    5.552077860    4.542900808
    2.166944908    2.648564992    5.544352238    4.536430807
    2.174123539    2.645841441    5.536628111    4.529963988
    2.181302170    2.643118354    5.528905599    4.523500446
    2.188480801    2.640395774    5.521184820    4.517040278
    2.195659432    2.637673741    5.513465895    4.510583580
    2.202838063    2.634952295    5.505748940    4.504130446
    2.210016694    2.632231476    5.498034073    4.497680970
    2.217195326    2.629511323    5.490321408    4.491235245
    2.224373957    2.626791876    5.482611062    4.484793362
    2.231552588    2.624073174    5.474903147    4.478355414
    2.238731219    2.621355256    5.467197778    4.471921489
    2.245909850    2.618638160    5.459495067    4.465491678
    2.253088481    2.615921924    5.451795125    4.459066069
    2.260267112    2.613206586    5.444098062    4.452644750
    2.267445743    2.610492184    5.436403988    4.446227808
    2.274624374    2.607778754    5.428713013    4.439815329
    2.281803005    2.605066335    5.421025243    4.433407398
    2.288981636    2.602354961    5.413340786    4.427004100
    2.296160267    2.599644671    5.405659748    4.420605518
    2.303338898    2.596935500    5.397982234    4.414211735
    2.310517529    2.594227483    5.390308349    4.407822833
    2.317696160    2.591520656    5.382638195    4.401438894
    2.324874791    2.588815055    5.374971876    4.395059996
    2.332053422    2.586110714    5.367309494    4.388686221
    2.339232053    2.583407668    5.359651149    4.382317646
    2.346410684    2.580705951    5.351996941    4.375954350
    2.353589316    2.578005598    5.344346970    4.369596410
    2.360767947    2.575306642    5.336701333    4.363243901
    2.367946578    2.572609116    5.329060129    4.356896901
    2.375125209    2.569913054    5.321423454    4.350555483
    2.382303840    2.567218489    5.313791404    4.344219721
    2.389482471    2.564525453    5.306164073    4.337889689
    2.396661102    2.561833979    5.298541556    4.331565459
    2.403839733    2.559144099    5.290923946    4.325247102
    2.411018364    2.556455844    5.283311335    4.318934690
    2.418196995    2.553769247    5.275703816    4.312628293
    2.425375626    2.551084338    5.268101478    4.306327979
    2.432554257    2.548401148    5.260504412    4.300033819
    2.439732888    2.545719708    5.252912707    4.293745879
    2.446911519    2.543040049    5.245326451    4.287464226
    2.454090150    2.540362201    5.237745731    4.281188928
    2.461268781    2.537686192    5.230170635    4.274920049
    2.468447412    2.535012055    5.222601248    4.268657654
    2.475626043    2.532339816    5.215037655    4.262401809
    2.482804674    2.529669506    5.207479940    4.256152575
    2.489983306    2.527001154    5.199928188    4.249910016
    2.497161937    2.524334787    5.192382479    4.243674194
    2.504340568    2.521670434    5.184842897    4.237445170
    2.511519199    2.519008124    5.177309522    4.231223005
    2.518697830    2.516347884    5.169782435    4.225007758
    2.525876461    2.513689741    5.162261714    4.218799489
    2.533055092    2.511033722    5.154747440    4.212598256
    2.540233723    2.508379855    5.147239689    4.206404117
