# energy grid [eV]     epsr_x  epsr_y  epsr_z
#
    0.200000000    9.271480541   10.945050102    5.613533091
    0.207178631    9.273262217   10.946938684    5.614377711
    0.214357262    9.275107637   10.948894649    5.615252477
    0.221535893    9.277016898   10.950918077    5.616157426
    0.228714524    9.278990101   10.953009056    5.617092599
    0.235893155    9.281027349   10.955167673    5.618058036
    0.243071786    9.283128749   10.957394021    5.619053779
    0.250250417    9.285294412   10.959688193    5.620079872
    0.257429048    9.287524452   10.962050287    5.621136361
    0.264607679    9.289818986   10.964480402    5.622223290
    0.271786311    9.292178135   10.966978643    5.623340708
    0.278964942    9.294602024   10.969545115    5.624488664
    0.286143573    9.297090782   10.972179927    5.625667208
    0.293322204    9.299644539   10.974883193    5.626876392
    0.300500835    9.302263432   10.977655026    5.628116269
    0.307679466    9.304947600   10.980495546    5.629386895
    0.314858097    9.307697185   10.983404873    5.630688324
    0.322036728    9.310512333   10.986383132    5.632020614
    0.329215359    9.313393195   10.989430450    5.633383825
    0.336393990    9.316339925   10.992546958    5.634778016
    0.343572621    9.319352679   10.995732789    5.636203250
    0.350751252    9.322431620   10.998988081    5.637659589
    0.357929883    9.325576912   11.002312972    5.639147098
    0.365108514    9.328788725   11.005707607    5.640665844
    0.372287145    9.332067230   11.009172131    5.642215894
    0.379465776    9.335412606   11.012706693    5.643797316
    0.386644407    9.338825031   11.016311447    5.645410182
    0.393823038    9.342304691   11.019986547    5.647054564
    0.401001669    9.345851775   11.023732153    5.648730534
    0.408180301    9.349466473   11.027548427    5.650438169
    0.415358932    9.353148983   11.031435535    5.652177545
    0.422537563    9.356899506   11.035393645    5.653948741
    0.429716194    9.360718245   11.039422930    5.655751834
    0.436894825    9.364605410   11.043523565    5.657586908
    0.444073456    9.368561212   11.047695728    5.659454045
    0.451252087    9.372585870   11.051939603    5.661353329
    0.458430718    9.376679603   11.056255374    5.663284846
    0.465609349    9.380842638   11.060643230    5.665248684
    0.472787980    9.385075204   11.065103365    5.667244932
    0.479966611    9.389377536   11.069635973    5.669273681
    0.487145242    9.393749870   11.074241254    5.671335023
    0.494323873    9.398192451   11.078919411    5.673429052
    0.501502504    9.402705524   11.083670650    5.675555865
    0.508681135    9.407289343   11.088495182    5.677715558
    0.515859766    9.411944162   11.093393219    5.679908230
    0.523038397    9.416670243   11.098364979    5.682133983
    0.530217028    9.421467851   11.103410683    5.684392919
    0.537395659    9.426337256   11.108530554    5.686685142
    0.544574290    9.431278732   11.113724822    5.689010758
    0.551752922    9.436292558   11.118993717    5.691369875
    0.558931553    9.441379019   11.124337475    5.693762602
    0.566110184    9.446538404   11.129756336    5.696189050
    0.573288815    9.451771006   11.135250543    5.698649333
    0.580467446    9.457077124   11.140820342    5.701143565
    0.587646077    9.462457062   11.146465984    5.703671864
    0.594824708    9.467911129   11.152187724    5.706234346
    0.602003339    9.473439637   11.157985820    5.708831134
    0.609181970    9.479042907   11.163860535    5.711462348
    0.616360601    9.484721262   11.169812135    5.714128114
    0.623539232    9.490475032   11.175840892    5.716828556
    0.630717863    9.496304551   11.181947078    5.719563804
    0.637896494    9.502210158   11.188130973    5.722333986
    0.645075125    9.508192201   11.194392860    5.725139235
    0.652253756    9.514251029   11.200733026    5.727979685
    0.659432387    9.520386998   11.207151760    5.730855471
    0.666611018    9.526600472   11.213649360    5.733766731
    0.673789649    9.532891817   11.220226124    5.736713604
    0.680968280    9.539261407   11.226882356    5.739696233
    0.688146912    9.545709620   11.233618364    5.742714762
    0.695325543    9.552236843   11.240434461    5.745769337
    0.702504174    9.558843467   11.247330963    5.748860105
    0.709682805    9.565529887   11.254308193    5.751987217
    0.716861436    9.572296507   11.261366476    5.755150826
    0.724040067    9.579143737   11.268506142    5.758351085
    0.731218698    9.586071991   11.275727526    5.761588153
    0.738397329    9.593081692   11.283030968    5.764862187
    0.745575960    9.600173268   11.290416813    5.768173348
    0.752754591    9.607347153   11.297885409    5.771521802
    0.759933222    9.614603789   11.305437110    5.774907712
    0.767111853    9.621943623   11.313072274    5.778331248
    0.774290484    9.629367109   11.320791266    5.781792579
    0.781469115    9.636874710   11.328594453    5.785291879
    0.788647746    9.644466893   11.336482208    5.788829322
    0.795826377    9.652144133   11.344454911    5.792405087
    0.803005008    9.659906912   11.352512943    5.796019352
    0.810183639    9.667755721   11.360656694    5.799672302
    0.817362270    9.675691055   11.368886557    5.803364120
    0.824540902    9.683713418   11.377202932    5.807094994
    0.831719533    9.691823323   11.385606221    5.810865114
    0.838898164    9.700021287   11.394096834    5.814674673
    0.846076795    9.708307839   11.402675186    5.818523865
    0.853255426    9.716683511   11.411341697    5.822412890
    0.860434057    9.725148847   11.420096793    5.826341947
    0.867612688    9.733704397   11.428940905    5.830311239
    0.874791319    9.742350720   11.437874469    5.834320973
    0.881969950    9.751088381   11.446897929    5.838371357
    0.889148581    9.759917956   11.456011731    5.842462603
    0.896327212    9.768840028   11.465216331    5.846594924
    0.903505843    9.777855190   11.474512188    5.850768539
    0.910684474    9.786964042   11.483899768    5.854983667
    0.917863105    9.796167193   11.493379542    5.859240531
    0.925041736    9.805465262   11.502951988    5.863539357
    0.932220367    9.814858878   11.512617590    5.867880374
    0.939398998    9.824348676   11.522376838    5.872263815
    0.946577629    9.833935302   11.532230229    5.876689913
    0.953756260    9.843619413   11.542178264    5.881158908
    0.960934891    9.853401674   11.552221454    5.885671041
    0.968113523    9.863282760   11.562360314    5.890226556
    0.975292154    9.873263356   11.572595366    5.894825701
    0.982470785    9.883344158   11.582927138    5.899468727
    0.989649416    9.893525871   11.593356166    5.904155889
    0.996828047    9.903809210   11.603882993    5.908887444
    1.004006678    9.914194903   11.614508167    5.913663654
    1.011185309    9.924683686   11.625232245    5.918484782
    1.018363940    9.935276309   11.636055789    5.923351097
    1.025542571    9.945973530   11.646979371    5.928262871
    1.032721202    9.956776119   11.658003567    5.933220379
    1.039899833    9.967684860   11.669128962    5.938223899
    1.047078464    9.978700545   11.680356149    5.943273715
    1.054257095    9.989823981   11.691685727    5.948370112
    1.061435726   10.001055984   11.703118303    5.953513380
    1.068614357   10.012397385   11.714654493    5.958703814
    1.075792988   10.023849027   11.726294918    5.963941711
    1.082971619   10.035411764   11.738040211    5.969227373
    1.090150250   10.047086463   11.749891008    5.974561105
    1.097328881   10.058874007   11.761847958    5.979943218
    1.104507513   10.070775289   11.773911714    5.985374025
    1.111686144   10.082791217   11.786082939    5.990853844
    1.118864775   10.094922713   11.798362306    5.996382997
    1.126043406   10.107170713   11.810750494    6.001961811
    1.133222037   10.119536165   11.823248191    6.007590617
    1.140400668   10.132020035   11.835856096    6.013269750
    1.147579299   10.144623302   11.848574914    6.018999550
    1.154757930   10.157346959   11.861405360    6.024780361
    1.161936561   10.170192018   11.874348159    6.030612532
    1.169115192   10.183159501   11.887404043    6.036496416
    1.176293823   10.196250451   11.900573757    6.042432373
    1.183472454   10.209465925   11.913858051    6.048420764
    1.190651085   10.222806996   11.927257687    6.054461959
    1.197829716   10.236274754   11.940773438    6.060556329
    1.205008347   10.249870306   11.954406084    6.066704253
    1.212186978   10.263594778   11.968156417    6.072906115
    1.219365609   10.277449312   11.982025237    6.079162301
    1.226544240   10.291435068   11.996013358    6.085473206
    1.233722871   10.305553225   12.010121600    6.091839229
    1.240901503   10.319804980   12.024350797    6.098260774
    1.248080134   10.334191551   12.038701791    6.104738251
    1.255258765   10.348714174   12.053175438    6.111272074
    1.262437396   10.363374104   12.067772601    6.117862666
    1.269616027   10.378172619   12.082494158    6.124510452
    1.276794658   10.393111015   12.097340997    6.131215867
    1.283973289   10.408190611   12.112314016    6.137979347
    1.291151920   10.423412746   12.127414126    6.144801338
    1.298330551   10.438778773   12.142642250    6.151682291
    1.305509182   10.454290049   12.157999323    6.158622663
    1.312687813   10.469947904   12.173486291    6.165622916
    1.319866444   10.485753765   12.189104113    6.172683521
    1.327045075   10.501709277   12.204853762    6.179804954
    1.334223706   10.517815944   12.220736222    6.186987699
    1.341402337   10.534075191   12.236752491    6.194232246
    1.348580968   10.550488511   12.252903579    6.201539090
    1.355759599   10.567057447   12.269190509    6.208908737
    1.362938230   10.583783578   12.285614319    6.216341695
    1.370116861   10.600668507   12.302176061    6.223838484
    1.377295492   10.617713869   12.318876798    6.231399628
    1.384474124   10.634921324   12.335717611    6.239025661
    1.391652755   10.652292560   12.352699593    6.246717123
    1.398831386   10.669829296   12.369823852    6.254474562
    1.406010017   10.687533279   12.387091511    6.262298534
    1.413188648   10.705406286   12.404503708    6.270189603
    1.420367279   10.723450126   12.422061595    6.278148341
    1.427545910   10.741666640   12.439766343    6.286175329
    1.434724541   10.760057699   12.457619136    6.294271156
    1.441903172   10.778625210   12.475621174    6.302436419
    1.449081803   10.797371111   12.493773674    6.310671724
    1.456260434   10.816297378   12.512077870    6.318977686
    1.463439065   10.835406019   12.530535011    6.327354929
    1.470617696   10.854699080   12.549146367    6.335804087
    1.477796327   10.874178643   12.567913220    6.344325802
    1.484974958   10.893846829   12.586836874    6.352920727
    1.492153589   10.913705797   12.605918648    6.361589522
    1.499332220   10.933757746   12.625159883    6.370332861
    1.506510851   10.954004915   12.644561933    6.379151424
    1.513689482   10.974449584   12.664126177    6.388045904
    1.520868114   10.995094079   12.683854009    6.397017004
    1.528046745   11.015940764   12.703746843    6.406065436
    1.535225376   11.036992051   12.723806115    6.415191925
    1.542404007   11.058250399   12.744033279    6.424397205
    1.549582638   11.079718309   12.764429810    6.433682024
    1.556761269   11.101398335   12.784997204    6.443047138
    1.563939900   11.123293076   12.805736980    6.452493317
    1.571118531   11.145405184   12.826650675    6.462021344
    1.578297162   11.167737362   12.847739851    6.471632011
    1.585475793   11.190292364   12.869006091    6.481326124
    1.592654424   11.213073000   12.890451002    6.491104502
    1.599833055   11.236082136   12.912076213    6.500967978
    1.607011686   11.259322692   12.933883377    6.510917394
    1.614190317   11.282797651   12.955874167    6.520953606
    1.621368948   11.306510051   12.978050278    6.531077475
    1.628547579   11.330462996   13.000413418    6.541289859
    1.635726210   11.354659648   13.022965344    6.551591671
    1.642904841   11.379103240   13.045707881    6.561983886
    1.650083472   11.403797067   13.068642829    6.572467432
    1.657262104   11.428744493   13.091772002    6.583043228
    1.664440735   11.453948953   13.115097249    6.593712224
    1.671619366   11.479413953   13.138620456    6.604475395
    1.678797997   11.505143075   13.162343535    6.615333730
    1.685976628   11.531139975   13.186268428    6.626288237
    1.693155259   11.557408387   13.210397108    6.637339941
    1.700333890   11.583952128   13.234731575    6.648489883
    1.707512521   11.610775095   13.259273862    6.659739122
    1.714691152   11.637881271   13.284026031    6.671088735
    1.721869783   11.665274725   13.308990177    6.682539816
    1.729048414   11.692959617   13.334168427    6.694093478
    1.736227045   11.720940189   13.359562939    6.705750853
    1.743405676   11.749220759   13.385175908    6.717513094
    1.750584307   11.777805730   13.411009560    6.729381369
    1.757762938   11.806699715   13.437066158    6.741356873
    1.764941569   11.835907452   13.463347999    6.753440819
    1.772120200   11.865433661   13.489857417    6.765634439
    1.779298831   11.895283175   13.516596784    6.777938988
    1.786477462   11.925460964   13.543568506    6.790355744
    1.793656093   11.955972120   13.570775033    6.802886007
    1.800834725   11.986821863   13.598218850    6.815531098
    1.808013356   12.018015532   13.625902483    6.828292366
    1.815191987   12.049558598   13.653828500    6.841171180
    1.822370618   12.081456661   13.681999510    6.854168938
    1.829549249   12.113715461   13.710418165    6.867287059
    1.836727880   12.146340874   13.739087161    6.880526991
    1.843906511   12.179338926   13.768009236    6.893890208
    1.851085142   12.212715788   13.797187177    6.907378210
    1.858263773   12.246477791   13.826623814    6.920992526
    1.865442404   12.280631421   13.856322028    6.934734713
    1.872621035   12.315183334   13.886284744    6.948606358
    1.879799666   12.350140353   13.916514941    6.962609077
    1.886978297   12.385509480   13.947015644    6.976744516
    1.894156928   12.421297899   13.977789934    6.991014356
    1.901335559   12.457512983   14.008840942    7.005420305
    1.908514190   12.494162301   14.040171854    7.019964108
    1.915692821   12.531253622   14.071785910    7.034647542
    1.922871452   12.568794926   14.103686408    7.049472420
    1.930050083   12.606794398   14.135876704    7.064440589
    1.937228715   12.645260449   14.168360211    7.079553932
    1.944407346   12.684201757   14.201140403    7.094814373
    1.951585977   12.723627246   14.234220817    7.110223871
    1.958764608   12.763546052   14.267605053    7.125784426
    1.965943239   12.803967570   14.301296775    7.141498076
    1.973121870   12.844901474   14.335299713    7.157366905
    1.980300501   12.886357719   14.369617666    7.173393036
    1.987479132   12.928346552   14.404254500    7.189578635
    1.994657763   12.970878518   14.439214155    7.205925911
    2.001836394   13.013964477   14.474500638    7.222437108
    2.009015025   13.057615613   14.510118034    7.239114517
    2.016193656   13.101843458   14.546070511    7.255960532
    2.023372287   13.146659893   14.582362318    7.272977584
    2.030550918   13.192077159   14.618997773    7.290168111
    2.037729549   13.238107878   14.655981275    7.307534611
    2.044908180   13.284765071   14.693317314    7.325079643
    2.052086811   13.332062174   14.731010463    7.342805827
    2.059265442   13.380013051   14.769065386    7.360715839
    2.066444073   13.428632018   14.807486838    7.378812416
    2.073622705   13.477933857   14.846279667    7.397098354
    2.080801336   13.527933841   14.885448817    7.415576514
    2.087979967   13.578647752   14.924999332    7.434249820
    2.095158598   13.630091904   14.964936354    7.453121262
    2.102337229   13.682283167   15.005265132    7.472193900
    2.109515860   13.735238993   15.045991017    7.491470862
    2.116694491   13.788977441   15.087119471    7.510955350
    2.123873122   13.843517209   15.128656074    7.530650643
    2.131051753   13.898877658   15.170606515    7.550560097
    2.138230384   13.955078849   15.212976612    7.570687145
    2.145409015   14.012141575   15.255772303    7.591035303
    2.152587646   14.070087388   15.298999646    7.611608170
    2.159766277   14.128938641   15.342664823    7.632409434
    2.166944908   14.188718525   15.386774150    7.653442870
    2.174123539   14.249451120   15.431334084    7.674712347
    2.181302170   14.311161467   15.476351245    7.696221843
    2.188480801   14.373875563   15.521832386    7.717975427
    2.195659432   14.437620415   15.567784396    7.739977265
    2.202838063   14.502424115   15.614214323    7.762231632
    2.210016694   14.568315900   15.661129376    7.784742910
    2.217195326   14.635326202   15.708536932    7.807515599
    2.224373957   14.703486723   15.756444534    7.830554315
    2.231552588   14.772830493   15.804859903    7.853863795
    2.238731219   14.843391951   15.853790940    7.877448901
    2.245909850   14.915207009   15.903245730    7.901314625
    2.253088481   14.988313112   15.953232549    7.925466090
    2.260267112   15.062749286   16.003759866    7.949908556
    2.267445743   15.138556462   16.054836367    7.974647434
    2.274624374   15.215777759   16.106470968    7.999688306
    2.281803005   15.294457940   16.158672776    8.025036887
    2.288981636   15.374643730   16.211451124    8.050699046
    2.296160267   15.456384186   16.264815593    8.076680817
    2.303338898   15.539730716   16.318775967    8.102988408
    2.310517529   15.624737298   16.373342352    8.129628224
    2.317696160   15.711460642   16.428525177    8.156606875
    2.324874791   15.799960237   16.484335034    8.183931134
    2.332053422   15.890298602   16.540782780    8.211607974
    2.339232053   15.982541538   16.597879600    8.239644587
    2.346410684   16.076758328   16.655636994    8.268048381
    2.353589316   16.173021952   16.714066758    8.296826973
    2.360767947   16.271409338   16.773180979    8.325988131
    2.367946578   16.372001605   16.832991974    8.355539655
    2.375125209   16.474884487   16.893512380    8.385489635
    2.382303840   16.580148966   16.954755676    8.415847543
    2.389482471   16.687891297   17.016735985    8.446622843
    2.396661102   16.798213110   17.079467233    8.477824360
    2.403839733   16.911222148   17.142963618    8.509461353
    2.411018364   17.027032859   17.207239926    8.541543583
    2.418196995   17.145766891   17.272311468    8.574081200
    2.425375626   17.267553653   17.338194057    8.607084710
    2.432554257   17.392530964   17.404904017    8.640564987
    2.439732888   17.520845767   17.472458202    8.674533279
    2.446911519   17.652654928   17.540874027    8.709001233
    2.454090150   17.788126112   17.610169492    8.743980909
    2.461268781   17.927438767   17.680363214    8.779484805
    2.468447412   18.070785209   17.751474461    8.815525871
    2.475626043   18.218371835   17.823523189    8.852117542
    2.482804674   18.370420480   17.896530076    8.889273753
    2.489983306   18.527169936   17.970516572    8.927008971
    2.497161937   18.688877652   18.045504935    8.965338222
    2.504340568   18.855821651   18.121518291    9.004277112
    2.511519199   19.028302690   18.198580677    9.043841854
    2.518697830   19.206646697   18.276717111    9.084049248
    2.525876461   19.391207532   18.355953645    9.124916586
    2.533055092   19.582370084   18.436317446    9.166461788
    2.540233723   19.780553702   18.517836888    9.208704548
