# energy grid [eV]     ieps_x  ieps_y  ieps_z
#
    0.200000000    5.260312533    6.636266256    3.247165118
    0.207178631    5.259312360    6.635159638    3.246702112
    0.214357262    5.258277462    6.634014471    3.246222992
    0.221535893    5.257207895    6.632830805    3.245727780
    0.228714524    5.256103717    6.631608689    3.245216499
    0.235893155    5.254964988    6.630348176    3.244689173
    0.243071786    5.253791767    6.629049320    3.244145825
    0.250250417    5.252584120    6.627712174    3.243586479
    0.257429048    5.251342110    6.626336796    3.243011162
    0.264607679    5.250065803    6.624923244    3.242419900
    0.271786311    5.248755270    6.623471578    3.241812720
    0.278964942    5.247410578    6.621981859    3.241189648
    0.286143573    5.246031801    6.620454150    3.240550714
    0.293322204    5.244619011    6.618888515    3.239895946
    0.300500835    5.243172285    6.617285021    3.239225373
    0.307679466    5.241691699    6.615643735    3.238539028
    0.314858097    5.240177331    6.613964725    3.237836939
    0.322036728    5.238629263    6.612248064    3.237119139
    0.329215359    5.237047576    6.610493821    3.236385660
    0.336393990    5.235432354    6.608702073    3.235636536
    0.343572621    5.233783683    6.606872892    3.234871799
    0.350751252    5.232101648    6.605006356    3.234091485
    0.357929883    5.230386340    6.603102543    3.233295628
    0.365108514    5.228637849    6.601161533    3.232484264
    0.372287145    5.226856265    6.599183406    3.231657429
    0.379465776    5.225041683    6.597168244    3.230815160
    0.386644407    5.223194198    6.595116132    3.229957496
    0.393823038    5.221313907    6.593027156    3.229084473
    0.401001669    5.219400907    6.590901400    3.228196130
    0.408180301    5.217455298    6.588738955    3.227292509
    0.415358932    5.215477181    6.586539909    3.226373647
    0.422537563    5.213466660    6.584304354    3.225439587
    0.429716194    5.211423838    6.582032381    3.224490369
    0.436894825    5.209348821    6.579724084    3.223526036
    0.444073456    5.207241717    6.577379559    3.222546629
    0.451252087    5.205102633    6.574998902    3.221552193
    0.458430718    5.202931680    6.572582211    3.220542771
    0.465609349    5.200728970    6.570129585    3.219518407
    0.472787980    5.198494616    6.567641124    3.218479146
    0.479966611    5.196228730    6.565116931    3.217425033
    0.487145242    5.193931431    6.562557108    3.216356116
    0.494323873    5.191602833    6.559961759    3.215272439
    0.501502504    5.189243057    6.557330991    3.214174052
    0.508681135    5.186852221    6.554664911    3.213061000
    0.515859766    5.184430446    6.551963626    3.211933333
    0.523038397    5.181977855    6.549227246    3.210791100
    0.530217028    5.179494572    6.546455882    3.209634350
    0.537395659    5.176980720    6.543649646    3.208463132
    0.544574290    5.174436428    6.540808651    3.207277498
    0.551752922    5.171861821    6.537933011    3.206077499
    0.558931553    5.169257028    6.535022842    3.204863185
    0.566110184    5.166622180    6.532078262    3.203634609
    0.573288815    5.163957406    6.529099387    3.202391824
    0.580467446    5.161262840    6.526086337    3.201134882
    0.587646077    5.158538614    6.523039232    3.199863837
    0.594824708    5.155784863    6.519958194    3.198578743
    0.602003339    5.153001723    6.516843345    3.197279655
    0.609181970    5.150189330    6.513694808    3.195966628
    0.616360601    5.147347821    6.510512710    3.194639717
    0.623539232    5.144477337    6.507297175    3.193298978
    0.630717863    5.141578015    6.504048330    3.191944468
    0.637896494    5.138649998    6.500766303    3.190576243
    0.645075125    5.135693427    6.497451224    3.189194361
    0.652253756    5.132708445    6.494103223    3.187798879
    0.659432387    5.129695196    6.490722430    3.186389856
    0.666611018    5.126653825    6.487308978    3.184967350
    0.673789649    5.123584477    6.483863000    3.183531421
    0.680968280    5.120487299    6.480384630    3.182082128
    0.688146912    5.117362439    6.476874004    3.180619531
    0.695325543    5.114210045    6.473331256    3.179143690
    0.702504174    5.111030267    6.469756525    3.177654666
    0.709682805    5.107823255    6.466149948    3.176152520
    0.716861436    5.104589159    6.462511665    3.174637313
    0.724040067    5.101328133    6.458841814    3.173109108
    0.731218698    5.098040328    6.455140537    3.171567967
    0.738397329    5.094725897    6.451407976    3.170013952
    0.745575960    5.091384996    6.447644272    3.168447126
    0.752754591    5.088017780    6.443849569    3.166867553
    0.759933222    5.084624403    6.440024012    3.165275297
    0.767111853    5.081205022    6.436167746    3.163670421
    0.774290484    5.077759795    6.432280915    3.162052989
    0.781469115    5.074288880    6.428363667    3.160423068
    0.788647746    5.070792434    6.424416150    3.158780721
    0.795826377    5.067270617    6.420438511    3.157126015
    0.803005008    5.063723589    6.416430900    3.155459014
    0.810183639    5.060151510    6.412393466    3.153779785
    0.817362270    5.056554541    6.408326360    3.152088394
    0.824540902    5.052932844    6.404229733    3.150384908
    0.831719533    5.049286580    6.400103737    3.148669394
    0.838898164    5.045615913    6.395948524    3.146941918
    0.846076795    5.041921005    6.391764249    3.145202549
    0.853255426    5.038202021    6.387551064    3.143451354
    0.860434057    5.034459124    6.383309126    3.141688401
    0.867612688    5.030692479    6.379038588    3.139913759
    0.874791319    5.026902251    6.374739607    3.138127495
    0.881969950    5.023088606    6.370412339    3.136329679
    0.889148581    5.019251710    6.366056943    3.134520379
    0.896327212    5.015391728    6.361673574    3.132699666
    0.903505843    5.011508829    6.357262393    3.130867607
    0.910684474    5.007603178    6.352823557    3.129024274
    0.917863105    5.003674944    6.348357227    3.127169736
    0.925041736    4.999724294    6.343863562    3.125304062
    0.932220367    4.995751396    6.339342722    3.123427324
    0.939398998    4.991756420    6.334794870    3.121539592
    0.946577629    4.987739532    6.330220166    3.119640937
    0.953756260    4.983700904    6.325618772    3.117731429
    0.960934891    4.979640703    6.320990852    3.115811139
    0.968113523    4.975559100    6.316336568    3.113880139
    0.975292154    4.971456264    6.311656083    3.111938501
    0.982470785    4.967332365    6.306949562    3.109986295
    0.989649416    4.963187574    6.302217168    3.108023593
    0.996828047    4.959022060    6.297459067    3.106050468
    1.004006678    4.954835994    6.292675423    3.104066991
    1.011185309    4.950629547    6.287866402    3.102073235
    1.018363940    4.946402889    6.283032170    3.100069271
    1.025542571    4.942156192    6.278172894    3.098055173
    1.032721202    4.937889627    6.273288739    3.096031012
    1.039899833    4.933603364    6.268379873    3.093996862
    1.047078464    4.929297575    6.263446462    3.091952795
    1.054257095    4.924972430    6.258488675    3.089898883
    1.061435726    4.920628102    6.253506679    3.087835201
    1.068614357    4.916264762    6.248500643    3.085761820
    1.075792988    4.911882580    6.243470734    3.083678814
    1.082971619    4.907481728    6.238417122    3.081586257
    1.090150250    4.903062378    6.233339974    3.079484221
    1.097328881    4.898624701    6.228239461    3.077372780
    1.104507513    4.894168867    6.223115752    3.075252007
    1.111686144    4.889695049    6.217969016    3.073121975
    1.118864775    4.885203417    6.212799423    3.070982759
    1.126043406    4.880694142    6.207607143    3.068834432
    1.133222037    4.876167395    6.202392345    3.066677067
    1.140400668    4.871623347    6.197155201    3.064510738
    1.147579299    4.867062170    6.191895881    3.062335518
    1.154757930    4.862484032    6.186614554    3.060151482
    1.161936561    4.857889105    6.181311392    3.057958702
    1.169115192    4.853277559    6.175986566    3.055757253
    1.176293823    4.848649564    6.170640246    3.053547209
    1.183472454    4.844005290    6.165272603    3.051328643
    1.190651085    4.839344907    6.159883809    3.049101629
    1.197829716    4.834668584    6.154474034    3.046866240
    1.205008347    4.829976491    6.149043450    3.044622550
    1.212186978    4.825268796    6.143592228    3.042370633
    1.219365609    4.820545668    6.138120538    3.040110563
    1.226544240    4.815807277    6.132628553    3.037842414
    1.233722871    4.811053789    6.127116443    3.035566258
    1.240901503    4.806285374    6.121584379    3.033282169
    1.248080134    4.801502198    6.116032534    3.030990221
    1.255258765    4.796704430    6.110461078    3.028690488
    1.262437396    4.791892236    6.104870182    3.026383042
    1.269616027    4.787065783    6.099260017    3.024067958
    1.276794658    4.782225237    6.093630755    3.021745308
    1.283973289    4.777370766    6.087982566    3.019415166
    1.291151920    4.772502534    6.082315621    3.017077605
    1.298330551    4.767620706    6.076630092    3.014732698
    1.305509182    4.762725449    6.070926148    3.012380518
    1.312687813    4.757816925    6.065203961    3.010021138
    1.319866444    4.752895301    6.059463701    3.007654631
    1.327045075    4.747960739    6.053705538    3.005281069
    1.334223706    4.743013402    6.047929643    3.002900526
    1.341402337    4.738053455    6.042136186    3.000513074
    1.348580968    4.733081059    6.036325336    2.998118784
    1.355759599    4.728096377    6.030497263    2.995717731
    1.362938230    4.723099569    6.024652137    2.993309985
    1.370116861    4.718090799    6.018790128    2.990895619
    1.377295492    4.713070225    6.012911404    2.988474706
    1.384474124    4.708038009    6.007016134    2.986047316
    1.391652755    4.702994310    6.001104488    2.983613522
    1.398831386    4.697939287    5.995176633    2.981173395
    1.406010017    4.692873100    5.989232739    2.978727007
    1.413188648    4.687795906    5.983272972    2.976274428
    1.420367279    4.682707864    5.977297502    2.973815732
    1.427545910    4.677609130    5.971306495    2.971350987
    1.434724541    4.672499862    5.965300118    2.968880266
    1.441903172    4.667380215    5.959278539    2.966403638
    1.449081803    4.662250346    5.953241925    2.963921175
    1.456260434    4.657110408    5.947190442    2.961432947
    1.463439065    4.651960557    5.941124255    2.958939024
    1.470617696    4.646800948    5.935043531    2.956439477
    1.477796327    4.641631732    5.928948436    2.953934374
    1.484974958    4.636453063    5.922839134    2.951423787
    1.492153589    4.631265093    5.916715790    2.948907784
    1.499332220    4.626067974    5.910578568    2.946386435
    1.506510851    4.620861857    5.904427634    2.943859809
    1.513689482    4.615646892    5.898263150    2.941327975
    1.520868114    4.610423229    5.892085280    2.938791002
    1.528046745    4.605191018    5.885894186    2.936248958
    1.535225376    4.599950406    5.879690033    2.933701913
    1.542404007    4.594701542    5.873472981    2.931149933
    1.549582638    4.589444574    5.867243192    2.928593088
    1.556761269    4.584179647    5.861000829    2.926031445
    1.563939900    4.578906909    5.854746052    2.923465071
    1.571118531    4.573626503    5.848479022    2.920894034
    1.578297162    4.568338576    5.842199898    2.918318402
    1.585475793    4.563043271    5.835908842    2.915738240
    1.592654424    4.557740732    5.829606011    2.913153617
    1.599833055    4.552431101    5.823291565    2.910564597
    1.607011686    4.547114521    5.816965662    2.907971249
    1.614190317    4.541791133    5.810628461    2.905373637
    1.621368948    4.536461078    5.804280118    2.902771828
    1.628547579    4.531124495    5.797920791    2.900165887
    1.635726210    4.525781525    5.791550637    2.897555879
    1.642904841    4.520432306    5.785169811    2.894941870
    1.650083472    4.515076975    5.778778469    2.892323925
    1.657262104    4.509715671    5.772376766    2.889702108
    1.664440735    4.504348530    5.765964857    2.887076483
    1.671619366    4.498975688    5.759542895    2.884447116
    1.678797997    4.493597280    5.753111035    2.881814069
    1.685976628    4.488213440    5.746669430    2.879177406
    1.693155259    4.482824303    5.740218231    2.876537192
    1.700333890    4.477430001    5.733757591    2.873893488
    1.707512521    4.472030667    5.727287662    2.871246358
    1.714691152    4.466626432    5.720808595    2.868595865
    1.721869783    4.461217428    5.714320539    2.865942071
    1.729048414    4.455803784    5.707823645    2.863285037
    1.736227045    4.450385631    5.701318062    2.860624827
    1.743405676    4.444963095    5.694803938    2.857961501
    1.750584307    4.439536307    5.688281423    2.855295121
    1.757762938    4.434105393    5.681750664    2.852625748
    1.764941569    4.428670479    5.675211807    2.849953442
    1.772120200    4.423231692    5.668664999    2.847278265
    1.779298831    4.417789155    5.662110386    2.844600277
    1.786477462    4.412342995    5.655548114    2.841919536
    1.793656093    4.406893334    5.648978327    2.839236104
    1.800834725    4.401440295    5.642401169    2.836550040
    1.808013356    4.395984001    5.635816784    2.833861402
    1.815191987    4.390524571    5.629225315    2.831170250
    1.822370618    4.385062129    5.622626905    2.828476643
    1.829549249    4.379596792    5.616021694    2.825780638
    1.836727880    4.374128680    5.609409824    2.823082293
    1.843906511    4.368657912    5.602791436    2.820381667
    1.851085142    4.363184604    5.596166670    2.817678816
    1.858263773    4.357708875    5.589535665    2.814973798
    1.865442404    4.352230840    5.582898559    2.812266671
    1.872621035    4.346750614    5.576255490    2.809557489
    1.879799666    4.341268312    5.569606597    2.806846310
    1.886978297    4.335784048    5.562952016    2.804133190
    1.894156928    4.330297935    5.556291883    2.801418185
    1.901335559    4.324810085    5.549626334    2.798701349
    1.908514190    4.319320609    5.542955502    2.795982738
    1.915692821    4.313829620    5.536279524    2.793262408
    1.922871452    4.308337226    5.529598532    2.790540411
    1.930050083    4.302843537    5.522912660    2.787816803
    1.937228715    4.297348662    5.516222038    2.785091638
    1.944407346    4.291852708    5.509526801    2.782364969
    1.951585977    4.286355782    5.502827077    2.779636850
    1.958764608    4.280857992    5.496122998    2.776907334
    1.965943239    4.275359441    5.489414694    2.774176472
    1.973121870    4.269860236    5.482702293    2.771444319
    1.980300501    4.264360479    5.475985923    2.768710926
    1.987479132    4.258860275    5.469265713    2.765976345
    1.994657763    4.253359727    5.462541790    2.763240628
    2.001836394    4.247858935    5.455814279    2.760503825
    2.009015025    4.242358000    5.449083307    2.757765988
    2.016193656    4.236857024    5.442348999    2.755027167
    2.023372287    4.231356106    5.435611478    2.752287413
    2.030550918    4.225855344    5.428870869    2.749546776
    2.037729549    4.220354836    5.422127295    2.746805306
    2.044908180    4.214854681    5.415380878    2.744063051
    2.052086811    4.209354973    5.408631740    2.741320062
    2.059265442    4.203855811    5.401880001    2.738576387
    2.066444073    4.198357287    5.395125782    2.735832075
    2.073622705    4.192859497    5.388369203    2.733087173
    2.080801336    4.187362535    5.381610382    2.730341730
    2.087979967    4.181866493    5.374849438    2.727595793
    2.095158598    4.176371463    5.368086488    2.724849410
    2.102337229    4.170877538    5.361321650    2.722102628
    2.109515860    4.165384806    5.354555039    2.719355494
    2.116694491    4.159893359    5.347786771    2.716608053
    2.123873122    4.154403286    5.341016960    2.713860352
    2.131051753    4.148914675    5.334245722    2.711112437
    2.138230384    4.143427615    5.327473169    2.708364353
    2.145409015    4.137942191    5.320699414    2.705616146
    2.152587646    4.132458491    5.313924570    2.702867860
    2.159766277    4.126976599    5.307148747    2.700119541
    2.166944908    4.121496602    5.300372056    2.697371231
    2.174123539    4.116018583    5.293594608    2.694622976
    2.181302170    4.110542625    5.286816511    2.691874819
    2.188480801    4.105068812    5.280037875    2.689126803
    2.195659432    4.099597226    5.273258807    2.686378972
    2.202838063    4.094127947    5.266479415    2.683631368
    2.210016694    4.088661056    5.259699804    2.680884033
    2.217195326    4.083196635    5.252920082    2.678137011
    2.224373957    4.077734760    5.246140353    2.675390342
    2.231552588    4.072275512    5.239360721    2.672644069
    2.238731219    4.066818969    5.232581291    2.669898232
    2.245909850    4.061365206    5.225802165    2.667152873
    2.253088481    4.055914301    5.219023447    2.664408033
    2.260267112    4.050466330    5.212245237    2.661663751
    2.267445743    4.045021368    5.205467638    2.658920068
    2.274624374    4.039579488    5.198690748    2.656177023
    2.281803005    4.034140766    5.191914669    2.653434657
    2.288981636    4.028705273    5.185139498    2.650693007
    2.296160267    4.023273083    5.178365335    2.647952114
    2.303338898    4.017844266    5.171592277    2.645212016
    2.310517529    4.012418895    5.164820420    2.642472751
    2.317696160    4.006997040    5.158049862    2.639734357
    2.324874791    4.001578769    5.151280697    2.636996872
    2.332053422    3.996164153    5.144513022    2.634260333
    2.339232053    3.990753259    5.137746929    2.631524778
    2.346410684    3.985346156    5.130982512    2.628790242
    2.353589316    3.979942910    5.124219865    2.626056764
    2.360767947    3.974543589    5.117459080    2.623324379
    2.367946578    3.969148257    5.110700248    2.620593123
    2.375125209    3.963756980    5.103943459    2.617863031
    2.382303840    3.958369822    5.097188805    2.615134140
    2.389482471    3.952986848    5.090436375    2.612406484
    2.396661102    3.947608120    5.083686257    2.609680099
    2.403839733    3.942233701    5.076938540    2.606955018
    2.411018364    3.936863653    5.070193311    2.604231276
    2.418196995    3.931498038    5.063450657    2.601508907
    2.425375626    3.926136916    5.056710664    2.598787944
    2.432554257    3.920780347    5.049973418    2.596068422
    2.439732888    3.915428391    5.043239003    2.593350372
    2.446911519    3.910081107    5.036507505    2.590633829
    2.454090150    3.904738552    5.029779006    2.587918824
    2.461268781    3.899400785    5.023053589    2.585205391
    2.468447412    3.894067862    5.016331336    2.582493560
    2.475626043    3.888739841    5.009612329    2.579783364
    2.482804674    3.883416776    5.002896650    2.577074834
    2.489983306    3.878098723    4.996184377    2.574368001
    2.497161937    3.872785737    4.989475592    2.571662897
    2.504340568    3.867477871    4.982770372    2.568959551
    2.511519199    3.862175180    4.976068796    2.566257995
    2.518697830    3.856877716    4.969370942    2.563558258
    2.525876461    3.851585531    4.962676887    2.560860370
    2.533055092    3.846298677    4.955986707    2.558164361
    2.540233723    3.841017205    4.949300478    2.555470260
