# energy grid [eV]     epsr_x  epsr_y  epsr_z
#
    0.200000000   14.769720326   14.732414335    2.076945816
    0.207178631   14.773268753   14.735933744    2.077092770
    0.214357262   14.776944596   14.739579531    2.077245115
    0.221535893   14.780748097   14.743351937    2.077402872
    0.228714524   14.784679509   14.747251213    2.077566067
    0.235893155   14.788739091   14.751277617    2.077734724
    0.243071786   14.792927113   14.755431420    2.077908869
    0.250250417   14.797243854   14.759712897    2.078088530
    0.257429048   14.801689602   14.764122336    2.078273736
    0.264607679   14.806264653   14.768660033    2.078464515
    0.271786311   14.810969316   14.773326293    2.078660899
    0.278964942   14.815803905   14.778121433    2.078862920
    0.286143573   14.820768747   14.783045778    2.079070612
    0.293322204   14.825864176   14.788099661    2.079284009
    0.300500835   14.831090539   14.793283428    2.079503147
    0.307679466   14.836448190   14.798597433    2.079728065
    0.314858097   14.841937495   14.804042042    2.079958801
    0.322036728   14.847558828   14.809617630    2.080195396
    0.329215359   14.853312576   14.815324583    2.080437893
    0.336393990   14.859199135   14.821163297    2.080686335
    0.343572621   14.865218910   14.827134179    2.080940768
    0.350751252   14.871372319   14.833237647    2.081201241
    0.357929883   14.877659790   14.839474131    2.081467801
    0.365108514   14.884081763   14.845844071    2.081740502
    0.372287145   14.890638686   14.852347919    2.082019395
    0.379465776   14.897331022   14.858986138    2.082304537
    0.386644407   14.904159243   14.865759205    2.082595986
    0.393823038   14.911123834   14.872667607    2.082893802
    0.401001669   14.918225291   14.879711844    2.083198047
    0.408180301   14.925464122   14.886892429    2.083508786
    0.415358932   14.932840849   14.894209887    2.083826088
    0.422537563   14.940356004   14.901664756    2.084150022
    0.429716194   14.948010133   14.909257589    2.084480662
    0.436894825   14.955803795   14.916988952    2.084818084
    0.444073456   14.963737561   14.924859423    2.085162369
    0.451252087   14.971812018   14.932869598    2.085513598
    0.458430718   14.980027763   14.941020084    2.085871859
    0.465609349   14.988385411   14.949311506    2.086237242
    0.472787980   14.996885587   14.957744503    2.086609841
    0.479966611   15.005528936   14.966319730    2.086989753
    0.487145242   15.014316112   14.975037858    2.087377082
    0.494323873   15.023247788   14.983899576    2.087771934
    0.501502504   15.032324653   14.992905589    2.088174422
    0.508681135   15.041547410   15.002056621    2.088584662
    0.515859766   15.050916779   15.011353414    2.089002777
    0.523038397   15.060433497   15.020796728    2.089428894
    0.530217028   15.070098320   15.030387343    2.089863147
    0.537395659   15.079912019   15.040126061    2.090305677
    0.544574290   15.089875386   15.050013703    2.090756631
    0.551752922   15.099989229   15.060051114    2.091216163
    0.558931553   15.110254379   15.070239158    2.091684434
    0.566110184   15.120671683   15.080578726    2.092161615
    0.573288815   15.131242013   15.091070733    2.092647885
    0.580467446   15.141966258   15.101716118    2.093143430
    0.587646077   15.152845333   15.112515849    2.093648448
    0.594824708   15.163880173   15.123470920    2.094163147
    0.602003339   15.175071739   15.134582354    2.094687747
    0.609181970   15.186421014   15.145851207    2.095222478
    0.616360601   15.197929010   15.157278565    2.095767584
    0.623539232   15.209596762   15.168865550    2.096323323
    0.630717863   15.221425335   15.180613316    2.096889966
    0.637896494   15.233415822   15.192523059    2.097467802
    0.645075125   15.245569346   15.204596012    2.098057137
    0.652253756   15.257887062   15.216833451    2.098658292
    0.659432387   15.270370156   15.229236696    2.099271612
    0.666611018   15.283019852   15.241807117    2.099897462
    0.673789649   15.295837406   15.254546131    2.100536228
    0.680968280   15.308824115   15.267455213    2.101188324
    0.688146912   15.321981315   15.280535892    2.101854190
    0.695325543   15.335310383   15.293789761    2.102534296
    0.702504174   15.348812742   15.307218481    2.103229142
    0.709682805   15.362489861   15.320823781    2.103939265
    0.716861436   15.376343260   15.334607471    2.104665242
    0.724040067   15.390374509   15.348571444    2.105407688
    0.731218698   15.404585238   15.362717681    2.106167266
    0.738397329   15.418977134   15.377048266    2.106944690
    0.745575960   15.433551948   15.391565388    2.107740728
    0.752754591   15.448311501   15.406271354    2.108556210
    0.759933222   15.463257685   15.421168603    2.109392033
    0.767111853   15.478392471   15.436259711    2.110249169
    0.774290484   15.493717916   15.451547416    2.111128674
    0.781469115   15.509236165   15.467034625    2.112031694
    0.788647746   15.524949464   15.482724442    2.112959481
    0.795826377   15.540860165   15.498620180    2.113913402
    0.803005008   15.556970734   15.514725397    2.114894950
    0.810183639   15.573283766   15.531043917    2.115905768
    0.817362270   15.589801991   15.547579867    2.116947662
    0.824540902   15.606528291   15.564337717    2.118022625
    0.831719533   15.623465713   15.581322326    2.119132860
    0.838898164   15.640617486   15.598538995    2.120280814
    0.846076795   15.657987040   15.615993534    2.121469211
    0.853255426   15.675578029   15.633692337    2.122701093
    0.860434057   15.693394351   15.651642473    2.123979873
    0.867612688   15.711440183   15.669851797    2.125309390
    0.874791319   15.729720010   15.688329084    2.126693984
    0.881969950   15.748238665   15.707084187    2.128138583
    0.889148581   15.767001368   15.726128242    2.129648809
    0.896327212   15.786013786   15.745473906    2.131231105
    0.903505843   15.805282088   15.765135669    2.132892905
    0.910684474   15.824813018   15.785130231    2.134642826
    0.917863105   15.844613980   15.805476993    2.136490932
    0.925041736   15.864693139   15.826198674    2.138449055
    0.932220367   15.885059544   15.847322113    2.140531211
    0.939398998   15.905723276   15.868879322    2.142754146
    0.946577629   15.926695627   15.890908862    2.145138049
    0.953756260   15.947989321   15.913457701    2.147707504
    0.960934891   15.969618792   15.936583720    2.150492769
    0.968113523   15.991600526   15.960359142    2.153531528
    0.975292154   16.013953496   15.984875301    2.156871303
    0.982470785   16.036699727   16.010249294    2.160572819
    0.989649416   16.059865014   16.036633326    2.164714713
    0.996828047   16.083479867   16.064227679    2.169400059
    1.004006678   16.107580731   16.093297945    2.174765044
    1.011185309   16.132211536   16.124194761    2.180989007
    1.018363940   16.157425441   16.157363691    2.188299964
    1.025542571   16.183285949   16.193290532    2.196949481
    1.032721202   16.209863560   16.232159063    2.207050059
    1.039899833   16.237212335   16.272334798    2.217850087
    1.047078464   16.265271197   16.304588330    2.224966148
    1.054257095   16.293629118   16.298817793    2.214012303
    1.061435726   16.321964531   16.230090107    2.173015527
    1.068614357   16.351691057   16.177560316    2.139563972
    1.075792988   16.383162636   16.183146704    2.132473148
    1.082971619   16.414956151   16.201500033    2.128127708
    1.090150250   16.448747802   16.223324661    2.125067298
    1.097328881   16.487311076   16.261451618    2.133660237
    1.104507513   16.530413417   16.308666910    2.149053486
    1.111686144   16.577594684   16.358387873    2.166643158
    1.118864775   16.627449898   16.407745217    2.184640940
    1.126043406   16.672253412   16.450097194    2.199480038
    1.133222037   16.689159198   16.467280696    2.201515143
    1.140400668   16.662895269   16.452975821    2.189002025
    1.147579299   16.613728558   16.435795302    2.177205082
    1.154757930   16.571757430   16.424124121    2.145520722
    1.161936561   16.565258050   16.417827264    2.071625005
    1.169115192   16.582418691   16.428153294    2.017273288
    1.176293823   16.576162845   16.444943108    2.007965896
    1.183472454   16.511567523   16.445584721    2.011698928
    1.190651085   16.479715733   16.458478077    2.021125626
    1.197829716   16.513050114   16.494378479    2.035339045
    1.205008347   16.569912192   16.537900714    2.050012233
    1.212186978   16.628979156   16.581334917    2.063510089
    1.219365609   16.683179595   16.622164523    2.075650898
    1.226544240   16.730601956   16.659761755    2.086656131
    1.233722871   16.778422990   16.697110742    2.097264271
    1.240901503   16.827531969   16.735067617    2.106719013
    1.248080134   16.861238285   16.768921112    2.109454136
    1.255258765   16.846744528   16.789823994    2.093249557
    1.262437396   16.798727154   16.801688140    2.063938224
    1.269616027   16.795020792   16.825233775    2.051786443
    1.276794658   16.831162733   16.859325588    2.055046763
    1.283973289   16.878185210   16.896313221    2.062444892
    1.291151920   16.925528107   16.933427337    2.069864645
    1.298330551   16.971014690   16.970118844    2.076451510
    1.305509182   17.014615903   17.006404227    2.082188086
    1.312687813   17.056712829   17.042405171    2.087218030
    1.319866444   17.097689363   17.078241203    2.091687218
    1.327045075   17.137856359   17.114010164    2.095713902
    1.334223706   17.177452792   17.149788989    2.099388916
    1.341402337   17.216660998   17.185638113    2.102781429
    1.348580968   17.255621230   17.221605625    2.105944486
    1.355759599   17.294442903   17.257730472    2.108919296
    1.362938230   17.333212776   17.294044817    2.111738356
    1.370116861   17.372000820   17.330575736    2.114427695
    1.377295492   17.410864419   17.367346454    2.117008481
    1.384474124   17.449851424   17.404377256    2.119498186
    1.391652755   17.489002378   17.441686157    2.121911443
    1.398831386   17.528352178   17.479289419    2.124260684
    1.406010017   17.567931322   17.517201937    2.126556621
    1.413188648   17.607766870   17.555437550    2.128808619
    1.420367279   17.647883181   17.594009287    2.131024983
    1.427545910   17.688302504   17.632929565    2.133213194
    1.434724541   17.729045450   17.672210354    2.135380095
    1.441903172   17.770131378   17.711863323    2.137532052
    1.449081803   17.811578716   17.751899961    2.139675088
    1.456260434   17.853405250   17.792331692    2.141815009
    1.463439065   17.895628359   17.833169978    2.143957512
    1.470617696   17.938265256   17.874426424    2.146108300
    1.477796327   17.981333191   17.916112877    2.148273186
    1.484974958   18.024849675   17.958241540    2.150458217
    1.492153589   18.068832698   18.000825078    2.152669798
    1.499332220   18.113300966   18.043876752    2.154914837
    1.506510851   18.158274164   18.087410562    2.157200921
    1.513689482   18.203773265   18.131441416    2.159536523
    1.520868114   18.249820885   18.175985332    2.161931254
    1.528046745   18.296441726   18.221059682    2.164396195
    1.535225376   18.343663116   18.266683494    2.166944305
    1.542404007   18.391515704   18.312877832    2.169590970
    1.549582638   18.440034352   18.359666278    2.172354713
    1.556761269   18.489259307   18.407075555    2.175258165
    1.563939900   18.539237772   18.455136348    2.178329372
    1.571118531   18.590026029   18.503884392    2.181603605
    1.578297162   18.641692364   18.553361952    2.185125889
    1.585475793   18.694321108   18.603619828    2.188954540
    1.592654424   18.748018219   18.654720126    2.193166156
    1.599833055   18.802918807   18.706740067    2.197862468
    1.607011686   18.859196369   18.759777055    2.203179161
    1.614190317   18.917070562   18.813954821    2.209294710
    1.621368948   18.976798305   18.869428263    2.216428793
    1.628547579   19.038585206   18.926375937    2.224786135
    1.635726210   19.102164562   18.984934633    2.234267796
    1.642904841   19.165101605   19.044894009    2.243273202
    1.650083472   19.217785241   19.104494323    2.244823875
    1.657262104   19.244091600   19.157155662    2.223076013
    1.664440735   19.261282594   19.193415406    2.175225704
    1.671619366   19.304823455   19.228605472    2.136160867
    1.678797997   19.371416451   19.284013520    2.128443299
    1.685976628   19.447609590   19.352347317    2.136233819
    1.693155259   19.527998424   19.426124355    2.147218427
    1.700333890   19.612010798   19.503592379    2.157936985
    1.707512521   19.700375044   19.584770449    2.167840379
    1.714691152   19.793055477   19.668496707    2.176771822
    1.721869783   19.884753970   19.746389622    2.183465421
    1.729048414   19.950398521   19.787807233    2.183387607
    1.736227045   19.923132361   19.745976167    2.173013332
    1.743405676   19.774215680   19.653527810    2.164350586
    1.750584307   19.681951763   19.626356959    2.165024441
    1.757762938   19.720687939   19.681942975    2.170365416
    1.764941569   19.811323482   19.767201002    2.176657667
    1.772120200   19.910757528   19.856685813    2.182782265
    1.779298831   20.008167045   19.944381212    2.188583676
    1.786477462   20.102240382   20.029811769    2.194142560
    1.793656093   20.193790319   20.113696688    2.199582507
    1.800834725   20.283938567   20.196901817    2.205029853
    1.808013356   20.373745505   20.280241348    2.210612114
    1.815191987   20.464191775   20.364484876    2.216466036
    1.822370618   20.556234231   20.450404211    2.222747329
    1.829549249   20.650843650   20.538793555    2.229635371
    1.836727880   20.748897446   20.630337788    2.237310399
    1.843906511   20.850470391   20.724854698    2.245812662
    1.851085142   20.951745107   20.818066159    2.254428978
    1.858263773   21.034084842   20.890333747    2.259499877
    1.865442404   21.048254391   20.892114868    2.250920449
    1.872621035   20.986238240   20.828847979    2.224441213
    1.879799666   20.956847801   20.829486878    2.198661402
    1.886978297   21.004134719   20.903866513    2.189369396
    1.894156928   21.099278965   21.002031968    2.194784698
    1.901335559   21.208202110   21.103551056    2.205320026
    1.908514190   21.318097317   21.203879066    2.216857853
    1.915692821   21.426524258   21.302744427    2.228609385
    1.922871452   21.533627369   21.400706027    2.240518243
    1.930050083   21.639357597   21.498094079    2.251727310
    1.937228715   21.741257681   21.593975965    2.257775966
    1.944407346   21.833730737   21.684571659    2.247787479
    1.951585977   21.920117909   21.764992265    2.216720078
    1.958764608   22.012781060   21.840192002    2.181025452
    1.965943239   22.116547707   21.926809315    2.167777272
    1.973121870   22.227901372   22.024264400    2.172672549
    1.980300501   22.343265677   22.125773553    2.182455763
    1.987479132   22.461940196   22.228855477    2.192274800
    1.994657763   22.584456900   22.333113944    2.201156840
    2.001836394   22.711643027   22.438697696    2.209124668
    2.009015025   22.843826348   22.545828962    2.216379942
    2.016193656   22.978308342   22.654530430    2.223078752
    2.023372287   23.100131124   22.763958517    2.229162421
    2.030550918   23.163359089   22.871075424    2.234083240
    2.037729549   23.142847976   22.974218009    2.237566939
    2.044908180   23.162962309   23.081854677    2.241485142
    2.052086811   23.269929337   23.195830437    2.246444608
    2.059265442   23.404963563   23.310266757    2.251472435
    2.066444073   23.550851250   23.428258880    2.256779880
    2.073622705   23.712258393   23.554531283    2.262914720
    2.080801336   23.884495362   23.687218692    2.269735439
    2.087979967   24.065422420   23.825110992    2.277181531
    2.095158598   24.255442813   23.968431014    2.285285647
    2.102337229   24.451074770   24.117412867    2.293718823
    2.109515860   24.627952772   24.269915984    2.300383491
    2.116694491   24.696617611   24.415668794    2.297686337
    2.123873122   24.539081475   24.540703097    2.275627191
    2.131051753   24.374841116   24.673107338    2.252710799
    2.138230384   24.446057790   24.836619626    2.249422191
    2.145409015   24.633192596   24.980074126    2.255975648
    2.152587646   24.813098061   24.989428904    2.262869133
    2.159766277   24.954514653   24.844302981    2.267564851
    2.166944908   25.128981762   24.816911658    2.273518966
    2.174123539   25.350790020   24.959182785    2.281369665
    2.181302170   25.580506493   25.152336285    2.288770634
    2.188480801   25.771779912   25.320973015    2.292402443
    2.195659432   25.906037345   25.443285654    2.291087592
    2.202838063   26.058581004   25.586836442    2.292030514
    2.210016694   26.188884812   25.766136996    2.296476034
    2.217195326   26.178463511   25.942247344    2.300060053
    2.224373957   26.176765544   26.116651075    2.303790237
    2.231552588   26.311664346   26.295449203    2.309203737
    2.238731219   26.532921794   26.485303128    2.316007426
    2.245909850   26.817786628   26.696572459    2.324542921
    2.253088481   27.121815498   26.913149253    2.334120660
    2.260267112   27.426120154   27.133865401    2.344063566
    2.267445743   27.697359991   27.368200366    2.352834039
    2.274624374   27.741961998   27.588347236    2.355181645
    2.281803005   27.331395986   27.759103192    2.345002089
    2.288981636   26.943060556   27.945663251    2.335804023
    2.296160267   27.010766899   28.194424715    2.339642642
    2.303338898   27.278846974   28.402709813    2.348743056
    2.310517529   27.558018173   28.379195768    2.356856145
    2.317696160   27.848064295   28.133368610    2.364383928
    2.324874791   28.139893722   28.084237244    2.373532885
    2.332053422   28.383774810   28.258969135    2.382223160
    2.339232053   28.624193187   28.521670750    2.392123423
    2.346410684   28.913703944   28.830290085    2.404648355
    2.353589316   29.201017468   29.135826354    2.413167000
    2.360767947   29.426526587   29.405271990    2.415489365
    2.367946578   29.608502626   29.656565000    2.414887801
    2.375125209   29.840138961   29.900177242    2.397720495
    2.382303840   30.095705989   30.116201286    2.358144080
    2.389482471   30.365626345   30.360963992    2.335661287
    2.396661102   30.684248625   30.663345389    2.342790320
    2.403839733   31.013622799   30.985452671    2.360026861
    2.411018364   31.309762412   31.306131557    2.375971342
    2.418196995   31.584887001   31.628403543    2.391565690
    2.425375626   31.900109261   31.962674968    2.407220069
    2.432554257   32.239388418   32.284905010    2.409558923
    2.439732888   32.548134782   32.577822308    2.391577390
    2.446911519   32.833138004   32.877787713    2.370250932
    2.454090150   33.152662097   33.232868597    2.359731992
    2.461268781   33.526117988   33.640538524    2.366207383
    2.468447412   33.935396661   34.055239306    2.384353951
    2.475626043   34.329280031   34.427301560    2.395511912
    2.482804674   34.718131790   34.771615926    2.392449016
    2.489983306   35.147921482   35.108567116    2.390570153
    2.497161937   35.600582645   35.417910027    2.385335011
    2.504340568   36.072280238   35.787211583    2.374246032
    2.511519199   36.542802810   36.242400663    2.367821031
    2.518697830   36.948465196   36.710999592    2.351826101
    2.525876461   37.371404907   37.204898585    2.339306539
    2.533055092   37.908242770   37.770386892    2.336473152
    2.540233723   38.508366750   38.383114793    2.335797025
