# energy grid [eV]     ieps_x  ieps_y  ieps_z
#
    0.200000000   11.066348727    9.309037744   11.081417842
    0.207178631   11.063741846    9.306998050   11.078899071
    0.214357262   11.061044537    9.304887546   11.076292870
    0.221535893   11.058256954    9.302706345   11.073599381
    0.228714524   11.055379258    9.300454565   11.070818751
    0.235893155   11.052411610    9.298132330   11.067951131
    0.243071786   11.049354180    9.295739763   11.064996679
    0.250250417   11.046207142    9.293276995   11.061955555
    0.257429048   11.042970673    9.290744158   11.058827925
    0.264607679   11.039644957    9.288141388   11.055613957
    0.271786311   11.036230183    9.285468825   11.052313828
    0.278964942   11.032726544    9.282726614   11.048927716
    0.286143573   11.029134236    9.279914902   11.045455805
    0.293322204   11.025453464    9.277033838   11.041898281
    0.300500835   11.021684433    9.274083578   11.038255338
    0.307679466   11.017827357    9.271064280   11.034527172
    0.314858097   11.013882452    9.267976105   11.030713985
    0.322036728   11.009849939    9.264819217   11.026815981
    0.329215359   11.005730044    9.261593785   11.022833370
    0.336393990   11.001522998    9.258299981   11.018766366
    0.343572621   10.997229036    9.254937979   11.014615188
    0.350751252   10.992848397    9.251507959   11.010380057
    0.357929883   10.988381325    9.248010102   11.006061200
    0.365108514   10.983828070    9.244444593   11.001658849
    0.372287145   10.979188883    9.240811621   10.997173236
    0.379465776   10.974464022    9.237111378   10.992604602
    0.386644407   10.969653749    9.233344058   10.987953190
    0.393823038   10.964758330    9.229509860   10.983219246
    0.401001669   10.959778034    9.225608985   10.978403022
    0.408180301   10.954713136    9.221641638   10.973504771
    0.415358932   10.949563915    9.217608027   10.968524754
    0.422537563   10.944330654    9.213508362   10.963463233
    0.429716194   10.939013639    9.209342857   10.958320474
    0.436894825   10.933613161    9.205111730   10.953096747
    0.444073456   10.928129514    9.200815201   10.947792328
    0.451252087   10.922562999    9.196453492   10.942407493
    0.458430718   10.916913918    9.192026830   10.936942525
    0.465609349   10.911182577    9.187535443   10.931397708
    0.472787980   10.905369287    9.182979564   10.925773332
    0.479966611   10.899474362    9.178359428   10.920069688
    0.487145242   10.893498121    9.173675271   10.914287074
    0.494323873   10.887440885    9.168927335   10.908425789
    0.501502504   10.881302981    9.164115863   10.902486135
    0.508681135   10.875084737    9.159241100   10.896468419
    0.515859766   10.868786486    9.154303296   10.890372951
    0.523038397   10.862408565    9.149302702   10.884200045
    0.530217028   10.855951313    9.144239571   10.877950016
    0.537395659   10.849415074    9.139114162   10.871623185
    0.544574290   10.842800194    9.133926732   10.865219874
    0.551752922   10.836107025    9.128677545   10.858740411
    0.558931553   10.829335918    9.123366864   10.852185124
    0.566110184   10.822487232    9.117994956   10.845554346
    0.573288815   10.815561325    9.112562091   10.838848412
    0.580467446   10.808558561    9.107068541   10.832067661
    0.587646077   10.801479307    9.101514580   10.825212436
    0.594824708   10.794323932    9.095900483   10.818283079
    0.602003339   10.787092808    9.090226532   10.811279940
    0.609181970   10.779786311    9.084493006   10.804203367
    0.616360601   10.772404819    9.078700189   10.797053715
    0.623539232   10.764948713    9.072848367   10.789831340
    0.630717863   10.757418378    9.066937827   10.782536599
    0.637896494   10.749814200    9.060968861   10.775169854
    0.645075125   10.742136569    9.054941759   10.767731470
    0.652253756   10.734385878    9.048856817   10.760221813
    0.659432387   10.726562522    9.042714330   10.752641251
    0.666611018   10.718666898    9.036514597   10.744990157
    0.673789649   10.710699407    9.030257919   10.737268905
    0.680968280   10.702660451    9.023944597   10.729477872
    0.688146912   10.694550436    9.017574936   10.721617435
    0.695325543   10.686369768    9.011149242   10.713687977
    0.702504174   10.678118859    9.004667823   10.705689881
    0.709682805   10.669798121    8.998130988   10.697623534
    0.716861436   10.661407967    8.991539049   10.689489322
    0.724040067   10.652948815    8.984892320   10.681287636
    0.731218698   10.644421084    8.978191114   10.673018868
    0.738397329   10.635825195    8.971435749   10.664683413
    0.745575960   10.627161570    8.964626543   10.656281667
    0.752754591   10.618430636    8.957763816   10.647814028
    0.759933222   10.609632819    8.950847889   10.639280897
    0.767111853   10.600768548    8.943879085   10.630682676
    0.774290484   10.591838254    8.936857728   10.622019769
    0.781469115   10.582842369    8.929784144   10.613292581
    0.788647746   10.573781329    8.922658661   10.604501520
    0.795826377   10.564655570    8.915481606   10.595646996
    0.803005008   10.555465529    8.908253310   10.586729419
    0.810183639   10.546211645    8.900974104   10.577749202
    0.817362270   10.536894361    8.893644321   10.568706759
    0.824540902   10.527514118    8.886264294   10.559602506
    0.831719533   10.518071360    8.878834358   10.550436859
    0.838898164   10.508566534    8.871354849   10.541210238
    0.846076795   10.499000085    8.863826105   10.531923062
    0.853255426   10.489372463    8.856248463   10.522575753
    0.860434057   10.479684116    8.848622264   10.513168733
    0.867612688   10.469935496    8.840947847   10.503702426
    0.874791319   10.460127054    8.833225554   10.494177258
    0.881969950   10.450259243    8.825455727   10.484593654
    0.889148581   10.440332518    8.817638710   10.474952043
    0.896327212   10.430347333    8.809774846   10.465252852
    0.903505843   10.420304146    8.801864481   10.455496511
    0.910684474   10.410203412    8.793907960   10.445683452
    0.917863105   10.400045590    8.785905630   10.435814104
    0.925041736   10.389831139    8.777857838   10.425888902
    0.932220367   10.379560519    8.769764932   10.415908277
    0.939398998   10.369234190    8.761627261   10.405872665
    0.946577629   10.358852613    8.753445174   10.395782501
    0.953756260   10.348416250    8.745219021   10.385638219
    0.960934891   10.337925564    8.736949153   10.375440258
    0.968113523   10.327381017    8.728635920   10.365189052
    0.975292154   10.316783074    8.720279675   10.354885041
    0.982470785   10.306132199    8.711880769   10.344528663
    0.989649416   10.295428855    8.703439555   10.334120357
    0.996828047   10.284673508    8.694956386   10.323660561
    1.004006678   10.273866624    8.686431615   10.313149716
    1.011185309   10.263008668    8.677865595   10.302588262
    1.018363940   10.252100105    8.669258681   10.291976640
    1.025542571   10.241141403    8.660611226   10.281315291
    1.032721202   10.230133027    8.651923586   10.270604655
    1.039899833   10.219075443    8.643196115   10.259845175
    1.047078464   10.207969120    8.634429168   10.249037292
    1.054257095   10.196814522    8.625623100   10.238181449
    1.061435726   10.185612118    8.616778266   10.227278087
    1.068614357   10.174362372    8.607895021   10.216327648
    1.075792988   10.163065754    8.598973721   10.205330576
    1.082971619   10.151722727    8.590014721   10.194287311
    1.090150250   10.140333760    8.581018377   10.183198298
    1.097328881   10.128899319    8.571985044   10.172063977
    1.104507513   10.117419868    8.562915078   10.160884791
    1.111686144   10.105895875    8.553808833   10.149661183
    1.118864775   10.094327804    8.544666664   10.138393594
    1.126043406   10.082716121    8.535488928   10.127082466
    1.133222037   10.071061290    8.526275978   10.115728241
    1.140400668   10.059363777    8.517028169   10.104331359
    1.147579299   10.047624043    8.507745856   10.092892263
    1.154757930   10.035842554    8.498429393   10.081411392
    1.161936561   10.024019773    8.489079134   10.069889188
    1.169115192   10.012156160    8.479695433   10.058326089
    1.176293823   10.000252179    8.470278642   10.046722537
    1.183472454    9.988308291    8.460829115   10.035078968
    1.190651085    9.976324955    8.451347204   10.023395824
    1.197829716    9.964302632    8.441833262   10.011673540
    1.205008347    9.952241781    8.432287640    9.999912556
    1.212186978    9.940142861    8.422710689    9.988113308
    1.219365609    9.928006328    8.413102761    9.976276232
    1.226544240    9.915832640    8.403464206    9.964401764
    1.233722871    9.903622252    8.393795372    9.952490339
    1.240901503    9.891375620    8.384096611    9.940542391
    1.248080134    9.879093198    8.374368269    9.928558354
    1.255258765    9.866775438    8.364610696    9.916538661
    1.262437396    9.854422794    8.354824238    9.904483744
    1.269616027    9.842035715    8.345009243    9.892394034
    1.276794658    9.829614653    8.335166057    9.880269961
    1.283973289    9.817160057    8.325295024    9.868111955
    1.291151920    9.804672373    8.315396490    9.855920444
    1.298330551    9.792152050    8.305470798    9.843695856
    1.305509182    9.779599533    8.295518292    9.831438618
    1.312687813    9.767015266    8.285539314    9.819149155
    1.319866444    9.754399693    8.275534206    9.806827892
    1.327045075    9.741753255    8.265503308    9.794475252
    1.334223706    9.729076395    8.255446961    9.782091659
    1.341402337    9.716369550    8.245365504    9.769677533
    1.348580968    9.703633160    8.235259274    9.757233295
    1.355759599    9.690867662    8.225128609    9.744759364
    1.362938230    9.678073490    8.214973846    9.732256159
    1.370116861    9.665251080    8.204795319    9.719724095
    1.377295492    9.652400863    8.194593364    9.707163589
    1.384474124    9.639523271    8.184368314    9.694575055
    1.391652755    9.626618735    8.174120501    9.681958906
    1.398831386    9.613687681    8.163850257    9.669315554
    1.406010017    9.600730538    8.153557913    9.656645410
    1.413188648    9.587747731    8.143243797    9.643948882
    1.420367279    9.574739683    8.132908238    9.631226379
    1.427545910    9.561706817    8.122551564    9.618478307
    1.434724541    9.548649553    8.112174101    9.605705072
    1.441903172    9.535568311    8.101776174    9.592907077
    1.449081803    9.522463508    8.091358106    9.580084724
    1.456260434    9.509335559    8.080920220    9.567238414
    1.463439065    9.496184879    8.070462839    9.554368547
    1.470617696    9.483011881    8.059986282    9.541475521
    1.477796327    9.469816974    8.049490870    9.528559731
    1.484974958    9.456600569    8.038976919    9.515621573
    1.492153589    9.443363072    8.028444747    9.502661441
    1.499332220    9.430104889    8.017894670    9.489679725
    1.506510851    9.416826424    8.007327001    9.476676817
    1.513689482    9.403528079    7.996742055    9.463653104
    1.520868114    9.390210254    7.986140142    9.450608975
    1.528046745    9.376873347    7.975521574    9.437544813
    1.535225376    9.363517754    7.964886660    9.424461004
    1.542404007    9.350143872    7.954235707    9.411357929
    1.549582638    9.336752092    7.943569023    9.398235969
    1.556761269    9.323342805    7.932886913    9.385095502
    1.563939900    9.309916401    7.922189680    9.371936906
    1.571118531    9.296473266    7.911477628    9.358760556
    1.578297162    9.283013787    7.900751058    9.345566825
    1.585475793    9.269538346    7.890010269    9.332356086
    1.592654424    9.256047324    7.879255560    9.319128709
    1.599833055    9.242541102    7.868487228    9.305885062
    1.607011686    9.229020056    7.857705569    9.292625512
    1.614190317    9.215484562    7.846910877    9.279350423
    1.621368948    9.201934994    7.836103446    9.266060160
    1.628547579    9.188371723    7.825283566    9.252755082
    1.635726210    9.174795119    7.814451527    9.239435550
    1.642904841    9.161205548    7.803607619    9.226101921
    1.650083472    9.147603378    7.792752127    9.212754552
    1.657262104    9.133988971    7.781885339    9.199393795
    1.664440735    9.120362688    7.771007538    9.186020003
    1.671619366    9.106724889    7.760119006    9.172633526
    1.678797997    9.093075931    7.749220025    9.159234713
    1.685976628    9.079416170    7.738310875    9.145823910
    1.693155259    9.065745958    7.727391833    9.132401462
    1.700333890    9.052065647    7.716463177    9.118967711
    1.707512521    9.038375586    7.705525182    9.105522998
    1.714691152    9.024676121    7.694578120    9.092067662
    1.721869783    9.010967597    7.683622266    9.078602039
    1.729048414    8.997250357    7.672657888    9.065126466
    1.736227045    8.983524742    7.661685256    9.051641275
    1.743405676    8.969791090    7.650704638    9.038146796
    1.750584307    8.956049737    7.639716299    9.024643360
    1.757762938    8.942301018    7.628720505    9.011131293
    1.764941569    8.928545264    7.617717517    8.997610921
    1.772120200    8.914782806    7.606707597    8.984082567
    1.779298831    8.901013971    7.595691006    8.970546552
    1.786477462    8.887239085    7.584668000    8.957003196
    1.793656093    8.873458471    7.573638837    8.943452816
    1.800834725    8.859672452    7.562603771    8.929895727
    1.808013356    8.845881345    7.551563057    8.916332244
    1.815191987    8.832085468    7.540516945    8.902762676
    1.822370618    8.818285137    7.529465687    8.889187334
    1.829549249    8.804480663    7.518409531    8.875606525
    1.836727880    8.790672357    7.507348724    8.862020554
    1.843906511    8.776860528    7.496283511    8.848429725
    1.851085142    8.763045481    7.485214136    8.834834340
    1.858263773    8.749227522    7.474140843    8.821234697
    1.865442404    8.735406951    7.463063870    8.807631094
    1.872621035    8.721584069    7.451983459    8.794023826
    1.879799666    8.707759173    7.440899845    8.780413187
    1.886978297    8.693932558    7.429813265    8.766799469
    1.894156928    8.680104519    7.418723954    8.753182960
    1.901335559    8.666275345    7.407632143    8.739563947
    1.908514190    8.652445326    7.396538065    8.725942717
    1.915692821    8.638614748    7.385441948    8.712319551
    1.922871452    8.624783896    7.374344021    8.698694733
    1.930050083    8.610953053    7.363244509    8.685068540
    1.937228715    8.597122498    7.352143638    8.671441250
    1.944407346    8.583292511    7.341041630    8.657813138
    1.951585977    8.569463366    7.329938707    8.644184478
    1.958764608    8.555635337    7.318835089    8.630555540
    1.965943239    8.541808697    7.307730994    8.616926594
    1.973121870    8.527983714    7.296626638    8.603297907
    1.980300501    8.514160657    7.285522238    8.589669744
    1.987479132    8.500339789    7.274418005    8.576042368
    1.994657763    8.486521375    7.263314153    8.562416040
    2.001836394    8.472705674    7.252210891    8.548791020
    2.009015025    8.458892947    7.241108428    8.535167563
    2.016193656    8.445083449    7.230006971    8.521545927
    2.023372287    8.431277435    7.218906725    8.507926363
    2.030550918    8.417475157    7.207807895    8.494309122
    2.037729549    8.403676867    7.196710682    8.480694454
    2.044908180    8.389882810    7.185615288    8.467082606
    2.052086811    8.376093235    7.174521912    8.453473824
    2.059265442    8.362308385    7.163430750    8.439868349
    2.066444073    8.348528501    7.152341999    8.426266423
    2.073622705    8.334753824    7.141255854    8.412668286
    2.080801336    8.320984591    7.130172506    8.399074174
    2.087979967    8.307221037    7.119092148    8.385484324
    2.095158598    8.293463396    7.108014969    8.371898967
    2.102337229    8.279711900    7.096941157    8.358318335
    2.109515860    8.265966778    7.085870899    8.344742659
    2.116694491    8.252228257    7.074804380    8.331172164
    2.123873122    8.238496562    7.063741782    8.317607077
    2.131051753    8.224771916    7.052683289    8.304047621
    2.138230384    8.211054542    7.041629079    8.290494017
    2.145409015    8.197344657    7.030579333    8.276946485
    2.152587646    8.183642478    7.019534227    8.263405244
    2.159766277    8.169948222    7.008493937    8.249870507
    2.166944908    8.156262100    6.997458637    8.236342490
    2.174123539    8.142584324    6.986428500    8.222821404
    2.181302170    8.128915103    6.975403696    8.209307460
    2.188480801    8.115254643    6.964384397    8.195800865
    2.195659432    8.101603150    6.953370769    8.182301825
    2.202838063    8.087960827    6.942362979    8.168810546
    2.210016694    8.074327875    6.931361192    8.155327228
    2.217195326    8.060704492    6.920365572    8.141852074
    2.224373957    8.047090876    6.909376281    8.128385281
    2.231552588    8.033487223    6.898393480    8.114927046
    2.238731219    8.019893724    6.887417327    8.101477565
    2.245909850    8.006310573    6.876447980    8.088037030
    2.253088481    7.992737957    6.865485596    8.074605633
    2.260267112    7.979176064    6.854530329    8.061183563
    2.267445743    7.965625080    6.843582332    8.047771007
    2.274624374    7.952085188    6.832641757    8.034368152
    2.281803005    7.938556571    6.821708755    8.020975181
    2.288981636    7.925039407    6.810783473    8.007592277
    2.296160267    7.911533875    6.799866061    7.994219619
    2.303338898    7.898040150    6.788956662    7.980857387
    2.310517529    7.884558408    6.778055423    7.967505756
    2.317696160    7.871088819    6.767162486    7.954164903
    2.324874791    7.857631556    6.756277993    7.940834999
    2.332053422    7.844186785    6.745402085    7.927516217
    2.339232053    7.830754675    6.734534899    7.914208726
    2.346410684    7.817335390    6.723676574    7.900912694
    2.353589316    7.803929093    6.712827245    7.887628287
    2.360767947    7.790535946    6.701987048    7.874355670
    2.367946578    7.777156107    6.691156115    7.861095005
    2.375125209    7.763789736    6.680334578    7.847846453
    2.382303840    7.750436988    6.669522569    7.834610173
    2.389482471    7.737098016    6.658720216    7.821386323
    2.396661102    7.723772975    6.647927647    7.808175059
    2.403839733    7.710462013    6.637144988    7.794976535
    2.411018364    7.697165281    6.626372365    7.781790903
    2.418196995    7.683882925    6.615609902    7.768618314
    2.425375626    7.670615092    6.604857720    7.755458917
    2.432554257    7.657361924    6.594115941    7.742312859
    2.439732888    7.644123564    6.583384685    7.729180287
    2.446911519    7.630900153    6.572664070    7.716061345
    2.454090150    7.617691828    6.561954214    7.702956175
    2.461268781    7.604498728    6.551255232    7.689864918
    2.468447412    7.591320987    6.540567239    7.676787713
    2.475626043    7.578158740    6.529890348    7.663724698
    2.482804674    7.565012118    6.519224671    7.650676009
    2.489983306    7.551881251    6.508570319    7.637641781
    2.497161937    7.538766269    6.497927401    7.624622146
    2.504340568    7.525667299    6.487296026    7.611617236
    2.511519199    7.512584467    6.476676300    7.598627181
    2.518697830    7.499517896    6.466068330    7.585652108
    2.525876461    7.486467708    6.455472219    7.572692145
    2.533055092    7.473434026    6.444888072    7.559747417
    2.540233723    7.460416967    6.434315989    7.546818047
