# energy grid [eV]     epsr_x  epsr_y  epsr_z
#
    0.200000000    3.042542975   12.008975210   11.907194471
    0.207178631    3.042847463   12.011277643   11.909762221
    0.214357262    3.043162804   12.013662344   11.912421939
    0.221535893    3.043489011   12.016129426   11.915173774
    0.228714524    3.043826096   12.018679007   11.918017882
    0.235893155    3.044174072   12.021311209   11.920954423
    0.243071786    3.044532952   12.024026156   11.923983564
    0.250250417    3.044902751   12.026823979   11.927105475
    0.257429048    3.045283483   12.029704811   11.930320333
    0.264607679    3.045675163   12.032668789   11.933628321
    0.271786311    3.046077806   12.035716056   11.937029626
    0.278964942    3.046491427   12.038846758   11.940524442
    0.286143573    3.046916043   12.042061045   11.944112968
    0.293322204    3.047351671   12.045359071   11.947795407
    0.300500835    3.047798327   12.048740994   11.951571970
    0.307679466    3.048256029   12.052206978   11.955442872
    0.314858097    3.048724795   12.055757188   11.959408336
    0.322036728    3.049204643   12.059391797   11.963468588
    0.329215359    3.049695593   12.063110980   11.967623861
    0.336393990    3.050197662   12.066914917   11.971874394
    0.343572621    3.050710872   12.070803790   11.976220431
    0.350751252    3.051235243   12.074777790   11.980662223
    0.357929883    3.051770794   12.078837108   11.985200026
    0.365108514    3.052317547   12.082981942   11.989834102
    0.372287145    3.052875525   12.087212493   11.994564720
    0.379465776    3.053444748   12.091528967   11.999392155
    0.386644407    3.054025239   12.095931575   12.004316686
    0.393823038    3.054617022   12.100420531   12.009338600
    0.401001669    3.055220120   12.104996056   12.014458190
    0.408180301    3.055834557   12.109658372   12.019675755
    0.415358932    3.056460357   12.114407710   12.024991600
    0.422537563    3.057097546   12.119244301   12.030406038
    0.429716194    3.057746148   12.124168383   12.035919385
    0.436894825    3.058406190   12.129180200   12.041531967
    0.444073456    3.059077699   12.134279999   12.047244114
    0.451252087    3.059760700   12.139468031   12.053056165
    0.458430718    3.060455222   12.144744553   12.058968462
    0.465609349    3.061161292   12.150109826   12.064981358
    0.472787980    3.061878939   12.155564118   12.071095209
    0.479966611    3.062608193   12.161107700   12.077310380
    0.487145242    3.063349081   12.166740847   12.083627243
    0.494323873    3.064101635   12.172463840   12.090046174
    0.501502504    3.064865884   12.178276967   12.096567559
    0.508681135    3.065641861   12.184180518   12.103191791
    0.515859766    3.066429595   12.190174789   12.109919269
    0.523038397    3.067229121   12.196260082   12.116750399
    0.530217028    3.068040469   12.202436703   12.123685594
    0.537395659    3.068863674   12.208704965   12.130725276
    0.544574290    3.069698768   12.215065183   12.137869873
    0.551752922    3.070545787   12.221517680   12.145119821
    0.558931553    3.071404765   12.228062784   12.152475564
    0.566110184    3.072275738   12.234700828   12.159937552
    0.573288815    3.073158741   12.241432150   12.167506245
    0.580467446    3.074053810   12.248257094   12.175182108
    0.587646077    3.074960984   12.255176009   12.182965617
    0.594824708    3.075880299   12.262189250   12.190857254
    0.602003339    3.076811794   12.269297178   12.198857509
    0.609181970    3.077755508   12.276500159   12.206966882
    0.616360601    3.078711480   12.283798565   12.215185878
    0.623539232    3.079679749   12.291192774   12.223515013
    0.630717863    3.080660358   12.298683168   12.231954810
    0.637896494    3.081653346   12.306270139   12.240505803
    0.645075125    3.082658755   12.313954080   12.249168531
    0.652253756    3.083676629   12.321735393   12.257943545
    0.659432387    3.084707009   12.329614486   12.266831402
    0.666611018    3.085749940   12.337591773   12.275832669
    0.673789649    3.086805466   12.345667672   12.284947924
    0.680968280    3.087873632   12.353842610   12.294177750
    0.688146912    3.088954483   12.362117019   12.303522745
    0.695325543    3.090048066   12.370491339   12.312983510
    0.702504174    3.091154427   12.378966013   12.322560660
    0.709682805    3.092273614   12.387541493   12.332254818
    0.716861436    3.093405676   12.396218238   12.342066617
    0.724040067    3.094550660   12.404996712   12.351996699
    0.731218698    3.095708617   12.413877387   12.362045718
    0.738397329    3.096879596   12.422860741   12.372214336
    0.745575960    3.098063649   12.431947259   12.382503226
    0.752754591    3.099260828   12.441137432   12.392913073
    0.759933222    3.100471184   12.450431762   12.403444569
    0.767111853    3.101694770   12.459830752   12.414098420
    0.774290484    3.102931641   12.469334916   12.424875341
    0.781469115    3.104181850   12.478944776   12.435776059
    0.788647746    3.105445454   12.488660858   12.446801310
    0.795826377    3.106722507   12.498483698   12.457951845
    0.803005008    3.108013067   12.508413839   12.469228423
    0.810183639    3.109317191   12.518451831   12.480631815
    0.817362270    3.110634937   12.528598232   12.492162806
    0.824540902    3.111966364   12.538853607   12.503822190
    0.831719533    3.113311532   12.549218530   12.515610776
    0.838898164    3.114670501   12.559693582   12.527529382
    0.846076795    3.116043333   12.570279353   12.539578842
    0.853255426    3.117430090   12.580976441   12.551759999
    0.860434057    3.118830835   12.591785451   12.564073712
    0.867612688    3.120245631   12.602706998   12.576520850
    0.874791319    3.121674544   12.613741703   12.589102298
    0.881969950    3.123117638   12.624890198   12.601818951
    0.889148581    3.124574980   12.636153123   12.614671722
    0.896327212    3.126046637   12.647531126   12.627661534
    0.903505843    3.127532677   12.659024865   12.640789325
    0.910684474    3.129033169   12.670635005   12.654056048
    0.917863105    3.130548183   12.682362222   12.667462669
    0.925041736    3.132077789   12.694207201   12.681010171
    0.932220367    3.133622059   12.706170635   12.694699549
    0.939398998    3.135181065   12.718253227   12.708531815
    0.946577629    3.136754882   12.730455690   12.722507996
    0.953756260    3.138343582   12.742778746   12.736629134
    0.960934891    3.139947242   12.755223129   12.750896286
    0.968113523    3.141565938   12.767789579   12.765310528
    0.975292154    3.143199747   12.780478849   12.779872950
    0.982470785    3.144848747   12.793291702   12.794584659
    0.989649416    3.146513017   12.806228910   12.809446778
    0.996828047    3.148192638   12.819291255   12.824460450
    1.004006678    3.149887692   12.832479533   12.839626831
    1.011185309    3.151598259   12.845794547   12.854947100
    1.018363940    3.153324424   12.859237113   12.870422449
    1.025542571    3.155066271   12.872808058   12.886054092
    1.032721202    3.156823886   12.886508218   12.901843260
    1.039899833    3.158597354   12.900338442   12.917791203
    1.047078464    3.160386765   12.914299593   12.933899190
    1.054257095    3.162192205   12.928392540   12.950168509
    1.061435726    3.164013766   12.942618169   12.966600472
    1.068614357    3.165851538   12.956977375   12.983196405
    1.075792988    3.167705613   12.971471067   12.999957659
    1.082971619    3.169576085   12.986100165   13.016885605
    1.090150250    3.171463049   13.000865603   13.033981636
    1.097328881    3.173366600   13.015768324   13.051247164
    1.104507513    3.175286834   13.030809290   13.068683626
    1.111686144    3.177223851   13.045989470   13.086292481
    1.118864775    3.179177749   13.061309851   13.104075210
    1.126043406    3.181148630   13.076771430   13.122033318
    1.133222037    3.183136594   13.092375220   13.140168333
    1.140400668    3.185141747   13.108122247   13.158481809
    1.147579299    3.187164191   13.124013550   13.176975323
    1.154757930    3.189204033   13.140050185   13.195650478
    1.161936561    3.191261380   13.156233219   13.214508902
    1.169115192    3.193336341   13.172563738   13.233552249
    1.176293823    3.195429026   13.189042838   13.252782200
    1.183472454    3.197539547   13.205671634   13.272200464
    1.190651085    3.199668015   13.222451255   13.291808775
    1.197829716    3.201814545   13.239382845   13.311608898
    1.205008347    3.203979254   13.256467566   13.331602625
    1.212186978    3.206162258   13.273706594   13.351791777
    1.219365609    3.208363677   13.291101123   13.372178205
    1.226544240    3.210583629   13.308652362   13.392763793
    1.233722871    3.212822238   13.326361539   13.413550451
    1.240901503    3.215079626   13.344229897   13.434540125
    1.248080134    3.217355919   13.362258697   13.455734791
    1.255258765    3.219651243   13.380449219   13.477136459
    1.262437396    3.221965726   13.398802761   13.498747170
    1.269616027    3.224299499   13.417320638   13.520569004
    1.276794658    3.226652692   13.436004183   13.542604071
    1.283973289    3.229025440   13.454854751   13.564854519
    1.291151920    3.231417877   13.473873714   13.587322532
    1.298330551    3.233830140   13.493062463   13.610010332
    1.305509182    3.236262367   13.512422412   13.632920177
    1.312687813    3.238714700   13.531954991   13.656054365
    1.319866444    3.241187280   13.551661653   13.679415233
    1.327045075    3.243680251   13.571543873   13.703005160
    1.334223706    3.246193759   13.591603144   13.726826563
    1.341402337    3.248727953   13.611840985   13.750881903
    1.348580968    3.251282982   13.632258932   13.775173685
    1.355759599    3.253858998   13.652858547   13.799704456
    1.362938230    3.256456156   13.673641415   13.824476809
    1.370116861    3.259074610   13.694609140   13.849493382
    1.377295492    3.261714519   13.715763355   13.874756860
    1.384474124    3.264376043   13.737105713   13.900269978
    1.391652755    3.267059344   13.758637894   13.926035517
    1.398831386    3.269764588   13.780361601   13.952056309
    1.406010017    3.272491939   13.802278562   13.978335239
    1.413188648    3.275241569   13.824390534   14.004875242
    1.420367279    3.278013646   13.846699296   14.031679309
    1.427545910    3.280808346   13.869206656   14.058750483
    1.434724541    3.283625844   13.891914449   14.086091864
    1.441903172    3.286466318   13.914824538   14.113706612
    1.449081803    3.289329949   13.937938813   14.141597943
    1.456260434    3.292216921   13.961259192   14.169769133
    1.463439065    3.295127417   13.984787626   14.198223520
    1.470617696    3.298061628   14.008526092   14.226964507
    1.477796327    3.301019744   14.032476598   14.255995559
    1.484974958    3.304001958   14.056641184   14.285320209
    1.492153589    3.307008467   14.081021921   14.314942055
    1.499332220    3.310039468   14.105620912   14.344864768
    1.506510851    3.313095165   14.130440293   14.375092086
    1.513689482    3.316175761   14.155482232   14.405627824
    1.520868114    3.319281464   14.180748932   14.436475870
    1.528046745    3.322412484   14.206242632   14.467640187
    1.535225376    3.325569033   14.231965603   14.499124819
    1.542404007    3.328751330   14.257920155   14.530933889
    1.549582638    3.331959591   14.284108633   14.563071603
    1.556761269    3.335194041   14.310533420   14.595542245
    1.563939900    3.338454904   14.337196936   14.628350169
    1.571118531    3.341742410   14.364101640   14.661499770
    1.578297162    3.345056790   14.391250032   14.694995547
    1.585475793    3.348398279   14.418644654   14.728842342
    1.592654424    3.351767118   14.446288088   14.763045007
    1.599833055    3.355163547   14.474182958   14.797608302
    1.607011686    3.358587813   14.502331929   14.832537120
    1.614190317    3.362040165   14.530737711   14.867836498
    1.621368948    3.365520856   14.559403060   14.903511592
    1.628547579    3.369030143   14.588330777   14.939567670
    1.635726210    3.372568286   14.617523709   14.976010112
    1.642904841    3.376135550   14.646984753   15.012844416
    1.650083472    3.379732203   14.676716852   15.050076197
    1.657262104    3.383358517   14.706723001   15.087711194
    1.664440735    3.387014769   14.737006244   15.125755271
    1.671619366    3.390701238   14.767569679   15.164214423
    1.678797997    3.394418211   14.798416453   15.203094775
    1.685976628    3.398165974   14.829549764   15.242402593
    1.693155259    3.401944822   14.860972848   15.282144281
    1.700333890    3.405755050   14.892688986   15.322326386
    1.707512521    3.409596962   14.924701606   15.362955613
    1.714691152    3.413470869   14.957014211   15.404038820
    1.721869783    3.417377081   14.989630264   15.445583019
    1.729048414    3.421315914   15.022553295   15.487595385
    1.736227045    3.425287689   15.055786912   15.530083262
    1.743405676    3.429292731   15.089334796   15.573054167
    1.750584307    3.433331373   15.123200696   15.616515798
    1.757762938    3.437403950   15.157388428   15.660476037
    1.764941569    3.441510806   15.191901877   15.704942955
    1.772120200    3.445652287   15.226745000   15.749924820
    1.779298831    3.449828746   15.261921824   15.795430102
    1.786477462    3.454040542   15.297436453   15.841467479
    1.793656093    3.458288038   15.333293065   15.888045847
    1.800834725    3.462571606   15.369495915   15.935174320
    1.808013356    3.466891620   15.406049340   15.982862247
    1.815191987    3.471248462   15.442957755   16.031119210
    1.822370618    3.475642522   15.480225661   16.079955038
    1.829549249    3.480074193   15.517857645   16.129379814
    1.836727880    3.484543876   15.555858379   16.179403881
    1.843906511    3.489051980   15.594232626   16.230037854
    1.851085142    3.493598917   15.632985240   16.281292627
    1.858263773    3.498185111   15.672121168   16.333179384
    1.865442404    3.502810987   15.711645441   16.385709607
    1.872621035    3.507476983   15.751563194   16.438895089
    1.879799666    3.512183540   15.791879704   16.492747949
    1.886978297    3.516931108   15.832600344   16.547280636
    1.894156928    3.521720146   15.873730556   16.602505941
    1.901335559    3.526551119   15.915275898   16.658437011
    1.908514190    3.531424499   15.957242045   16.715087366
    1.915692821    3.536340769   15.999634793   16.772470907
    1.922871452    3.541300419   16.042460053   16.830601935
    1.930050083    3.546303946   16.085723852   16.889495162
    1.937228715    3.551351855   16.129432320   16.949165730
    1.944407346    3.556444662   16.173591699   17.009629222
    1.951585977    3.561582893   16.218208467   17.070901689
    1.958764608    3.566767086   16.263289282   17.132999660
    1.965943239    3.571997784   16.308840806   17.195940160
    1.973121870    3.577275539   16.354869837   17.259740727
    1.980300501    3.582600912   16.401383345   17.324419432
    1.987479132    3.587974477   16.448388461   17.389994870
    1.994657763    3.593396818   16.495892472   17.456486193
    2.001836394    3.598868528   16.543902831   17.523913331
    2.009015025    3.604390213   16.592427154   17.592296900
    2.016193656    3.609962489   16.641473223   17.661657971
    2.023372287    3.615585982   16.691048992   17.732018291
    2.030550918    3.621261332   16.741162595   17.803400366
    2.037729549    3.626989189   16.791822353   17.875827457
    2.044908180    3.632770218   16.843036773   17.949323608
    2.052086811    3.638605091   16.894814560   18.023913657
    2.059265442    3.644494499   16.947164619   18.099623242
    2.066444073    3.650439142   17.000096062   18.176478803
    2.073622705    3.656439735   17.053618216   18.254507922
    2.080801336    3.662497005   17.107740628   18.333739444
    2.087979967    3.668611695   17.162473073   18.414202840
    2.095158598    3.674784562   17.217825558   18.495928522
    2.102337229    3.681016376   17.273808333   18.578948100
    2.109515860    3.687307924   17.330431895   18.663294380
    2.116694491    3.693660008   17.387707003   18.749001397
    2.123873122    3.700073446   17.445644677   18.836104465
    2.131051753    3.706549071   17.504256213   18.924640233
    2.138230384    3.713087733   17.563553191   19.014646756
    2.145409015    3.719690302   17.623547482   19.106163562
    2.152587646    3.726357660   17.684251261   19.199231728
    2.159766277    3.733090713   17.745677014   19.293893959
    2.166944908    3.739890381   17.807837551   19.390194673
    2.174123539    3.746757604   17.870746016   19.488180077
    2.181302170    3.753693342   17.934415897   19.587898244
    2.188480801    3.760698573   17.998861042   19.689399137
    2.195659432    3.767774295   18.064095666   19.792734781
    2.202838063    3.774921533   18.130134372   19.897959972
    2.210016694    3.782141337   18.196992158   20.005131905
    2.217195326    3.789434767   18.264684432   20.114309660
    2.224373957    3.796802909   18.333227027   20.225554913
    2.231552588    3.804246872   18.402636216   20.338932119
    2.238731219    3.811767786   18.472928730   20.454508716
    2.245909850    3.819366821   18.544121786   20.572355783
    2.253088481    3.827045168   18.616233089   20.692547563
    2.260267112    3.834804032   18.689280849   20.815161342
    2.267445743    3.842644647   18.763283806   20.940278172
    2.274624374    3.850568258   18.838261243   21.067983127
    2.281803005    3.858576122   18.914233004   21.198365489
    2.288981636    3.866669582   18.991219567   21.331518998
    2.296160267    3.874850087   19.069242076   21.467542140
    2.303338898    3.883119013   19.148322248   21.606538445
    2.310517529    3.891477736   19.228482433   21.748616831
    2.317696160    3.899927672   19.309745653   21.893891966
    2.324874791    3.908470262   19.392135723   22.042484664
    2.332053422    3.917107046   19.475677362   22.194522300
    2.339232053    3.925839658   19.560395987   22.350139257
    2.346410684    3.934669681   19.646317732   22.509477561
    2.353589316    3.943598721   19.733469611   22.672687427
    2.360767947    3.952628421   19.821879549   22.839927582
    2.367946578    3.961760482   19.911576413   23.011366154
    2.375125209    3.970996677   20.002590049   23.187181485
    2.382303840    3.980338796   20.094951333   23.367562669
    2.389482471    3.989788664   20.188692206   23.552710488
    2.396661102    3.999348158   20.283845710   23.742838417
    2.403839733    4.009019205   20.380446056   23.938173658
    2.411018364    4.018803781   20.478528673   24.138958270
    2.418196995    4.028703913   20.578130274   24.345450432
    2.425375626    4.038721679   20.679288908   24.557925837
    2.432554257    4.048859209   20.782044028   24.776679222
    2.439732888    4.059118692   20.886436556   25.002026037
    2.446911519    4.069502369   20.992508942   25.234304179
    2.454090150    4.080012544   21.100305210   25.473875763
    2.461268781    4.090651578   21.209871074   25.721130451
    2.468447412    4.101421899   21.321254228   25.976490483
    2.475626043    4.112326001   21.434504246   26.240409352
    2.482804674    4.123366439   21.549672344   26.513374328
    2.489983306    4.134545841   21.666811813   26.795912070
    2.497161937    4.145866906   21.785978474   27.088593513
    2.504340568    4.157332413   21.907230973   27.392042150
    2.511519199    4.168945216   22.030630041   27.706938006
    2.518697830    4.180708249   22.156238527   28.034017308
    2.525876461    4.192624526   22.284122212   28.374081696
    2.533055092    4.204697149   22.414349769   28.728009438
    2.540233723    4.216929308   22.546992906   29.096764064
