# energy grid [eV]     ieps_x  ieps_y  ieps_z
#
    0.200000000    4.216881549    7.394825670    5.739851341
    0.207178631    4.216160422    7.393359922    5.738711191
    0.214357262    4.215414290    7.391843348    5.737531511
    0.221535893    4.214643196    7.390276035    5.736312372
    0.228714524    4.213847186    7.388658075    5.735053843
    0.235893155    4.213026305    7.386989561    5.733755999
    0.243071786    4.212180600    7.385270587    5.732418914
    0.250250417    4.211310121    7.383501254    5.731042668
    0.257429048    4.210414916    7.381681661    5.729627339
    0.264607679    4.209495038    7.379811913    5.728173009
    0.271786311    4.208550538    7.377892116    5.726679762
    0.278964942    4.207581472    7.375922379    5.725147686
    0.286143573    4.206587893    7.373902813    5.723576867
    0.293322204    4.205569858    7.371833533    5.721967396
    0.300500835    4.204527426    7.369714656    5.720319366
    0.307679466    4.203460654    7.367546299    5.718632870
    0.314858097    4.202369602    7.365328586    5.716908005
    0.322036728    4.201254333    7.363061639    5.715144869
    0.329215359    4.200114908    7.360745585    5.713343563
    0.336393990    4.198951392    7.358380552    5.711504188
    0.343572621    4.197763849    7.355966673    5.709626849
    0.350751252    4.196552345    7.353504080    5.707711652
    0.357929883    4.195316947    7.350992908    5.705758704
    0.365108514    4.194057723    7.348433297    5.703768116
    0.372287145    4.192774744    7.345825385    5.701739998
    0.379465776    4.191468079    7.343169316    5.699674465
    0.386644407    4.190137800    7.340465234    5.697571631
    0.393823038    4.188783980    7.337713285    5.695431614
    0.401001669    4.187406692    7.334913619    5.693254532
    0.408180301    4.186006011    7.332066387    5.691040506
    0.415358932    4.184582014    7.329171741    5.688789659
    0.422537563    4.183134776    7.326229836    5.686502113
    0.429716194    4.181664376    7.323240831    5.684177995
    0.436894825    4.180170893    7.320204883    5.681817432
    0.444073456    4.178654406    7.317122155    5.679420552
    0.451252087    4.177114996    7.313992808    5.676987488
    0.458430718    4.175552745    7.310817008    5.674518369
    0.465609349    4.173967736    7.307594922    5.672013332
    0.472787980    4.172360051    7.304326718    5.669472509
    0.479966611    4.170729777    7.301012567    5.666896040
    0.487145242    4.169076997    7.297652641    5.664284061
    0.494323873    4.167401798    7.294247114    5.661636712
    0.501502504    4.165704269    7.290796162    5.658954136
    0.508681135    4.163984495    7.287299962    5.656236474
    0.515859766    4.162242567    7.283758693    5.653483872
    0.523038397    4.160478573    7.280172537    5.650696474
    0.530217028    4.158692605    7.276541676    5.647874427
    0.537395659    4.156884753    7.272866294    5.645017880
    0.544574290    4.155055110    7.269146576    5.642126983
    0.551752922    4.153203769    7.265382710    5.639201887
    0.558931553    4.151330822    7.261574885    5.636242744
    0.566110184    4.149436365    7.257723291    5.633249707
    0.573288815    4.147520492    7.253828119    5.630222932
    0.580467446    4.145583299    7.249889563    5.627162575
    0.587646077    4.143624882    7.245907817    5.624068792
    0.594824708    4.141645339    7.241883078    5.620941743
    0.602003339    4.139644768    7.237815543    5.617781588
    0.609181970    4.137623266    7.233705410    5.614588486
    0.616360601    4.135580933    7.229552881    5.611362601
    0.623539232    4.133517869    7.225358155    5.608104095
    0.630717863    4.131434174    7.221121436    5.604813133
    0.637896494    4.129329950    7.216842927    5.601489880
    0.645075125    4.127205296    7.212522835    5.598134502
    0.652253756    4.125060317    7.208161364    5.594747166
    0.659432387    4.122895113    7.203758723    5.591328042
    0.666611018    4.120709790    7.199315121    5.587877297
    0.673789649    4.118504450    7.194830766    5.584395104
    0.680968280    4.116279198    7.190305871    5.580881632
    0.688146912    4.114034139    7.185740647    5.577337055
    0.695325543    4.111769378    7.181135306    5.573761545
    0.702504174    4.109485020    7.176490064    5.570155277
    0.709682805    4.107181173    7.171805135    5.566518424
    0.716861436    4.104857944    7.167080736    5.562851164
    0.724040067    4.102515438    7.162317082    5.559153673
    0.731218698    4.100153765    7.157514394    5.555426127
    0.738397329    4.097773032    7.152672888    5.551668705
    0.745575960    4.095373347    7.147792786    5.547881587
    0.752754591    4.092954821    7.142874307    5.544064951
    0.759933222    4.090517562    7.137917674    5.540218978
    0.767111853    4.088061679    7.132923109    5.536343849
    0.774290484    4.085587284    7.127890835    5.532439746
    0.781469115    4.083094486    7.122821076    5.528506851
    0.788647746    4.080583397    7.117714056    5.524545348
    0.795826377    4.078054128    7.112570002    5.520555420
    0.803005008    4.075506789    7.107389140    5.516537251
    0.810183639    4.072941494    7.102171696    5.512491027
    0.817362270    4.070358354    7.096917898    5.508416933
    0.824540902    4.067757482    7.091627974    5.504315155
    0.831719533    4.065138990    7.086302154    5.500185879
    0.838898164    4.062502992    7.080940666    5.496029293
    0.846076795    4.059849600    7.075543742    5.491845584
    0.853255426    4.057178928    7.070111611    5.487634940
    0.860434057    4.054491091    7.064644506    5.483397550
    0.867612688    4.051786202    7.059142657    5.479133602
    0.874791319    4.049064375    7.053606298    5.474843287
    0.881969950    4.046325725    7.048035660    5.470526794
    0.889148581    4.043570367    7.042430978    5.466184312
    0.896327212    4.040798415    7.036792485    5.461816033
    0.903505843    4.038009985    7.031120416    5.457422148
    0.910684474    4.035205191    7.025415005    5.453002847
    0.917863105    4.032384149    7.019676486    5.448558322
    0.925041736    4.029546975    7.013905097    5.444088765
    0.932220367    4.026693785    7.008101072    5.439594368
    0.939398998    4.023824693    7.002264647    5.435075324
    0.946577629    4.020939817    6.996396060    5.430531825
    0.953756260    4.018039272    6.990495546    5.425964063
    0.960934891    4.015123175    6.984563343    5.421372232
    0.968113523    4.012191641    6.978599688    5.416756525
    0.975292154    4.009244788    6.972604820    5.412117136
    0.982470785    4.006282731    6.966578974    5.407454258
    0.989649416    4.003305587    6.960522391    5.402768084
    0.996828047    4.000313473    6.954435308    5.398058809
    1.004006678    3.997306506    6.948317963    5.393326626
    1.011185309    3.994284802    6.942170595    5.388571730
    1.018363940    3.991248477    6.935993442    5.383794314
    1.025542571    3.988197650    6.929786745    5.378994573
    1.032721202    3.985132436    6.923550741    5.374172701
    1.039899833    3.982052952    6.917285669    5.369328892
    1.047078464    3.978959316    6.910991770    5.364463341
    1.054257095    3.975851643    6.904669281    5.359576241
    1.061435726    3.972730052    6.898318443    5.354667788
    1.068614357    3.969594658    6.891939494    5.349738174
    1.075792988    3.966445578    6.885532674    5.344787595
    1.082971619    3.963282930    6.879098222    5.339816244
    1.090150250    3.960106829    6.872636377    5.334824316
    1.097328881    3.956917393    6.866147379    5.329812003
    1.104507513    3.953714739    6.859631467    5.324779501
    1.111686144    3.950498981    6.853088880    5.319727003
    1.118864775    3.947270238    6.846519856    5.314654703
    1.126043406    3.944028626    6.839924635    5.309562793
    1.133222037    3.940774260    6.833303456    5.304451468
    1.140400668    3.937507257    6.826656557    5.299320919
    1.147579299    3.934227733    6.819984177    5.294171341
    1.154757930    3.930935804    6.813286553    5.289002926
    1.161936561    3.927631586    6.806563925    5.283815866
    1.169115192    3.924315195    6.799816530    5.278610353
    1.176293823    3.920986746    6.793044605    5.273386581
    1.183472454    3.917646355    6.786248389    5.268144739
    1.190651085    3.914294137    6.779428119    5.262885021
    1.197829716    3.910930207    6.772584032    5.257607616
    1.205008347    3.907554681    6.765716364    5.252312717
    1.212186978    3.904167673    6.758825352    5.247000513
    1.219365609    3.900769298    6.751911232    5.241671196
    1.226544240    3.897359671    6.744974240    5.236324954
    1.233722871    3.893938905    6.738014612    5.230961978
    1.240901503    3.890507115    6.731032583    5.225582456
    1.248080134    3.887064416    6.724028387    5.220186578
    1.255258765    3.883610920    6.717002260    5.214774533
    1.262437396    3.880146742    6.709954435    5.209346508
    1.269616027    3.876671994    6.702885147    5.203902692
    1.276794658    3.873186791    6.695794627    5.198443271
    1.283973289    3.869691244    6.688683111    5.192968432
    1.291151920    3.866185466    6.681550829    5.187478363
    1.298330551    3.862669571    6.674398014    5.181973249
    1.305509182    3.859143670    6.667224898    5.176453275
    1.312687813    3.855607875    6.660031712    5.170918628
    1.319866444    3.852062298    6.652818686    5.165369491
    1.327045075    3.848507051    6.645586051    5.159806049
    1.334223706    3.844942244    6.638334037    5.154228485
    1.341402337    3.841367988    6.631062871    5.148636983
    1.348580968    3.837784395    6.623772784    5.143031725
    1.355759599    3.834191575    6.616464004    5.137412895
    1.362938230    3.830589637    6.609136757    5.131780672
    1.370116861    3.826978692    6.601791272    5.126135239
    1.377295492    3.823358849    6.594427773    5.120476776
    1.384474124    3.819730217    6.587046488    5.114805463
    1.391652755    3.816092906    6.579647642    5.109121479
    1.398831386    3.812447024    6.572231459    5.103425004
    1.406010017    3.808792679    6.564798163    5.097716216
    1.413188648    3.805129980    6.557347978    5.091995291
    1.420367279    3.801459034    6.549881127    5.086262409
    1.427545910    3.797779948    6.542397831    5.080517744
    1.434724541    3.794092830    6.534898313    5.074761474
    1.441903172    3.790397786    6.527382794    5.068993773
    1.449081803    3.786694922    6.519851492    5.063214815
    1.456260434    3.782984346    6.512304629    5.057424776
    1.463439065    3.779266162    6.504742423    5.051623828
    1.470617696    3.775540475    6.497165092    5.045812144
    1.477796327    3.771807392    6.489572854    5.039989896
    1.484974958    3.768067015    6.481965924    5.034157256
    1.492153589    3.764319451    6.474344521    5.028314395
    1.499332220    3.760564802    6.466708857    5.022461481
    1.506510851    3.756803173    6.459059149    5.016598686
    1.513689482    3.753034666    6.451395610    5.010726177
    1.520868114    3.749259384    6.443718454    5.004844123
    1.528046745    3.745477431    6.436027891    4.998952691
    1.535225376    3.741688907    6.428324134    4.993052047
    1.542404007    3.737893914    6.420607394    4.987142357
    1.549582638    3.734092555    6.412877881    4.981223787
    1.556761269    3.730284929    6.405135803    4.975296502
    1.563939900    3.726471138    6.397381370    4.969360664
    1.571118531    3.722651281    6.389614788    4.963416437
    1.578297162    3.718825458    6.381836265    4.957463983
    1.585475793    3.714993769    6.374046006    4.951503463
    1.592654424    3.711156312    6.366244216    4.945535039
    1.599833055    3.707313186    6.358431101    4.939558871
    1.607011686    3.703464490    6.350606862    4.933575117
    1.614190317    3.699610320    6.342771704    4.927583936
    1.621368948    3.695750774    6.334925827    4.921585486
    1.628547579    3.691885949    6.327069432    4.915579924
    1.635726210    3.688015942    6.319202720    4.909567407
    1.642904841    3.684140848    6.311325889    4.903548089
    1.650083472    3.680260764    6.303439138    4.897522125
    1.657262104    3.676375783    6.295542664    4.891489669
    1.664440735    3.672486002    6.287636664    4.885450874
    1.671619366    3.668591514    6.279721334    4.879405893
    1.678797997    3.664692413    6.271796867    4.873354877
    1.685976628    3.660788793    6.263863458    4.867297976
    1.693155259    3.656880746    6.255921300    4.861235341
    1.700333890    3.652968366    6.247970585    4.855167120
    1.707512521    3.649051744    6.240011504    4.849093462
    1.714691152    3.645130973    6.232044246    4.843014515
    1.721869783    3.641206143    6.224069002    4.836930425
    1.729048414    3.637277345    6.216085960    4.830841337
    1.736227045    3.633344670    6.208095306    4.824747398
    1.743405676    3.629408207    6.200097228    4.818648750
    1.750584307    3.625468046    6.192091911    4.812545538
    1.757762938    3.621524276    6.184079539    4.806437904
    1.764941569    3.617576985    6.176060296    4.800325990
    1.772120200    3.613626262    6.168034365    4.794209937
    1.779298831    3.609672195    6.160001928    4.788089884
    1.786477462    3.605714870    6.151963165    4.781965972
    1.793656093    3.601754373    6.143918256    4.775838338
    1.800834725    3.597790793    6.135867379    4.769707120
    1.808013356    3.593824213    6.127810714    4.763572455
    1.815191987    3.589854721    6.119748436    4.757434478
    1.822370618    3.585882399    6.111680721    4.751293326
    1.829549249    3.581907334    6.103607746    4.745149131
    1.836727880    3.577929608    6.095529682    4.739002028
    1.843906511    3.573949305    6.087446705    4.732852149
    1.851085142    3.569966509    6.079358985    4.726699626
    1.858263773    3.565981302    6.071266693    4.720544589
    1.865442404    3.561993765    6.063170000    4.714387169
    1.872621035    3.558003981    6.055069075    4.708227495
    1.879799666    3.554012031    6.046964086    4.702065695
    1.886978297    3.550017995    6.038855200    4.695901897
    1.894156928    3.546021954    6.030742583    4.689736227
    1.901335559    3.542023987    6.022626400    4.683568812
    1.908514190    3.538024173    6.014506815    4.677399775
    1.915692821    3.534022592    6.006383992    4.671229242
    1.922871452    3.530019321    5.998258092    4.665057336
    1.930050083    3.526014439    5.990129277    4.658884178
    1.937228715    3.522008022    5.981997707    4.652709891
    1.944407346    3.518000149    5.973863541    4.646534595
    1.951585977    3.513990894    5.965726938    4.640358411
    1.958764608    3.509980334    5.957588053    4.634181456
    1.965943239    3.505968545    5.949447044    4.628003851
    1.973121870    3.501955601    5.941304066    4.621825711
    1.980300501    3.497941577    5.933159272    4.615647153
    1.987479132    3.493926547    5.925012817    4.609468294
    1.994657763    3.489910584    5.916864851    4.603289248
    2.001836394    3.485893763    5.908715527    4.597110128
    2.009015025    3.481876154    5.900564994    4.590931049
    2.016193656    3.477857831    5.892413401    4.584752122
    2.023372287    3.473838865    5.884260897    4.578573460
    2.030550918    3.469819327    5.876107629    4.572395172
    2.037729549    3.465799288    5.867953742    4.566217368
    2.044908180    3.461778819    5.859799383    4.560040158
    2.052086811    3.457757988    5.851644695    4.553863649
    2.059265442    3.453736866    5.843489821    4.547687950
    2.066444073    3.449715520    5.835334904    4.541513165
    2.073622705    3.445694021    5.827180084    4.535339402
    2.080801336    3.441672434    5.819025502    4.529166765
    2.087979967    3.437650828    5.810871296    4.522995358
    2.095158598    3.433629270    5.802717606    4.516825285
    2.102337229    3.429607826    5.794564568    4.510656647
    2.109515860    3.425586562    5.786412319    4.504489546
    2.116694491    3.421565543    5.778260992    4.498324083
    2.123873122    3.417544835    5.770110724    4.492160357
    2.131051753    3.413524503    5.761961647    4.485998469
    2.138230384    3.409504610    5.753813892    4.479838516
    2.145409015    3.405485220    5.745667592    4.473680596
    2.152587646    3.401466396    5.737522877    4.467524805
    2.159766277    3.397448201    5.729379875    4.461371240
    2.166944908    3.393430698    5.721238715    4.455219995
    2.174123539    3.389413947    5.713099525    4.449071164
    2.181302170    3.385398011    5.704962431    4.442924842
    2.188480801    3.381382950    5.696827557    4.436781121
    2.195659432    3.377368825    5.688695029    4.430640092
    2.202838063    3.373355695    5.680564970    4.424501848
    2.210016694    3.369343620    5.672437502    4.418366477
    2.217195326    3.365332660    5.664312747    4.412234070
    2.224373957    3.361322872    5.656190825    4.406104715
    2.231552588    3.357314315    5.648071855    4.399978501
    2.238731219    3.353307047    5.639955957    4.393855514
    2.245909850    3.349301124    5.631843247    4.387735841
    2.253088481    3.345296604    5.623733843    4.381619568
    2.260267112    3.341293542    5.615627860    4.375506779
    2.267445743    3.337291995    5.607525413    4.369397558
    2.274624374    3.333292019    5.599426616    4.363291989
    2.281803005    3.329293667    5.591331581    4.357190155
    2.288981636    3.325296995    5.583240421    4.351092136
    2.296160267    3.321302056    5.575153246    4.344998015
    2.303338898    3.317308905    5.567070166    4.338907871
    2.310517529    3.313317594    5.558991291    4.332821784
    2.317696160    3.309328177    5.550916728    4.326739832
    2.324874791    3.305340705    5.542846585    4.320662095
    2.332053422    3.301355230    5.534780968    4.314588648
    2.339232053    3.297371804    5.526719983    4.308519569
    2.346410684    3.293390478    5.518663733    4.302454933
    2.353589316    3.289411303    5.510612323    4.296394815
    2.360767947    3.285434327    5.502565854    4.290339290
    2.367946578    3.281459602    5.494524430    4.284288432
    2.375125209    3.277487177    5.486488149    4.278242312
    2.382303840    3.273517099    5.478457113    4.272201004
    2.389482471    3.269549418    5.470431421    4.266164579
    2.396661102    3.265584182    5.462411169    4.260133108
    2.403839733    3.261621439    5.454396456    4.254106660
    2.411018364    3.257661234    5.446387378    4.248085305
    2.418196995    3.253703616    5.438384030    4.242069111
    2.425375626    3.249748630    5.430386506    4.236058147
    2.432554257    3.245796322    5.422394901    4.230052479
    2.439732888    3.241846738    5.414409306    4.224052175
    2.446911519    3.237899922    5.406429815    4.218057299
    2.454090150    3.233955920    5.398456517    4.212067917
    2.461268781    3.230014776    5.390489503    4.206084094
    2.468447412    3.226076533    5.382528862    4.200105893
    2.475626043    3.222141235    5.374574683    4.194133377
    2.482804674    3.218208924    5.366627052    4.188166609
    2.489983306    3.214279644    5.358686057    4.182205650
    2.497161937    3.210353436    5.350751784    4.176250562
    2.504340568    3.206430343    5.342824317    4.170301404
    2.511519199    3.202510406    5.334903741    4.164358237
    2.518697830    3.198593665    5.326990138    4.158421120
    2.525876461    3.194680161    5.319083592    4.152490110
    2.533055092    3.190769935    5.311184183    4.146565267
    2.540233723    3.186863026    5.303291993    4.140646646
