# energy grid [eV]     ieps_x  ieps_y  ieps_z
#
    0.200000000    3.481859022   10.226821295   10.779192040
    0.207178631    3.481294641   10.224331058   10.776575882
    0.214357262    3.480710994   10.221754678   10.773869420
    0.221535893    3.480108143   10.219092326   10.771072851
    0.228714524    3.479486151   10.216344177   10.768186377
    0.235893155    3.478845083   10.213510413   10.765210207
    0.243071786    3.478185006   10.210591220   10.762144554
    0.250250417    3.477505987   10.207586791   10.758989639
    0.257429048    3.476808094   10.204497322   10.755745686
    0.264607679    3.476091399   10.201323016   10.752412927
    0.271786311    3.475355971   10.198064081   10.748991597
    0.278964942    3.474601885   10.194720728   10.745481939
    0.286143573    3.473829212   10.191293176   10.741884198
    0.293322204    3.473038028   10.187781648   10.738198626
    0.300500835    3.472228408   10.184186371   10.734425482
    0.307679466    3.471400429   10.180507577   10.730565026
    0.314858097    3.470554167   10.176745505   10.726617526
    0.322036728    3.469689702   10.172900397   10.722583253
    0.329215359    3.468807112   10.168972499   10.718462485
    0.336393990    3.467906477   10.164962064   10.714255502
    0.343572621    3.466987877   10.160869349   10.709962591
    0.350751252    3.466051394   10.156694613   10.705584043
    0.357929883    3.465097109   10.152438125   10.701120151
    0.365108514    3.464125104   10.148100153   10.696571216
    0.372287145    3.463135464   10.143680972   10.691937542
    0.379465776    3.462128270   10.139180863   10.687219436
    0.386644407    3.461103608   10.134600108   10.682417211
    0.393823038    3.460061561   10.129938995   10.677531183
    0.401001669    3.459002215   10.125197816   10.672561672
    0.408180301    3.457925654   10.120376869   10.667509003
    0.415358932    3.456831964   10.115476453   10.662373505
    0.422537563    3.455721231   10.110496874   10.657155508
    0.429716194    3.454593542   10.105438440   10.651855350
    0.436894825    3.453448983   10.100301463   10.646473369
    0.444073456    3.452287639   10.095086261   10.641009908
    0.451252087    3.451109600   10.089793154   10.635465315
    0.458430718    3.449914950   10.084422467   10.629839940
    0.465609349    3.448703779   10.078974527   10.624134135
    0.472787980    3.447476173   10.073449666   10.618348258
    0.479966611    3.446232219   10.067848220   10.612482669
    0.487145242    3.444972006   10.062170529   10.606537732
    0.494323873    3.443695622   10.056416933   10.600513813
    0.501502504    3.442403153   10.050587781   10.594411281
    0.508681135    3.441094688   10.044683421   10.588230510
    0.515859766    3.439770315   10.038704206   10.581971875
    0.523038397    3.438430122   10.032650492   10.575635755
    0.530217028    3.437074197   10.026522639   10.569222530
    0.537395659    3.435702627   10.020321009   10.562732585
    0.544574290    3.434315501   10.014045969   10.556166308
    0.551752922    3.432912906   10.007697886   10.549524087
    0.558931553    3.431494931   10.001277134   10.542806314
    0.566110184    3.430061662    9.994784085   10.536013385
    0.573288815    3.428613189    9.988219120   10.529145697
    0.580467446    3.427149598    9.981582617   10.522203649
    0.587646077    3.425670977    9.974874960   10.515187643
    0.594824708    3.424177414    9.968096535   10.508098084
    0.602003339    3.422668996    9.961247731   10.500935378
    0.609181970    3.421145811    9.954328939   10.493699934
    0.616360601    3.419607944    9.947340554   10.486392163
    0.623539232    3.418055485    9.940282970   10.479012479
    0.630717863    3.416488519    9.933156588   10.471561296
    0.637896494    3.414907133    9.925961808   10.464039031
    0.645075125    3.413311415    9.918699033   10.456446104
    0.652253756    3.411701450    9.911368670   10.448782936
    0.659432387    3.410077326    9.903971127   10.441049949
    0.666611018    3.408439128    9.896506812   10.433247568
    0.673789649    3.406786943    9.888976140   10.425376221
    0.680968280    3.405120857    9.881379523   10.417436334
    0.688146912    3.403440956    9.873717378   10.409428338
    0.695325543    3.401747325    9.865990123   10.401352664
    0.702504174    3.400040050    9.858198178   10.393209745
    0.709682805    3.398319217    9.850341966   10.385000016
    0.716861436    3.396584911    9.842421908   10.376723912
    0.724040067    3.394837217    9.834438431   10.368381871
    0.731218698    3.393076220    9.826391962   10.359974332
    0.738397329    3.391302005    9.818282928   10.351501735
    0.745575960    3.389514657    9.810111761   10.342964520
    0.752754591    3.387714261    9.801878891   10.334363131
    0.759933222    3.385900900    9.793584751   10.325698012
    0.767111853    3.384074659    9.785229776   10.316969607
    0.774290484    3.382235622    9.776814402   10.308178362
    0.781469115    3.380383874    9.768339065   10.299324724
    0.788647746    3.378519498    9.759804203   10.290409142
    0.795826377    3.376642577    9.751210256   10.281432065
    0.803005008    3.374753196    9.742557664   10.272393941
    0.810183639    3.372851437    9.733846869   10.263295223
    0.817362270    3.370937384    9.725078313   10.254136362
    0.824540902    3.369011120    9.716252440   10.244917810
    0.831719533    3.367072728    9.707369694   10.235640021
    0.838898164    3.365122291    9.698430519   10.226303449
    0.846076795    3.363159891    9.689435364   10.216908547
    0.853255426    3.361185611    9.680384673   10.207455772
    0.860434057    3.359199533    9.671278895   10.197945579
    0.867612688    3.357201739    9.662118478   10.188378424
    0.874791319    3.355192312    9.652903871   10.178754765
    0.881969950    3.353171333    9.643635523   10.169075059
    0.889148581    3.351138885    9.634313885   10.159339763
    0.896327212    3.349095048    9.624939406   10.149549336
    0.903505843    3.347039904    9.615512537   10.139704236
    0.910684474    3.344973536    9.606033730   10.129804921
    0.917863105    3.342896023    9.596503437   10.119851852
    0.925041736    3.340807447    9.586922108   10.109845487
    0.932220367    3.338707889    9.577290198   10.099786286
    0.939398998    3.336597429    9.567608157   10.089674708
    0.946577629    3.334476149    9.557876438   10.079511213
    0.953756260    3.332344129    9.548095494   10.069296262
    0.960934891    3.330201449    9.538265778   10.059030313
    0.968113523    3.328048189    9.528387743   10.048713827
    0.975292154    3.325884430    9.518461841   10.038347263
    0.982470785    3.323710251    9.508488525   10.027931082
    0.989649416    3.321525733    9.498468248   10.017465743
    0.996828047    3.319330954    9.488401462   10.006951706
    1.004006678    3.317125995    9.478288620    9.996389430
    1.011185309    3.314910935    9.468130174    9.985779373
    1.018363940    3.312685853    9.457926575    9.975121996
    1.025542571    3.310450828    9.447678276    9.964417757
    1.032721202    3.308205939    9.437385727    9.953667114
    1.039899833    3.305951265    9.427049380    9.942870525
    1.047078464    3.303686885    9.416669685    9.932028447
    1.054257095    3.301412877    9.406247093    9.921141339
    1.061435726    3.299129319    9.395782052    9.910209656
    1.068614357    3.296836291    9.385275013    9.899233855
    1.075792988    3.294533869    9.374726423    9.888214392
    1.082971619    3.292222132    9.364136731    9.877151721
    1.090150250    3.289901157    9.353506384    9.866046299
    1.097328881    3.287571023    9.342835829    9.854898578
    1.104507513    3.285231807    9.332125512    9.843709012
    1.111686144    3.282883586    9.321375879    9.832478054
    1.118864775    3.280526437    9.310587373    9.821206155
    1.126043406    3.278160437    9.299760439    9.809893768
    1.133222037    3.275785664    9.288895520    9.798541343
    1.140400668    3.273402195    9.277993058    9.787149330
    1.147579299    3.271010104    9.267053495    9.775718177
    1.154757930    3.268609470    9.256077270    9.764248333
    1.161936561    3.266200369    9.245064823    9.752740245
    1.169115192    3.263782876    9.234016593    9.741194359
    1.176293823    3.261357067    9.222933017    9.729611121
    1.183472454    3.258923019    9.211814532    9.717990976
    1.190651085    3.256480807    9.200661573    9.706334367
    1.197829716    3.254030506    9.189474575    9.694641736
    1.205008347    3.251572192    9.178253970    9.682913525
    1.212186978    3.249105940    9.167000191    9.671150175
    1.219365609    3.246631825    9.155713669    9.659352124
    1.226544240    3.244149922    9.144394834    9.647519811
    1.233722871    3.241660305    9.133044114    9.635653674
    1.240901503    3.239163049    9.121661936    9.623754147
    1.248080134    3.236658229    9.110248726    9.611821667
    1.255258765    3.234145918    9.098804910    9.599856666
    1.262437396    3.231626190    9.087330911    9.587859577
    1.269616027    3.229099120    9.075827150    9.575830831
    1.276794658    3.226564780    9.064294049    9.563770857
    1.283973289    3.224023244    9.052732027    9.551680085
    1.291151920    3.221474586    9.041141501    9.539558942
    1.298330551    3.218918879    9.029522889    9.527407852
    1.305509182    3.216356195    9.017876606    9.515227242
    1.312687813    3.213786607    9.006203064    9.503017534
    1.319866444    3.211210188    8.994502677    9.490779149
    1.327045075    3.208627010    8.982775854    9.478512509
    1.334223706    3.206037145    8.971023006    9.466218032
    1.341402337    3.203440665    8.959244539    9.453896135
    1.348580968    3.200837642    8.947440859    9.441547234
    1.355759599    3.198228147    8.935612371    9.429171744
    1.362938230    3.195612252    8.923759478    9.416770078
    1.370116861    3.192990029    8.911882580    9.404342647
    1.377295492    3.190361547    8.899982078    9.391889861
    1.384474124    3.187726878    8.888058369    9.379412128
    1.391652755    3.185086092    8.876111849    9.366909854
    1.398831386    3.182439260    8.864142912    9.354383446
    1.406010017    3.179786451    8.852151953    9.341833305
    1.413188648    3.177127737    8.840139361    9.329259835
    1.420367279    3.174463186    8.828105525    9.316663435
    1.427545910    3.171792868    8.816050835    9.304044503
    1.434724541    3.169116853    8.803975674    9.291403437
    1.441903172    3.166435209    8.791880428    9.278740632
    1.449081803    3.163748005    8.779765478    9.266056480
    1.456260434    3.161055311    8.767631206    9.253351374
    1.463439065    3.158357194    8.755477989    9.240625704
    1.470617696    3.155653723    8.743306204    9.227879857
    1.477796327    3.152944966    8.731116226    9.215114220
    1.484974958    3.150230991    8.718908429    9.202329178
    1.492153589    3.147511865    8.706683183    9.189525113
    1.499332220    3.144787655    8.694440859    9.176702406
    1.506510851    3.142058430    8.682181822    9.163861437
    1.513689482    3.139324255    8.669906439    9.151002583
    1.520868114    3.136585197    8.657615074    9.138126220
    1.528046745    3.133841324    8.645308087    9.125232720
    1.535225376    3.131092700    8.632985840    9.112322456
    1.542404007    3.128339393    8.620648689    9.099395798
    1.549582638    3.125581467    8.608296991    9.086453114
    1.556761269    3.122818989    8.595931099    9.073494770
    1.563939900    3.120052023    8.583551365    9.060521130
    1.571118531    3.117280635    8.571158141    9.047532557
    1.578297162    3.114504890    8.558751772    9.034529411
    1.585475793    3.111724851    8.546332606    9.021512050
    1.592654424    3.108940584    8.533900987    9.008480831
    1.599833055    3.106152153    8.521457256    8.995436109
    1.607011686    3.103359621    8.509001753    8.982378236
    1.614190317    3.100563051    8.496534818    8.969307563
    1.621368948    3.097762508    8.484056784    8.956224438
    1.628547579    3.094958055    8.471567988    8.943129209
    1.635726210    3.092149753    8.459068759    8.930022220
    1.642904841    3.089337667    8.446559430    8.916903815
    1.650083472    3.086521857    8.434040326    8.903774333
    1.657262104    3.083702387    8.421511774    8.890634113
    1.664440735    3.080879319    8.408974099    8.877483493
    1.671619366    3.078052713    8.396427621    8.864322807
    1.678797997    3.075222631    8.383872660    8.851152388
    1.685976628    3.072389134    8.371309534    8.837972567
    1.693155259    3.069552283    8.358738558    8.824783672
    1.700333890    3.066712139    8.346160047    8.811586031
    1.707512521    3.063868761    8.333574311    8.798379967
    1.714691152    3.061022211    8.320981659    8.785165803
    1.721869783    3.058172548    8.308382400    8.771943860
    1.729048414    3.055319830    8.295776838    8.758714458
    1.736227045    3.052464118    8.283165277    8.745477911
    1.743405676    3.049605471    8.270548017    8.732234534
    1.750584307    3.046743947    8.257925357    8.718984641
    1.757762938    3.043879605    8.245297595    8.705728541
    1.764941569    3.041012503    8.232665026    8.692466543
    1.772120200    3.038142699    8.220027942    8.679198953
    1.779298831    3.035270250    8.207386633    8.665926074
    1.786477462    3.032395215    8.194741390    8.652648211
    1.793656093    3.029517650    8.182092497    8.639365661
    1.800834725    3.026637611    8.169440240    8.626078724
    1.808013356    3.023755157    8.156784901    8.612787696
    1.815191987    3.020870342    8.144126761    8.599492870
    1.822370618    3.017983223    8.131466097    8.586194538
    1.829549249    3.015093856    8.118803186    8.572892990
    1.836727880    3.012202297    8.106138302    8.559588513
    1.843906511    3.009308600    8.093471717    8.546281394
    1.851085142    3.006412821    8.080803701    8.532971917
    1.858263773    3.003515014    8.068134523    8.519660361
    1.865442404    3.000615234    8.055464447    8.506347008
    1.872621035    2.997713534    8.042793738    8.493032134
    1.879799666    2.994809969    8.030122658    8.479716016
    1.886978297    2.991904593    8.017451467    8.466398925
    1.894156928    2.988997458    8.004780421    8.453081134
    1.901335559    2.986088618    7.992109777    8.439762912
    1.908514190    2.983178125    7.979439788    8.426444526
    1.915692821    2.980266033    7.966770706    8.413126241
    1.922871452    2.977352392    7.954102781    8.399808321
    1.930050083    2.974437256    7.941436259    8.386491025
    1.937228715    2.971520675    7.928771387    8.373174614
    1.944407346    2.968602702    7.916108408    8.359859345
    1.951585977    2.965683386    7.903447563    8.346545471
    1.958764608    2.962762780    7.890789091    8.333233247
    1.965943239    2.959840933    7.878133231    8.319922924
    1.973121870    2.956917897    7.865480217    8.306614749
    1.980300501    2.953993720    7.852830284    8.293308970
    1.987479132    2.951068452    7.840183661    8.280005832
    1.994657763    2.948142144    7.827540580    8.266705578
    2.001836394    2.945214844    7.814901267    8.253408448
    2.009015025    2.942286600    7.802265947    8.240114682
    2.016193656    2.939357462    7.789634845    8.226824516
    2.023372287    2.936427479    7.777008182    8.213538185
    2.030550918    2.933496697    7.764386177    8.200255922
    2.037729549    2.930565164    7.751769048    8.186977959
    2.044908180    2.927632929    7.739157010    8.173704523
    2.052086811    2.924700038    7.726550278    8.160435841
    2.059265442    2.921766538    7.713949064    8.147172140
    2.066444073    2.918832476    7.701353576    8.133913642
    2.073622705    2.915897899    7.688764024    8.120660567
    2.080801336    2.912962851    7.676180613    8.107413136
    2.087979967    2.910027379    7.663603547    8.094171564
    2.095158598    2.907091529    7.651033028    8.080936068
    2.102337229    2.904155346    7.638469257    8.067706862
    2.109515860    2.901218874    7.625912433    8.054484155
    2.116694491    2.898282159    7.613362751    8.041268158
    2.123873122    2.895345244    7.600820407    8.028059078
    2.131051753    2.892408174    7.588285593    8.014857121
    2.138230384    2.889470993    7.575758500    8.001662490
    2.145409015    2.886533743    7.563239318    7.988475389
    2.152587646    2.883596470    7.550728233    7.975296015
    2.159766277    2.880659214    7.538225431    7.962124568
    2.166944908    2.877722020    7.525731096    7.948961244
    2.174123539    2.874784929    7.513245410    7.935806237
    2.181302170    2.871847985    7.500768552    7.922659740
    2.188480801    2.868911227    7.488300700    7.909521943
    2.195659432    2.865974699    7.475842031    7.896393035
    2.202838063    2.863038442    7.463392720    7.883273203
    2.210016694    2.860102496    7.450952939    7.870162632
    2.217195326    2.857166902    7.438522859    7.857061505
    2.224373957    2.854231701    7.426102650    7.843970004
    2.231552588    2.851296933    7.413692479    7.830888309
    2.238731219    2.848362639    7.401292511    7.817816598
    2.245909850    2.845428857    7.388902911    7.804755046
    2.253088481    2.842495627    7.376523841    7.791703828
    2.260267112    2.839562988    7.364155462    7.778663116
    2.267445743    2.836630979    7.351797932    7.765633081
    2.274624374    2.833699639    7.339451409    7.752613893
    2.281803005    2.830769006    7.327116047    7.739605718
    2.288981636    2.827839118    7.314792001    7.726608721
    2.296160267    2.824910013    7.302479422    7.713623068
    2.303338898    2.821981728    7.290178462    7.700648919
    2.310517529    2.819054300    7.277889268    7.687686435
    2.317696160    2.816127767    7.265611988    7.674735774
    2.324874791    2.813202165    7.253346767    7.661797094
    2.332053422    2.810277531    7.241093750    7.648870550
    2.339232053    2.807353900    7.228853077    7.635956294
    2.346410684    2.804431309    7.216624890    7.623054480
    2.353589316    2.801509793    7.204409327    7.610165256
    2.360767947    2.798589388    7.192206526    7.597288773
    2.367946578    2.795670128    7.180016623    7.584425176
    2.375125209    2.792752049    7.167839751    7.571574610
    2.382303840    2.789835185    7.155676044    7.558737220
    2.389482471    2.786919570    7.143525631    7.545913146
    2.396661102    2.784005239    7.131388644    7.533102530
    2.403839733    2.781092225    7.119265209    7.520305511
    2.411018364    2.778180561    7.107155452    7.507522224
    2.418196995    2.775270282    7.095059500    7.494752807
    2.425375626    2.772361419    7.082977474    7.481997392
    2.432554257    2.769454006    7.070909497    7.469256112
    2.439732888    2.766548075    7.058855689    7.456529097
    2.446911519    2.763643659    7.046816169    7.443816478
    2.454090150    2.760740789    7.034791054    7.431118382
    2.461268781    2.757839497    7.022780459    7.418434934
    2.468447412    2.754939814    7.010784500    7.405766260
    2.475626043    2.752041772    6.998803290    7.393112482
    2.482804674    2.749145402    6.986836939    7.380473723
    2.489983306    2.746250734    6.974885557    7.367850101
    2.497161937    2.743357799    6.962949254    7.355241737
    2.504340568    2.740466627    6.951028136    7.342648746
    2.511519199    2.737577247    6.939122309    7.330071244
    2.518697830    2.734689691    6.927231878    7.317509346
    2.525876461    2.731803986    6.915356945    7.304963165
    2.533055092    2.728920162    6.903497612    7.292432811
    2.540233723    2.726038249    6.891653980    7.279918394
