# energy grid [eV]     epsr_x  epsr_y  epsr_z
#
    0.200000000   10.644373843    8.263598460    6.992513841
    0.207178631   10.646378337    8.265195083    6.993813307
    0.214357262   10.648454706    8.266849045    6.995159483
    0.221535893   10.650603077    8.268560456    6.996552465
    0.228714524   10.652823582    8.270329432    6.997992352
    0.235893155   10.655116359    8.272156091    6.999479245
    0.243071786   10.657481548    8.274040559    7.001013250
    0.250250417   10.659919298    8.275982963    7.002594477
    0.257429048   10.662429759    8.277983436    7.004223040
    0.264607679   10.665013090    8.280042116    7.005899055
    0.271786311   10.667669453    8.282159143    7.007622644
    0.278964942   10.670399015    8.284334665    7.009393933
    0.286143573   10.673201949    8.286568834    7.011213050
    0.293322204   10.676078434    8.288861804    7.013080130
    0.300500835   10.679028654    8.291213738    7.014995309
    0.307679466   10.682052799    8.293624802    7.016958729
    0.314858097   10.685151064    8.296095166    7.018970537
    0.322036728   10.688323652    8.298625009    7.021030883
    0.329215359   10.691570768    8.301214510    7.023139922
    0.336393990   10.694892628    8.303863858    7.025297814
    0.343572621   10.698289449    8.306573245    7.027504723
    0.350751252   10.701761459    8.309342869    7.029760818
    0.357929883   10.705308890    8.312172936    7.032066272
    0.365108514   10.708931981    8.315063654    7.034421266
    0.372287145   10.712630978    8.318015241    7.036825982
    0.379465776   10.716406132    8.321027918    7.039280609
    0.386644407   10.720257706    8.324101914    7.041785343
    0.393823038   10.724185964    8.327237465    7.044340382
    0.401001669   10.728191182    8.330434812    7.046945932
    0.408180301   10.732273642    8.333694204    7.049602204
    0.415358932   10.736433633    8.337015897    7.052309415
    0.422537563   10.740671454    8.340400155    7.055067788
    0.429716194   10.744987410    8.343847247    7.057877551
    0.436894825   10.749381816    8.347357451    7.060738940
    0.444073456   10.753854996    8.350931056    7.063652197
    0.451252087   10.758407281    8.354568353    7.066617570
    0.458430718   10.763039014    8.358269648    7.069635315
    0.465609349   10.767750546    8.362035250    7.072705695
    0.472787980   10.772542238    8.365865482    7.075828978
    0.479966611   10.777414460    8.369760673    7.079005443
    0.487145242   10.782367596    8.373721163    7.082235375
    0.494323873   10.787402037    8.377747302    7.085519067
    0.501502504   10.792518189    8.381839451    7.088856822
    0.508681135   10.797716467    8.385997980    7.092248949
    0.515859766   10.802997300    8.390223273    7.095695769
    0.523038397   10.808361129    8.394515725    7.099197609
    0.530217028   10.813808409    8.398875742    7.102754809
    0.537395659   10.819339607    8.403303743    7.106367717
    0.544574290   10.824955207    8.407800164    7.110036693
    0.551752922   10.830655706    8.412365449    7.113762107
    0.558931553   10.836441618    8.417000063    7.117544339
    0.566110184   10.842313473    8.421704483    7.121383785
    0.573288815   10.848271819    8.426479201    7.125280849
    0.580467446   10.854317222    8.431324731    7.129235952
    0.587646077   10.860450265    8.436241600    7.133249525
    0.594824708   10.866671555    8.441230357    7.137322015
    0.602003339   10.872981716    8.446291569    7.141453886
    0.609181970   10.879381398    8.451425827    7.145645615
    0.616360601   10.885871272    8.456633741    7.149897697
    0.623539232   10.892452036    8.461915947    7.154210644
    0.630717863   10.899124412    8.467273106    7.158584986
    0.637896494   10.905889152    8.472705906    7.163021275
    0.645075125   10.912747037    8.478215061    7.167520082
    0.652253756   10.919698881    8.483801320    7.172082000
    0.659432387   10.926745529    8.489465460    7.176707645
    0.666611018   10.933887864    8.495208295    7.181397659
    0.673789649   10.941126808    8.501030676    7.186152711
    0.680968280   10.948463323    8.506933494    7.190973495
    0.688146912   10.955898415    8.512917683    7.195860738
    0.695325543   10.963433140    8.518984221    7.200815200
    0.702504174   10.971068602    8.525134140    7.205837672
    0.709682805   10.978805962    8.531368522    7.210928985
    0.716861436   10.986646441    8.537688509    7.216090010
    0.724040067   10.994591324    8.544095307    7.221321658
    0.731218698   11.002641967    8.550590188    7.226624891
    0.738397329   11.010799799    8.557174502    7.232000718
    0.745575960   11.019066337    8.563849679    7.237450203
    0.752754591   11.027443185    8.570617238    7.242974470
    0.759933222   11.035932047    8.577478798    7.248574708
    0.767111853   11.044534737    8.584436082    7.254252176
    0.774290484   11.053253188    8.591490935    7.260008210
    0.781469115   11.062089464    8.598645331    7.265844232
    0.788647746   11.071045776    8.605901389    7.271761754
    0.795826377   11.080124495    8.613261390    7.277762395
    0.803005008   11.089328174    8.620727792    7.283847886
    0.810183639   11.098659563    8.628303253    7.290020082
    0.817362270   11.108121638    8.635990656    7.296280982
    0.824540902   11.117717624    8.643793132    7.302632740
    0.831719533   11.127451027    8.651714096    7.309077684
    0.838898164   11.137325672    8.659757283    7.315618343
    0.846076795   11.147345745    8.667926788    7.322257465
    0.853255426   11.157515839    8.676227118    7.328998050
    0.860434057   11.167841015    8.684663251    7.335843387
    0.867612688   11.178326868    8.693240704    7.342797088
    0.874791319   11.188979608    8.701965615    7.349863140
    0.881969950   11.199806156    8.710844842    7.357045962
    0.889148581   11.210814259    8.719886074    7.364350470
    0.896327212   11.222012624    8.729097980    7.371782160
    0.903505843   11.233411088    8.738490370    7.379347202
    0.910684474   11.245020818    8.748074405    7.387052566
    0.917863105   11.256854561    8.757862852    7.394906159
    0.925041736   11.268926943    8.767870390    7.402917009
    0.932220367   11.281254858    8.778114002    7.411095485
    0.939398998   11.293857934    8.788613458    7.419453573
    0.946577629   11.306759136    8.799391927    7.428005227
    0.953756260   11.319985527    8.810476759    7.436766812
    0.960934891   11.333569252    8.821900484    7.445757674
    0.968113523   11.347548803    8.833702118    7.455000880
    0.975292154   11.361970699    8.845928869    7.464524189
    0.982470785   11.376891691    8.858638403    7.474361333
    0.989649416   11.392381742    8.871901888    7.484553744
    0.996828047   11.408528056    8.885808125    7.495152889
    1.004006678   11.425440634    8.900469232    7.506223489
    1.011185309   11.443259989    8.916028542    7.517847979
    1.018363940   11.462167973    8.932671699    7.530132781
    1.025542571   11.482403076    8.950642317    7.543217146
    1.032721202   11.504281907    8.970263987    7.557285581
    1.039899833   11.528228584    8.991970374    7.572584844
    1.047078464   11.554811401    9.016342779    7.589445139
    1.054257095   11.584774779    9.044142862    7.608298597
    1.061435726   11.619007955    9.076280552    7.629661208
    1.068614357   11.658207968    9.113468791    7.653938143
    1.075792988   11.701263184    9.154567547    7.680489888
    1.082971619   11.738626674    9.189795231    7.703803875
    1.090150250   11.730738577    9.178623735    7.701028420
    1.097328881   11.594269212    9.035685333    7.624024982
    1.104507513   11.381413829    8.814449010    7.502952527
    1.111686144   11.293560934    8.721222782    7.454164220
    1.118864775   11.308332601    8.733079611    7.464736761
    1.126043406   11.350821687    8.773279275    7.491399688
    1.133222037   11.394572510    8.814716754    7.518875259
    1.140400668   11.434070767    8.851739812    7.543985125
    1.147579299   11.469131725    8.884155604    7.566631050
    1.154757930   11.500600685    8.912825992    7.587311129
    1.161936561   11.529344631    8.938634454    7.606537466
    1.169115192   11.556063074    8.962292194    7.624727197
    1.176293823   11.581289685    8.984339667    7.642203801
    1.183472454   11.605429092    9.005184096    7.659218829
    1.190651085   11.628792300    9.025135527    7.675972959
    1.197829716   11.651624252    9.044434769    7.692632681
    1.205008347   11.674124183    9.063273868    7.709343043
    1.212186978   11.696460688    9.081811050    7.726237633
    1.219365609   11.718783226    9.100181854    7.743446928
    1.226544240   11.741231450    9.118507829    7.761105945
    1.233722871   11.763943435    9.136903793    7.779362049
    1.240901503   11.787063730    9.155484487    7.798383791
    1.248080134   11.810752132    9.174371369    7.818371754
    1.255258765   11.835194180    9.193700289    7.839572697
    1.262437396   11.860614611    9.213630956    7.862298726
    1.269616027   11.887295356    9.234359272    7.886953770
    1.276794658   11.915599872    9.256133774    7.914070066
    1.283973289   11.946004971    9.279276954    7.944356333
    1.291151920   11.979136547    9.304209115    7.978752064
    1.298330551   12.015785093    9.331458827    8.018450695
    1.305509182   12.056795160    9.361589943    8.064728423
    1.312687813   12.102398919    9.394760845    8.117916027
    1.319866444   12.149285583    9.428785759    8.172880153
    1.327045075   12.179400519    9.451724587    8.201754950
    1.334223706   12.133280498    9.424242129    8.112834386
    1.341402337   11.956410974    9.310277416    7.822034640
    1.348580968   11.805749680    9.213676253    7.571267709
    1.355759599   11.786569829    9.204091645    7.522756553
    1.362938230   11.825668198    9.233100896    7.563568581
    1.370116861   11.875513046    9.269266748    7.620322953
    1.377295492   11.923443972    9.304224547    7.673364098
    1.384474124   11.967624362    9.336773795    7.719677666
    1.391652755   12.008714255    9.367370336    7.760037142
    1.398831386   12.047785665    9.396748555    7.795772424
    1.406010017   12.085866330    9.425619853    7.828062267
    1.413188648   12.123824121    9.454590413    7.857829575
    1.420367279   12.162093682    9.483948162    7.885730898
    1.427545910   12.199425500    9.512696150    7.912003522
    1.434724541   12.228124861    9.534884870    7.935739850
    1.441903172   12.224183482    9.532014369    7.953329625
    1.449081803   12.173568876    9.493267029    7.962710915
    1.456260434   12.141726440    9.469000953    7.974567254
    1.463439065   12.156428693    9.480580059    7.993490420
    1.470617696   12.189224856    9.506095458    8.015003707
    1.477796327   12.224754252    9.533714317    8.036719228
    1.484974958   12.259170124    9.560466275    8.058088554
    1.492153589   12.291993868    9.585973423    8.079095357
    1.499332220   12.323486361    9.610426728    8.099834958
    1.506510851   12.353999079    9.634086280    8.120411889
    1.513689482   12.383836459    9.657175025    8.140919346
    1.520868114   12.413241168    9.679867055    8.161438180
    1.528046745   12.442405466    9.702295934    8.182039946
    1.535225376   12.471485212    9.724564972    8.202790301
    1.542404007   12.500611601    9.746755634    8.223752047
    1.549582638   12.529900312    9.768933797    8.244987830
    1.556761269   12.559458738    9.791154304    8.266562690
    1.563939900   12.589392031    9.813464297    8.288546682
    1.571118531   12.619808633    9.835905735    8.311017802
    1.578297162   12.650825883    9.858517360    8.334065494
    1.585475793   12.682576293    9.881336343    8.357795085
    1.592654424   12.715215182    9.904399759    8.382333621
    1.599833055   12.748930528    9.927746048    8.407837756
    1.607011686   12.783956218    9.951416572    8.434504647
    1.614190317   12.820590293    9.975457452    8.462587159
    1.621368948   12.859220205    9.999921827    8.492415083
    1.628547579   12.900357056   10.024872772    8.524423997
    1.635726210   12.944677978   10.050387028    8.559191142
    1.642904841   12.993062414   10.076559427    8.597466428
    1.650083472   13.046553170   10.103506311    8.640140966
    1.657262104   13.105956342   10.131359969    8.687914358
    1.664440735   13.169931783   10.160220388    8.739701638
    1.671619366   13.227194934   10.189933866    8.786121569
    1.678797997   13.231574811   10.219360216    8.788663252
    1.685976628   13.090272189   10.246015093    8.669875070
    1.693155259   12.873610008   10.272217432    8.488557883
    1.700333890   12.801633725   10.304238333    8.428454135
    1.707512521   12.839957365   10.338419317    8.460152480
    1.714691152   12.903060227   10.361196882    8.509356888
    1.721869783   12.954604126   10.348439247    8.539744114
    1.729048414   12.994534864   10.315272947    8.555159496
    1.736227045   13.043343946   10.318060483    8.587098969
    1.743405676   13.099770059   10.350262161    8.632789873
    1.750584307   13.157464754   10.391165310    8.681568699
    1.757762938   13.214909759   10.433664614    8.730258339
    1.764941569   13.272641477   10.476529727    8.778861822
    1.772120200   13.331755135   10.520087368    8.828197105
    1.779298831   13.393530574   10.565045581    8.879285666
    1.786477462   13.459254689   10.612188757    8.933200974
    1.793656093   13.529553904   10.662100511    8.990825560
    1.800834725   13.601443239   10.714116333    9.051746941
    1.808013356   13.657352871   10.762390540    9.110050699
    1.815191987   13.643954957   10.788139258    9.146546514
    1.822370618   13.530914159   10.779562738    9.155501247
    1.829549249   13.419569147   10.768616608    9.193573379
    1.836727880   13.337007883   10.763345298    9.276191524
    1.843906511   13.322819299   10.787280052    9.371751540
    1.851085142   13.373422273   10.827307457    9.412908610
    1.858263773   13.431516358   10.813021691    9.230301916
    1.865442404   13.472945878   10.716186775    8.759238943
    1.872621035   13.520641568   10.666019655    8.445570112
    1.879799666   13.583194650   10.702945733    8.425708696
    1.886978297   13.650456004   10.772817556    8.512649487
    1.894156928   13.717885016   10.849143890    8.614423188
    1.901335559   13.784124596   10.924086556    8.708757629
    1.908514190   13.845115921   10.988103305    8.793195425
    1.915692821   13.886273521   11.011691678    8.869507667
    1.922871452   13.893917315   10.967377955    8.939925764
    1.930050083   13.908810120   10.935886684    9.006444230
    1.937228715   13.957466802   10.971335231    9.068686748
    1.944407346   14.013473698   11.029162933    9.118433884
    1.951585977   14.044439355   11.065499398    9.132786008
    1.958764608   14.047835336   11.074731705    9.112841266
    1.965943239   14.077080610   11.108525054    9.121315216
    1.973121870   14.138831826   11.173284715    9.165655890
    1.980300501   14.212382973   11.247216191    9.221401032
    1.987479132   14.287012843   11.311916996    9.276384226
    1.994657763   14.352924332   11.334771652    9.321802681
    2.001836394   14.403128727   11.300704411    9.354057059
    2.009015025   14.443467071   11.289250530    9.388994389
    2.016193656   14.441447056   11.316553221    9.425885279
    2.023372287   14.389813817   11.345297564    9.455410003
    2.030550918   14.382195594   11.387490782    9.489436054
    2.037729549   14.437246394   11.452045282    9.537422727
    2.044908180   14.521747547   11.528421457    9.596368144
    2.052086811   14.611903649   11.595596700    9.657375510
    2.059265442   14.693502763   11.626888255    9.709571642
    2.066444073   14.755112276   11.630661789    9.737832365
    2.073622705   14.776041106   11.635129973    9.711694601
    2.080801336   14.769055299   11.649883731    9.643065168
    2.087979967   14.813103827   11.704505675    9.630620350
    2.095158598   14.906262588   11.788722487    9.677498214
    2.102337229   14.997231256   11.869174832    9.738210656
    2.109515860   15.008236641   11.892835170    9.781318732
    2.116694491   14.861292948   11.801386284    9.790411396
    2.123873122   14.719225654   11.707561959    9.804025412
    2.131051753   14.736293570   11.728045047    9.848672732
    2.138230384   14.833408185   11.807580277    9.907148048
    2.145409015   14.944468860   11.899650956    9.967859028
    2.152587646   15.036360657   11.988251008   10.027262835
    2.159766277   15.069798197   12.063705981   10.083442623
    2.166944908   15.057615600   12.128749268   10.137032087
    2.174123539   15.089026122   12.200327029   10.191241929
    2.181302170   15.156252130   12.271378856   10.243959620
    2.188480801   15.228823801   12.337431900   10.297155539
    2.195659432   15.296603539   12.391451776   10.354725754
    2.202838063   15.361633380   12.412739766   10.416437861
    2.210016694   15.437042393   12.377465781   10.483308651
    2.217195326   15.522740410   12.341161790   10.555276245
    2.224373957   15.619957112   12.385400606   10.631964777
    2.231552588   15.721899806   12.472270664   10.709488845
    2.238731219   15.816961220   12.560546238   10.774613529
    2.245909850   15.879388751   12.634137847   10.793004449
    2.253088481   15.862113531   12.679753591   10.713697476
    2.260267112   15.790352440   12.716744947   10.616686008
    2.267445743   15.770764299   12.775641583   10.611465864
    2.274624374   15.833903961   12.854777897   10.667610175
    2.281803005   15.936754771   12.953183632   10.750034940
    2.288981636   16.049522486   13.061017068   10.840139228
    2.296160267   16.160884952   13.164328820   10.929294467
    2.303338898   16.264374222   13.246672161   11.013994816
    2.310517529   16.361145532   13.311351769   11.096719253
    2.317696160   16.458352825   13.370421771   11.183881198
    2.324874791   16.565909621   13.444398476   11.277955854
    2.332053422   16.693028724   13.556631731   11.379095101
    2.339232053   16.818665589   13.652427675   11.479520782
    2.346410684   16.880472644   13.632434889   11.549592478
    2.353589316   16.757766647   13.469036266   11.517368627
    2.360767947   16.472236444   13.270617257   11.388811841
    2.367946578   16.354116316   13.235439471   11.353840664
    2.375125209   16.429899457   13.347851489   11.429990915
    2.382303840   16.566462317   13.506532671   11.542259882
    2.389482471   16.708054441   13.672782711   11.658740896
    2.396661102   16.845957583   13.840447259   11.776728697
    2.403839733   16.983245512   14.008573909   11.900498630
    2.411018364   17.118340636   14.161582491   12.027797047
    2.418196995   17.244195666   14.240856456   12.148638952
    2.425375626   17.349974412   14.178155368   12.235940207
    2.432554257   17.437345207   14.106248239   12.244751710
    2.439732888   17.493790106   14.137762162   12.187757242
    2.446911519   17.521906695   14.229520932   12.195997053
    2.454090150   17.578205942   14.291801065   12.264761455
    2.461268781   17.669354991   14.207806943   12.326484711
    2.468447412   17.785114139   14.101695741   12.402701827
    2.475626043   17.900609912   14.166057532   12.513957428
    2.482804674   18.001854123   14.331181167   12.636905814
    2.489983306   18.130169725   14.522323447   12.778354364
    2.497161937   18.285341112   14.715161482   12.933262280
    2.504340568   18.428323253   14.893511992   13.079608519
    2.511519199   18.499537007   15.015392514   13.188889531
    2.518697830   18.437489359   15.031984126   13.235372433
    2.525876461   18.393619379   15.055217391   13.305368380
    2.533055092   18.496306378   15.189287081   13.459732140
    2.540233723   18.649459743   15.364424160   13.649306009
