# energy grid [eV]     epsr_x  epsr_y  epsr_z
#
    0.200000000   14.450167382   13.597571425   12.365917487
    0.207178631   14.453718701   13.600831693   12.368723379
    0.214357262   14.457397814   13.604209291   12.371630366
    0.221535893   14.461204996   13.607704470   12.374638679
    0.228714524   14.465140529   13.611317492   12.377748557
    0.235893155   14.469204707   13.615048628   12.380960251
    0.243071786   14.473397834   13.618898159   12.384274019
    0.250250417   14.477720225   13.622866375   12.387690127
    0.257429048   14.482172206   13.626953578   12.391208855
    0.264607679   14.486754113   13.631160077   12.394830489
    0.271786311   14.491466293   13.635486194   12.398555327
    0.278964942   14.496309105   13.639932260   12.402383677
    0.286143573   14.501282919   13.644498618   12.406315855
    0.293322204   14.506388115   13.649185620   12.410352190
    0.300500835   14.511625086   13.653993628   12.414493022
    0.307679466   14.516994237   13.658923019   12.418738701
    0.314858097   14.522495984   13.663974178   12.423089587
    0.322036728   14.528130756   13.669147500   12.427546053
    0.329215359   14.533898993   13.674443396   12.432108483
    0.336393990   14.539801148   13.679862285   12.436777275
    0.343572621   14.545837687   13.685404599   12.441552836
    0.350751252   14.552009090   13.691070783   12.446435587
    0.357929883   14.558315847   13.696861294   12.451425963
    0.365108514   14.564758464   13.702776601   12.456524410
    0.372287145   14.571337460   13.708817185   12.461731390
    0.379465776   14.578053367   13.714983544   12.467047376
    0.386644407   14.584906732   13.721276185   12.472472858
    0.393823038   14.591898116   13.727695630   12.478008339
    0.401001669   14.599028095   13.734242417   12.483654339
    0.408180301   14.606297259   13.740917096   12.489411390
    0.415358932   14.613706215   13.747720232   12.495280045
    0.422537563   14.621255583   13.754652406   12.501260870
    0.429716194   14.628946003   13.761714214   12.507354449
    0.436894825   14.636778127   13.768906266   12.513561384
    0.444073456   14.644752626   13.776229190   12.519882296
    0.451252087   14.652870188   13.783683630   12.526317824
    0.458430718   14.661131519   13.791270247   12.532868626
    0.465609349   14.669537342   13.798989719   12.539535384
    0.472787980   14.678088398   13.806842743   12.546318796
    0.479966611   14.686785448   13.814830032   12.553219585
    0.487145242   14.695629273   13.822952322   12.560238499
    0.494323873   14.704620673   13.831210363   12.567376304
    0.501502504   14.713760469   13.839604931   12.574633797
    0.508681135   14.723049502   13.848136819   12.582011797
    0.515859766   14.732488637   13.856806841   12.589511152
    0.523038397   14.742078760   13.865615837   12.597132737
    0.530217028   14.751820780   13.874564665   12.604877457
    0.537395659   14.761715632   13.883654210   12.612746248
    0.544574290   14.771764273   13.892885381   12.620740080
    0.551752922   14.781967687   13.902259112   12.628859955
    0.558931553   14.792326886   13.911776362   12.637106911
    0.566110184   14.802842906   13.921438120   12.645482027
    0.573288815   14.813516815   13.931245401   12.653986417
    0.580467446   14.824349707   13.941199251   12.662621240
    0.587646077   14.835342711   13.951300748   12.671387700
    0.594824708   14.846496984   13.961550998   12.680287045
    0.602003339   14.857813717   13.971951144   12.689320574
    0.609181970   14.869294138   13.982502364   12.698489641
    0.616360601   14.880939509   13.993205871   12.707795652
    0.623539232   14.892751129   14.004062916   12.717240076
    0.630717863   14.904730338   14.015074791   12.726824442
    0.637896494   14.916878517   14.026242830   12.736550350
    0.645075125   14.929197088   14.037568412   12.746419471
    0.652253756   14.941687521   14.049052960   12.756433551
    0.659432387   14.954351332   14.060697947   12.766594423
    0.666611018   14.967190086   14.072504899   12.776904005
    0.673789649   14.980205404   14.084475394   12.787364315
    0.680968280   14.993398959   14.096611070   12.797977470
    0.688146912   15.006772483   14.108913622   12.808745701
    0.695325543   15.020327771   14.121384813   12.819671358
    0.702504174   15.034066683   14.134026473   12.830756924
    0.709682805   15.047991148   14.146840505   12.842005020
    0.716861436   15.062103170   14.159828889   12.853418427
    0.724040067   15.076404830   14.172993688   12.865000088
    0.731218698   15.090898294   14.186337053   12.876753136
    0.738397329   15.105585817   14.199861229   12.888680903
    0.745575960   15.120469749   14.213568564   12.900786943
    0.752754591   15.135552543   14.227461513   12.913075056
    0.759933222   15.150836763   14.241542651   12.925549312
    0.767111853   15.166325091   14.255814675   12.938214080
    0.774290484   15.182020337   14.270280424   12.951074061
    0.781469115   15.197925451   14.284942881   12.964134329
    0.788647746   15.214043531   14.299805194   12.977400371
    0.795826377   15.230377841   14.314870683   12.990878140
    0.803005008   15.246931822   14.330142862   13.004574115
    0.810183639   15.263709109   14.345625456   13.018495364
    0.817362270   15.280713553   14.361322418   13.032649630
    0.824540902   15.297949240   14.377237958   13.047045423
    0.831719533   15.315420515   14.393376567   13.061692129
    0.838898164   15.333132013   14.409743048   13.076600143
    0.846076795   15.351088689   14.426342554   13.091781027
    0.853255426   15.369295858   14.443180626   13.107247695
    0.860434057   15.387759237   14.460263245   13.123014647
    0.867612688   15.406484999   14.477596886   13.139098239
    0.874791319   15.425479831   14.495188587   13.155517030
    0.881969950   15.444751013   14.513046030   13.172292193
    0.889148581   15.464306498   14.531177634   13.189448044
    0.896327212   15.484155022   14.549592673   13.207012689
    0.903505843   15.504306235   14.568301418   13.225018860
    0.910684474   15.524770853   14.587315309   13.243504965
    0.917863105   15.545560863   14.606647180   13.262516464
    0.925041736   15.566689770   14.626311524   13.282107651
    0.932220367   15.588172916   14.646324853   13.302344014
    0.939398998   15.610027891   14.666706147   13.323305388
    0.946577629   15.632275075   14.687477455   13.345090229
    0.953756260   15.654938355   14.708664684   13.367821457
    0.960934891   15.678046096   14.730298676   13.391654576
    0.968113523   15.701632459   14.752416672   13.416789026
    0.975292154   15.725739232   14.775064336   13.443484182
    0.982470785   15.750418333   14.798298542   13.472081747
    0.989649416   15.775735179   14.822191117   13.503036222
    0.996828047   15.801772841   14.846833453   13.536952407
    1.004006678   15.828635619   14.872340458   13.574616108
    1.011185309   15.856445546   14.898846543   13.616952134
    1.018363940   15.885304929   14.926463426   13.664637861
    1.025542571   15.915116953   14.955078438   13.716282384
    1.032721202   15.944854668   14.983533121   13.761037167
    1.039899833   15.970267722   15.007046680   13.755439944
    1.047078464   15.983212964   15.016463633   13.616637339
    1.054257095   15.991123296   15.020124598   13.418785998
    1.061435726   16.013160830   15.039544065   13.354197787
    1.068614357   16.045767175   15.070708623   13.385700245
    1.075792988   16.082068029   15.105874699   13.442342323
    1.082971619   16.119938073   15.142626709   13.500657109
    1.090150250   16.159194260   15.180721192   13.556190591
    1.097328881   16.200209197   15.220525074   13.609296448
    1.104507513   16.243563621   15.262619573   13.661329445
    1.111686144   16.290002388   15.307743077   13.713798443
    1.118864775   16.340470711   15.356822911   13.768257374
    1.126043406   16.396147398   15.411007899   13.826345373
    1.133222037   16.458336796   15.471570683   13.889714089
    1.140400668   16.527708155   15.539204194   13.959306990
    1.147579299   16.600852946   15.610826449   14.031977149
    1.154757930   16.656748838   15.667006701   14.087108734
    1.161936561   16.619782003   15.637608901   14.050032041
    1.169115192   16.389030696   15.429014382   13.821021553
    1.176293823   16.146611618   15.210681834   13.580508893
    1.183472454   16.100245141   15.175930938   13.534288731
    1.190651085   16.158232106   15.239923472   13.591828705
    1.197829716   16.239280513   15.327621996   13.672955963
    1.205008347   16.320039891   15.418011701   13.754932675
    1.212186978   16.396830231   15.508589837   13.834601696
    1.219365609   16.470735667   15.601538666   13.913631195
    1.226544240   16.543772796   15.700002072   13.994578013
    1.233722871   16.617947737   15.806214776   14.079203794
    1.240901503   16.694596764   15.916497564   14.164623170
    1.248080134   16.772066696   16.002052819   14.228790417
    1.255258765   16.836781057   15.956306685   14.191744069
    1.262437396   16.840132640   15.628020013   13.951842795
    1.269616027   16.714118554   15.219584765   13.700565409
    1.276794658   16.568187752   15.043212410   13.644977911
    1.283973289   16.554492768   15.070578980   13.699973660
    1.291151920   16.617389537   15.168942277   13.781704463
    1.298330551   16.698550829   15.274565107   13.863124385
    1.305509182   16.780753672   15.372099694   13.939389445
    1.312687813   16.861383568   15.460539273   14.011328845
    1.319866444   16.941457499   15.541929709   14.080892373
    1.327045075   17.022807010   15.618600185   14.150087814
    1.334223706   17.107491692   15.692568801   14.220608631
    1.341402337   17.197708693   15.765248506   14.292854483
    1.348580968   17.295542826   15.836365295   14.361855425
    1.355759599   17.401803688   15.900485270   14.404886560
    1.362938230   17.514483644   15.947129331   14.382616374
    1.370116861   17.629122921   15.988600347   14.341644313
    1.377295492   17.706344713   16.038389920   14.353707695
    1.384474124   17.591820123   16.050684900   14.339150961
    1.391652755   17.141351883   15.980404978   14.214954280
    1.398831386   16.757050254   15.928163823   14.113997114
    1.406010017   16.714065594   15.964397909   14.132221257
    1.413188648   16.824873620   16.041887552   14.203319123
    1.420367279   16.967090305   16.130245362   14.284419448
    1.427545910   17.108723656   16.221928266   14.364429712
    1.434724541   17.245233038   16.314524755   14.440590083
    1.441903172   17.375037947   16.398383659   14.505959554
    1.449081803   17.487237716   16.440213647   14.537342772
    1.456260434   17.568169664   16.413048841   14.520633263
    1.463439065   17.619101417   16.376304129   14.520574594
    1.470617696   17.579484919   16.306805757   14.558517430
    1.477796327   17.453370016   16.205926231   14.587309525
    1.484974958   17.325039836   16.170305917   14.577134688
    1.492153589   17.158982769   16.146250989   14.571065415
    1.499332220   17.033727711   16.132226139   14.604528133
    1.506510851   17.057720123   16.180235073   14.663801183
    1.513689482   17.158008933   16.260653119   14.731812216
    1.520868114   17.270496304   16.345366670   14.801782395
    1.528046745   17.377153426   16.426750440   14.872120569
    1.535225376   17.475694877   16.503988510   14.939589658
    1.542404007   17.567025828   16.576747994   14.988836356
    1.549582638   17.651701306   16.642724581   14.980324388
    1.556761269   17.731501325   16.703297285   14.919148358
    1.563939900   17.810801472   16.767739413   14.909888146
    1.571118531   17.888289371   16.833426121   14.958728111
    1.578297162   17.953575448   16.883355198   15.018268524
    1.585475793   17.988198564   16.897531130   15.057924339
    1.592654424   17.996734001   16.906015139   15.074875863
    1.599833055   18.020030087   16.948370080   15.100845414
    1.607011686   18.076883011   17.014504359   15.154066268
    1.614190317   18.148986372   17.088885215   15.220698842
    1.621368948   18.223993848   17.166067257   15.291189526
    1.628547579   18.298745334   17.245612579   15.363681235
    1.635726210   18.373058539   17.328540943   15.438900932
    1.642904841   18.447448474   17.415990505   15.518074091
    1.650083472   18.522504514   17.507534197   15.601416276
    1.657262104   18.598520299   17.595201238   15.683637601
    1.664440735   18.674554879   17.644208925   15.738659096
    1.671619366   18.746772144   17.580698785   15.699915453
    1.678797997   18.810442418   17.442898099   15.568133547
    1.685976628   18.864133024   17.391895327   15.507184557
    1.693155259   18.922516928   17.430893426   15.547514609
    1.700333890   18.993736103   17.513415746   15.625405924
    1.707512521   19.046827511   17.586181492   15.670519725
    1.714691152   19.048240703   17.612108114   15.628581361
    1.721869783   19.052648959   17.636883072   15.586226617
    1.729048414   19.114500473   17.707767444   15.629658465
    1.736227045   19.206686051   17.802323808   15.716431907
    1.743405676   19.307368657   17.902234810   15.811875290
    1.750584307   19.407932206   17.999079185   15.900904603
    1.757762938   19.495755907   18.076493065   15.958878645
    1.764941569   19.547604492   18.103778027   15.942114141
    1.772120200   19.578969350   18.104847155   15.892012843
    1.779298831   19.619980756   18.132381445   15.910969147
    1.786477462   19.621318235   18.141101703   15.977891929
    1.793656093   19.609587939   18.141929924   16.056848919
    1.800834725   19.666067032   18.196694278   16.138384838
    1.808013356   19.766242278   18.284939752   16.219863845
    1.815191987   19.878212151   18.380912660   16.300940388
    1.822370618   19.992643918   18.477062901   16.382472471
    1.829549249   20.108697194   18.572592628   16.465685676
    1.836727880   20.227694520   18.668363476   16.551887736
    1.843906511   20.351241931   18.765528169   16.642140242
    1.851085142   20.479729681   18.864979847   16.735885234
    1.858263773   20.607989853   18.966217444   16.825777298
    1.865442404   20.716860878   19.064530855   16.886982019
    1.872621035   20.782845296   19.149827024   16.885633832
    1.879799666   20.814840001   19.219361126   16.827808424
    1.886978297   20.882099035   19.299842614   16.815438776
    1.894156928   20.962983987   19.377221598   16.866377251
    1.901335559   20.885926384   19.361852507   16.872930879
    1.908514190   20.613023440   19.236067209   16.800977598
    1.915692821   20.487354829   19.195242592   16.792488009
    1.922871452   20.573147780   19.275993004   16.873443514
    1.930050083   20.737112637   19.402622273   16.986008404
    1.937228715   20.916311224   19.537950639   17.103583931
    1.944407346   21.093515493   19.664914266   17.214543593
    1.951585977   21.260535336   19.754298780   17.296666655
    1.958764608   21.403249655   19.769931319   17.318042193
    1.965943239   21.508435070   19.778753871   17.312949017
    1.973121870   21.578867103   19.853973503   17.329093193
    1.980300501   21.679437576   19.969546344   17.387797423
    1.987479132   21.793025970   20.092892958   17.470718494
    1.994657763   21.799944277   20.196377219   17.521991406
    2.001836394   21.724095635   20.284161990   17.544322113
    2.009015025   21.768100392   20.391383565   17.606916210
    2.016193656   21.886979200   20.494913725   17.699359970
    2.023372287   21.935069181   20.538463131   17.780527122
    2.030550918   21.917437473   20.552159185   17.839128862
    2.037729549   21.953794777   20.631025880   17.889985043
    2.044908180   22.054685280   20.747471255   17.959360427
    2.052086811   22.172744518   20.840913447   18.057030499
    2.059265442   22.279952819   20.909414884   18.167078789
    2.066444073   22.422758295   21.014472554   18.282074213
    2.073622705   22.596960197   21.155044613   18.398699725
    2.080801336   22.779458545   21.308300139   18.507872657
    2.087979967   22.959322009   21.465201119   18.578628716
    2.095158598   23.131347734   21.623065683   18.572407258
    2.102337229   23.307603654   21.786155988   18.566071053
    2.109515860   23.498562735   21.955720150   18.636800068
    2.116694491   23.690295536   22.113294604   18.745948494
    2.123873122   23.846638284   22.207575574   18.850992257
    2.131051753   23.950590463   22.235075694   18.942781098
    2.138230384   23.989652002   22.255214792   19.039930942
    2.145409015   23.868508186   22.196580309   19.125340440
    2.152587646   23.763790142   22.144594256   19.189004703
    2.159766277   23.835496292   22.191739465   19.229579852
    2.166944908   24.005377748   22.316323378   19.289195591
    2.174123539   24.194330494   22.471682825   19.389046265
    2.181302170   24.376212042   22.627561798   19.502932689
    2.188480801   24.558553110   22.786652424   19.613983281
    2.195659432   24.743300739   22.940618493   19.716926598
    2.202838063   24.964669398   23.126892997   19.842280207
    2.210016694   25.207753884   23.346570416   19.987632098
    2.217195326   25.421602308   23.580274492   20.120295886
    2.224373957   25.521244220   23.816049861   20.190282022
    2.231552588   25.530212051   24.046110424   20.210643210
    2.238731219   25.626566339   24.245682696   20.275148178
    2.245909850   25.788296313   24.331922442   20.338880603
    2.253088481   25.964730339   24.323462808   20.372636778
    2.260267112   26.190624253   24.438429003   20.463915258
    2.267445743   26.444821196   24.669971580   20.605544075
    2.274624374   26.721350750   24.926900606   20.763836439
    2.281803005   27.030278952   25.147551285   20.932292264
    2.288981636   27.339056892   25.249301113   21.102509690
    2.296160267   27.631162219   25.221808193   21.268858385
    2.303338898   27.937686479   25.325938160   21.431830247
    2.310517529   28.211304317   25.543178835   21.563123516
    2.317696160   28.378434942   25.661381684   21.654865859
    2.324874791   28.216044552   25.498465999   21.757686082
    2.332053422   27.627992790   25.084247286   21.890024375
    2.339232053   27.305822574   24.940117688   22.060002131
    2.346410684   27.424956571   25.113344638   22.263473315
    2.353589316   27.756369093   25.395913612   22.473756292
    2.360767947   28.152887020   25.758560636   22.608196051
    2.367946578   28.488352977   26.122554217   22.580224534
    2.375125209   28.743249114   26.427149094   22.530341371
    2.382303840   28.996459143   26.674712408   22.609464706
    2.389482471   29.217581823   26.778372918   22.784330686
    2.396661102   29.382018944   26.716089491   22.994553096
    2.403839733   29.600332157   26.760938706   23.166299147
    2.411018364   29.849560233   26.957974142   23.206180872
    2.418196995   30.161980797   27.247603033   23.221357246
    2.425375626   30.544741843   27.586368060   23.250987529
    2.432554257   30.916117946   27.924828516   23.262909394
    2.439732888   31.290101322   28.293644524   23.316894337
    2.446911519   31.729451819   28.725058586   23.465263518
    2.454090150   32.261945172   29.197595037   23.705845015
    2.461268781   32.822643569   29.642359852   23.927642749
    2.468447412   33.322715364   29.996821514   24.095083558
    2.475626043   33.687410916   30.262452022   24.246706306
    2.482804674   33.831833395   30.423212165   24.422122452
    2.489983306   33.557328472   30.285577310   24.599364361
    2.497161937   33.132896314   30.022386656   24.772052567
    2.504340568   33.139692723   30.134192403   24.992727433
    2.511519199   33.432617348   30.520590276   25.222971549
    2.518697830   33.966083086   30.994451476   25.449261445
    2.525876461   34.658379186   31.564599867   25.687259809
    2.533055092   35.387670816   32.231149094   25.843526713
    2.540233723   36.119579777   32.938406009   25.968143178
