# energy grid [eV]     epsr_x  epsr_y  epsr_z
#
    0.200000000   20.862973035   23.501443339   23.221231531
    0.207178631   20.872699137   23.512624009   23.231646423
    0.214357262   20.882824864   23.524276199   23.242496472
    0.221535893   20.893357329   23.536410070   23.253790642
    0.228714524   20.904304139   23.549036586   23.265538611
    0.235893155   20.915673435   23.562167592   23.277750841
    0.243071786   20.927473931   23.575815896   23.290438655
    0.250250417   20.939714963   23.589995362   23.303614318
    0.257429048   20.952406543   23.604721019   23.317291142
    0.264607679   20.965559416   23.620009183   23.331483586
    0.271786311   20.979185124   23.635877594   23.346207393
    0.278964942   20.993296085   23.652345580   23.361479726
    0.286143573   21.007905669   23.669434230   23.377319337
    0.293322204   21.023028300   23.687166608   23.393746754
    0.300500835   21.038679559   23.705567996   23.410784507
    0.307679466   21.054876304   23.724666168   23.428457374
    0.314858097   21.071636813   23.744491718   23.446792685
    0.322036728   21.088980941   23.765078438   23.465820668
    0.329215359   21.106930302   23.786463764   23.485574853
    0.336393990   21.125508486   23.808689302   23.506092556
    0.343572621   21.144741302   23.831801446   23.527415451
    0.350751252   21.164657069   23.855852126   23.549590251
    0.357929883   21.185286953   23.880899692   23.572669523
    0.365108514   21.206665370   23.907009984   23.596712677
    0.372287145   21.228830465   23.934257637   23.621787165
    0.379465776   21.251824678   23.962727668   23.647969944
    0.386644407   21.275695439   23.992517427   23.675349284
    0.393823038   21.300496004   24.023739027   23.704027009
    0.401001669   21.326286485   24.056522374   23.734121301
    0.408180301   21.353135122   24.091018990   23.765770245
    0.415358932   21.381119876   24.127406891   23.799136341
    0.422537563   21.410330434   24.165896845   23.834412320
    0.429716194   21.440870774   24.206740522   23.871828697
    0.436894825   21.472862479   24.250241195   23.911663722
    0.444073456   21.506449062   24.296767980   23.954256607
    0.451252087   21.541801710   24.346775002   24.000025357
    0.458430718   21.579126980   24.400827515   24.049491078
    0.465609349   21.618677284   24.459637942   24.103311531
    0.472787980   21.660765308   24.524116108   24.162327931
    0.479966611   21.705784053   24.595439797   24.227630695
    0.487145242   21.754234718   24.675153750   24.300651734
    0.494323873   21.806764918   24.765305985   24.383291528
    0.501502504   21.864218082   24.868623166   24.478082547
    0.508681135   21.927685146   24.988687355   24.588353538
    0.515859766   21.998508564   25.129911498   24.718204481
    0.523038397   22.078024894   25.296456701   24.871488306
    0.530217028   22.166179845   25.486630885   25.046553928
    0.537395659   22.255634170   25.669274803   25.214095785
    0.544574290   22.311134496   25.701357274   25.239869357
    0.551752922   22.242525900   25.220450237   24.783865141
    0.558931553   22.059202835   24.262817228   23.880076191
    0.566110184   21.995196817   23.769052945   23.411111912
    0.573288815   22.052651064   23.784677993   23.422119666
    0.580467446   22.086943600   23.850846034   23.490461211
    0.587646077   22.024147055   23.753852553   23.421068122
    0.594824708   21.998865986   23.704539700   23.391027915
    0.602003339   22.082087689   23.822097720   23.501897678
    0.609181970   22.212410471   24.001722085   23.664690068
    0.616360601   22.356086518   24.186017697   23.830975830
    0.623539232   22.506598497   24.363468109   23.991504433
    0.630717863   22.665863605   24.535947533   24.148512117
    0.637896494   22.838218531   24.708273701   24.306852277
    0.645075125   23.029093514   24.885846541   24.471966076
    0.652253756   23.244654058   25.074280799   24.649261700
    0.659432387   23.490476039   25.279068786   24.842314461
    0.666611018   23.764941181   25.503329648   25.044633444
    0.673789649   24.032848633   25.738007882   25.207581245
    0.680968280   24.161684452   25.937520435   25.163631335
    0.688146912   24.031305180   26.059331687   24.759997922
    0.695325543   24.019466938   26.238631554   24.451840029
    0.702504174   24.331556803   26.497121239   24.532728743
    0.709682805   24.569579799   26.470483729   24.736398594
    0.716861436   24.102236404   25.587149782   24.789259428
    0.724040067   22.632084522   24.300905361   24.552052989
    0.731218698   20.583047022   23.588610925   24.054854404
    0.738397329   19.435334729   23.472424178   23.733211409
    0.745575960   19.456280575   23.695853839   23.779924162
    0.752754591   19.762202308   23.739158786   23.806495721
    0.759933222   19.858078451   23.218457241   23.495112167
    0.767111853   19.951859207   22.744575017   23.223932091
    0.774290484   20.266026555   22.815783537   23.308652701
    0.781469115   20.652555414   23.124724999   23.521146210
    0.788647746   20.958375382   23.419516573   23.620373310
    0.795826377   21.059052180   23.529273464   23.468964365
    0.803005008   21.056938378   23.445821112   23.328562407
    0.810183639   21.190767883   23.467456719   23.407965232
    0.817362270   21.326486492   23.569244529   23.579061768
    0.824540902   21.149208448   23.508789907   23.718907796
    0.831719533   20.805625513   23.347811503   23.801536437
    0.838898164   20.780269791   23.361603110   23.910330727
    0.846076795   21.013808161   23.517987020   24.065279201
    0.853255426   21.244543248   23.697634192   24.191790997
    0.860434057   21.241065879   23.835990178   24.172855826
    0.867612688   21.069387252   23.936180394   24.019905730
    0.874791319   21.110864679   24.060201618   23.993482919
    0.881969950   21.274842999   24.205038017   24.110162731
    0.889148581   21.213591538   24.334717478   24.248537210
    0.896327212   20.811109328   24.427136167   24.322360793
    0.903505843   20.497118365   24.485990832   24.260214600
    0.910684474   20.418475292   24.539363025   24.129655862
    0.917863105   20.553700835   24.647422503   24.141469051
    0.925041736   20.792341704   24.799024778   24.265661415
    0.932220367   21.050460727   24.970901598   24.422573671
    0.939398998   21.307331943   25.158301997   24.586749025
    0.946577629   21.563193819   25.362285163   24.754695204
    0.953756260   21.813325232   25.574796914   24.923392149
    0.960934891   22.010606144   25.740440114   25.067547435
    0.968113523   21.974005137   25.654172896   25.082697799
    0.975292154   21.422734720   24.995082074   24.775606728
    0.982470785   20.714865355   24.160394975   24.338614677
    0.989649416   20.509781085   23.897359776   24.219025382
    0.996828047   20.636126551   24.013769996   24.320531174
    1.004006678   20.841693160   24.223854895   24.478952293
    1.011185309   21.045506629   24.435442400   24.640742397
    1.018363940   21.230406318   24.628339673   24.792700702
    1.025542571   21.386608856   24.789252137   24.919016708
    1.032721202   21.480635571   24.873453109   24.965382364
    1.039899833   21.470129452   24.824687386   24.864171415
    1.047078464   21.449808330   24.766179264   24.757168367
    1.054257095   21.514118371   24.820946009   24.786334291
    1.061435726   21.618970701   24.930897153   24.883095918
    1.068614357   21.728374289   25.048622474   24.991550099
    1.075792988   21.832672850   25.161226689   25.096148326
    1.082971619   21.930798532   25.267098822   25.194603452
    1.090150250   22.023590814   25.367160777   25.287667581
    1.097328881   22.112108377   25.462650530   25.376527573
    1.104507513   22.197270474   25.554646695   25.462234655
    1.111686144   22.279817920   25.644012777   25.545627299
    1.118864775   22.360341885   25.731431249   25.627361914
    1.126043406   22.439319633   25.817447536   25.707957360
    1.133222037   22.517144303   25.902506815   25.787832706
    1.140400668   22.594147644   25.986982053   25.867335935
    1.147579299   22.670617111   26.071195007   25.946765267
    1.154757930   22.746808937   26.155432233   26.026385230
    1.161936561   22.822958486   26.239957736   26.106439196
    1.169115192   22.899288884   26.325023554   26.187159721
    1.176293823   22.976018743   26.410879272   26.268777711
    1.183472454   23.053369622   26.497781345   26.351531268
    1.190651085   23.131573887   26.586003047   26.435675017
    1.197829716   23.210883665   26.675845992   26.521490778
    1.205008347   23.291581737   26.767654360   26.609300594
    1.212186978   23.373995502   26.861833326   26.699483486
    1.219365609   23.458515417   26.958873665   26.792497751
    1.226544240   23.545619682   27.059384897   26.888911214
    1.233722871   23.635906377   27.164138720   26.989442280
    1.240901503   23.730130537   27.274119376   27.095013426
    1.248080134   23.829226383   27.390554290   27.206810516
    1.255258765   23.934225104   27.514803761   27.326304148
    1.262437396   24.045698551   27.647609335   27.455036641
    1.269616027   24.161273142   27.785730439   27.593382493
    1.276794658   24.266702978   27.909852364   27.735737834
    1.283973289   24.322880191   27.966748684   27.861891618
    1.291151920   24.329759335   27.953709816   27.958525680
    1.298330551   24.388545999   27.997206542   28.016345954
    1.305509182   24.486827392   28.060048997   27.885873730
    1.312687813   24.512337882   28.009685825   27.543876433
    1.319866444   24.400806459   27.834770403   27.342731011
    1.327045075   24.339695389   27.752188788   27.373520443
    1.334223706   24.426243032   27.857258334   27.529803787
    1.341402337   24.537619043   28.037641416   27.718888796
    1.348580968   24.567228376   28.227606836   27.905891439
    1.355759599   24.578195123   28.417874812   28.089219255
    1.362938230   24.681860104   28.608124625   28.270865965
    1.370116861   24.819390207   28.756606490   28.423995260
    1.377295492   24.902879351   28.772903658   28.488306326
    1.384474124   24.944093640   28.703034912   28.495727437
    1.391652755   25.056159024   28.767859315   28.594862575
    1.398831386   25.233350278   28.947549738   28.761653416
    1.406010017   25.432887816   29.140013024   28.894622177
    1.413188648   25.638431754   29.302463123   28.948916399
    1.420367279   25.846473261   29.469152696   29.022935029
    1.427545910   26.019168255   29.665518964   29.160362315
    1.434724541   26.017853470   29.896326479   29.335801898
    1.441903172   25.718358590   30.135800210   29.501153520
    1.449081803   25.504378447   30.414739275   29.706892533
    1.456260434   25.598970305   30.725192717   29.986866476
    1.463439065   25.772416742   30.906102683   30.279997034
    1.470617696   25.837975536   30.680666355   30.485610149
    1.477796327   25.852051367   30.112194476   30.513775374
    1.484974958   25.957836941   29.647618460   30.337064406
    1.492153589   26.094067772   29.485764827   29.926082939
    1.499332220   26.167036878   29.435500073   29.203586054
    1.506510851   26.240718328   29.431887108   28.741172685
    1.513689482   26.342599924   29.556638370   28.785991025
    1.520868114   26.504938800   29.785968196   29.081229563
    1.528046745   26.686154247   29.994735877   29.464787009
    1.535225376   26.883319950   30.203724686   29.845151981
    1.542404007   27.099886880   30.454232195   30.149431568
    1.549582638   27.247387474   30.553001763   30.315079540
    1.556761269   27.416439136   30.538890701   30.440335183
    1.563939900   27.636491134   30.707967671   30.683092739
    1.571118531   27.609444998   30.978145442   31.017134180
    1.578297162   27.008599970   31.152232242   31.380441395
    1.585475793   26.435587622   31.329724845   31.788566430
    1.592654424   26.258654750   31.488914925   32.171608590
    1.599833055   26.217186292   31.373730733   32.298486485
    1.607011686   26.192243411   30.811943090   31.800852387
    1.614190317   26.236078529   30.234151261   30.790905938
    1.621368948   26.381969369   29.897256741   29.761335608
    1.628547579   26.558102123   29.868835452   29.321036684
    1.635726210   26.725072952   30.161838710   29.522996697
    1.642904841   26.862296768   30.523257154   29.882756911
    1.650083472   26.924428715   30.716956059   30.104629116
    1.657262104   26.982630879   30.799688424   30.271736016
    1.664440735   27.193314342   30.764965992   30.508612057
    1.671619366   27.486101413   30.686889155   30.836994107
    1.678797997   27.784048465   30.710113787   31.217551879
    1.685976628   28.118580372   30.816075599   31.610199974
    1.693155259   28.508281923   31.094199209   31.993379345
    1.700333890   28.903102196   31.449011243   32.245508344
    1.707512521   29.238437402   31.785811941   32.342488039
    1.714691152   29.467284663   32.125860595   32.403726651
    1.721869783   29.599453448   32.289804113   32.289872812
    1.729048414   29.649033543   32.215315651   32.091610439
    1.736227045   29.625518753   32.169933354   32.191597060
    1.743405676   29.586666824   32.303207299   32.535533301
    1.750584307   29.275990773   32.448130424   32.843889058
    1.757762938   28.523510359   32.430540780   32.962656964
    1.764941569   28.035236756   32.517176204   32.975809634
    1.772120200   28.149600521   32.822589940   32.810643827
    1.779298831   28.415942046   33.020753579   32.534669999
    1.786477462   28.461530479   32.938190704   32.518640815
    1.793656093   28.559815130   32.884987699   32.631781946
    1.800834725   28.541207072   32.741705257   32.563606376
    1.808013356   28.177548872   32.447968317   32.430745080
    1.815191987   28.040522877   32.403048856   32.531517354
    1.822370618   28.246574335   32.673516798   32.893906367
    1.829549249   28.316297684   33.138674281   33.277383557
    1.836727880   28.015967448   33.559902974   33.474407356
    1.843906511   27.965417598   33.856764107   33.645944140
    1.851085142   28.211116372   34.090922408   33.867626575
    1.858263773   28.385548976   34.267158889   34.041330925
    1.865442404   28.459143758   34.473042529   34.214385728
    1.872621035   28.278040545   34.542477357   34.179797294
    1.879799666   28.006657334   34.589374375   33.936518809
    1.886978297   28.044223853   34.827582364   33.870373121
    1.894156928   28.231114963   34.984046901   33.918474708
    1.901335559   28.310010929   34.630769385   33.702083879
    1.908514190   28.390526388   34.180110269   33.551650521
    1.915692821   28.631037832   34.247867039   33.828106253
    1.922871452   28.934282430   34.452897114   34.204943304
    1.930050083   29.101418234   34.552506708   34.495685865
    1.937228715   29.137708780   34.722861068   34.724763847
    1.944407346   29.381003229   34.971525722   34.953870406
    1.951585977   29.813676729   35.091171468   34.948894484
    1.958764608   30.193183728   34.957701571   34.548550661
    1.965943239   30.375831180   34.854737471   34.073011004
    1.973121870   30.367804289   34.660620907   33.723624724
    1.980300501   30.084335145   34.364789253   33.473931832
    1.987479132   29.225591321   34.278576665   33.270011635
    1.994657763   28.505355046   34.536472688   33.377140633
    2.001836394   28.515335128   35.036150354   33.789882520
    2.009015025   28.854397636   35.549458465   34.306529035
    2.016193656   29.249282466   35.904843771   34.832294889
    2.023372287   29.654093694   36.161903578   35.338083609
    2.030550918   30.108806651   36.508948844   35.835808702
    2.037729549   30.510548162   36.863067034   36.250643061
    2.044908180   30.772191359   37.093239159   36.484916533
    2.052086811   30.884819510   37.000616003   36.473349071
    2.059265442   30.903974053   36.829792753   36.493749909
    2.066444073   31.063268933   36.905720707   36.760767618
    2.073622705   31.356529410   37.147002629   37.081112353
    2.080801336   31.686997991   37.405936765   37.300024002
    2.087979967   32.076242396   37.778095937   37.636454000
    2.095158598   32.510001274   38.276508930   38.158937768
    2.102337229   32.919025241   38.767749803   38.731828869
    2.109515860   33.188690866   39.119540098   39.219198909
    2.116694491   33.240750869   39.353007689   39.488495849
    2.123873122   33.235033030   39.616458538   39.513369650
    2.131051753   33.367191474   39.824503564   39.232259670
    2.138230384   33.612129191   40.012292070   38.900271751
    2.145409015   33.865184642   40.346489643   39.033538829
    2.152587646   34.061285126   40.776155695   39.463564536
    2.159766277   34.292434697   41.248968265   39.999301798
    2.166944908   34.666274859   41.770274029   40.591926060
    2.174123539   35.093388221   42.309599885   41.154146120
    2.181302170   35.418321506   42.804058018   41.538932059
    2.188480801   35.538643419   43.166082163   41.700166592
    2.195659432   35.622641507   43.459614562   41.963847003
    2.202838063   35.782316705   43.846765696   42.411405444
    2.210016694   35.900065022   44.269847199   42.895643385
    2.217195326   36.093194666   44.583362068   43.307749700
    2.224373957   36.376325245   44.665419746   43.596648738
    2.231552588   36.710405879   44.811291691   43.970704976
    2.238731219   37.100312844   45.221221948   44.511307733
    2.245909850   37.501867130   45.719194397   45.008908744
    2.253088481   37.901506194   46.232152588   45.349485918
    2.260267112   38.336485778   46.861882761   45.814668055
    2.267445743   38.825107716   47.624472566   46.531007296
    2.274624374   39.344251689   48.458050419   47.376710312
    2.281803005   39.872884712   49.302110081   48.248400620
    2.288981636   40.365009242   49.979189248   48.946477967
    2.296160267   40.721078202   49.999643977   48.960657713
    2.303338898   40.950996451   49.230886210   48.143861695
    2.310517529   41.260443431   48.973614358   47.803704113
    2.317696160   41.595567951   49.528617630   48.285357258
    2.324874791   41.846468692   50.329873381   48.908867479
    2.332053422   42.180313892   51.158591688   49.311763907
    2.339232053   42.618605506   52.110184396   49.764638175
    2.346410684   43.123948453   53.231495620   50.497001884
    2.353589316   43.651805693   54.382414956   51.344488508
    2.360767947   43.996867121   55.267644172   51.997343311
    2.367946578   44.138862943   55.478456567   52.203428516
    2.375125209   44.439369516   54.812613883   51.620352398
    2.382303840   45.004326689   54.185008209   51.111093259
    2.389482471   45.672852044   54.352364845   51.309782905
    2.396661102   46.308961599   54.795954064   51.695532233
    2.403839733   46.990954750   55.559943897   52.348470199
    2.411018364   47.592804290   56.456741829   53.330665610
    2.418196995   47.926748211   57.155478134   54.434705626
    2.425375626   48.333335973   58.032871157   55.394142192
    2.432554257   48.937167906   59.157924122   56.142788212
    2.439732888   49.501757278   60.134256125   56.971776782
    2.446911519   49.854166221   60.809896758   57.854759548
    2.454090150   50.377633619   61.473040483   58.849491063
    2.461268781   51.125444629   62.062507741   59.992564153
    2.468447412   51.834167880   62.271406158   61.104182736
    2.475626043   52.361660700   61.918882130   61.974682330
    2.482804674   52.851933166   62.146177241   62.864632504
    2.489983306   53.539446878   63.225935105   64.001226849
    2.497161937   54.346212684   64.547431381   65.175303304
    2.504340568   55.214807432   65.908894618   66.279412335
    2.511519199   56.051824138   67.240883710   67.256213899
    2.518697830   56.983667459   68.601257348   68.355814659
    2.525876461   57.717164435   69.790196020   69.458370762
    2.533055092   58.339987350   71.089826476   70.386348262
    2.540233723   59.268973992   73.152461166   71.490791519
