# energy grid [eV]     epsr_x  epsr_y  epsr_z
#
    0.200000000   13.878787380   13.202647961    4.158475363
    0.207178631   13.881579061   13.205512002    4.158961450
    0.214357262   13.884470521   13.208478608    4.159464853
    0.221535893   13.887461902   13.211547946    4.159985590
    0.228714524   13.890553350   13.214720185    4.160523682
    0.235893155   13.893745015   13.217995504    4.161079147
    0.243071786   13.897037054   13.221374087    4.161652005
    0.250250417   13.900429626   13.224856121    4.162242279
    0.257429048   13.903922899   13.228441803    4.162849989
    0.264607679   13.907517042   13.232131334    4.163475158
    0.271786311   13.911212233   13.235924922    4.164117810
    0.278964942   13.915008651   13.239822780    4.164777967
    0.286143573   13.918906485   13.243825127    4.165455654
    0.293322204   13.922905925   13.247932191    4.166150897
    0.300500835   13.927007167   13.252144202    4.166863720
    0.307679466   13.931210414   13.256461399    4.167594150
    0.314858097   13.935515874   13.260884027    4.168342215
    0.322036728   13.939923758   13.265412336    4.169107942
    0.329215359   13.944434284   13.270046584    4.169891360
    0.336393990   13.949047676   13.274787036    4.170692497
    0.343572621   13.953764162   13.279633960    4.171511383
    0.350751252   13.958583976   13.284587633    4.172348049
    0.357929883   13.963507357   13.289648340    4.173202526
    0.365108514   13.968534550   13.294816369    4.174074846
    0.372287145   13.973665805   13.300092017    4.174965042
    0.379465776   13.978901378   13.305475587    4.175873146
    0.386644407   13.984241530   13.310967389    4.176799193
    0.393823038   13.989686529   13.316567740    4.177743217
    0.401001669   13.995236646   13.322276962    4.178705254
    0.408180301   14.000892160   13.328095387    4.179685341
    0.415358932   14.006653355   13.334023351    4.180683512
    0.422537563   14.012520520   13.340061199    4.181699808
    0.429716194   14.018493951   13.346209282    4.182734264
    0.436894825   14.024573950   13.352467959    4.183786922
    0.444073456   14.030760822   13.358837595    4.184857820
    0.451252087   14.037054882   13.365318562    4.185946999
    0.458430718   14.043456448   13.371911242    4.187054500
    0.465609349   14.049965845   13.378616021    4.188180365
    0.472787980   14.056583404   13.385433295    4.189324638
    0.479966611   14.063309462   13.392363465    4.190487361
    0.487145242   14.070144362   13.399406941    4.191668579
    0.494323873   14.077088453   13.406564142    4.192868336
    0.501502504   14.084142092   13.413835493    4.194086680
    0.508681135   14.091305639   13.421221426    4.195323656
    0.515859766   14.098579463   13.428722382    4.196579312
    0.523038397   14.105963938   13.436338810    4.197853695
    0.530217028   14.113459446   13.444071168    4.199146856
    0.537395659   14.121066373   13.451919919    4.200458843
    0.544574290   14.128785114   13.459885537    4.201789708
    0.551752922   14.136616069   13.467968504    4.203139502
    0.558931553   14.144559644   13.476169308    4.204508276
    0.566110184   14.152616255   13.484488448    4.205896085
    0.573288815   14.160786321   13.492926431    4.207302982
    0.580467446   14.169070271   13.501483771    4.208729021
    0.587646077   14.177468537   13.510160992    4.210174258
    0.594824708   14.185981561   13.518958628    4.211638750
    0.602003339   14.194609792   13.527877219    4.213122554
    0.609181970   14.203353685   13.536917315    4.214625728
    0.616360601   14.212213702   13.546079478    4.216148331
    0.623539232   14.221190313   13.555364275    4.217690422
    0.630717863   14.230283995   13.564772284    4.219252064
    0.637896494   14.239495232   13.574304092    4.220833316
    0.645075125   14.248824515   13.583960298    4.222434242
    0.652253756   14.258272344   13.593741506    4.224054905
    0.659432387   14.267839225   13.603648334    4.225695370
    0.666611018   14.277525672   13.613681408    4.227355701
    0.673789649   14.287332209   13.623841363    4.229035965
    0.680968280   14.297259363   13.634128846    4.230736229
    0.688146912   14.307307674   13.644544512    4.232456561
    0.695325543   14.317477687   13.655089030    4.234197030
    0.702504174   14.327769954   13.665763075    4.235957706
    0.709682805   14.338185039   13.676567336    4.237738660
    0.716861436   14.348723511   13.687502511    4.239539963
    0.724040067   14.359385947   13.698569310    4.241361689
    0.731218698   14.370172936   13.709768452    4.243203912
    0.738397329   14.381085071   13.721100669    4.245066705
    0.745575960   14.392122957   13.732566704    4.246950146
    0.752754591   14.403287206   13.744167312    4.248854311
    0.759933222   14.414578438   13.755903257    4.250779277
    0.767111853   14.425997284   13.767775318    4.252725124
    0.774290484   14.437544382   13.779784283    4.254691933
    0.781469115   14.449220381   13.791930955    4.256679782
    0.788647746   14.461025936   13.804216147    4.258688756
    0.795826377   14.472961715   13.816640686    4.260718937
    0.803005008   14.485028393   13.829205409    4.262770409
    0.810183639   14.497226655   13.841911168    4.264843257
    0.817362270   14.509557196   13.854758828    4.266937569
    0.824540902   14.522020719   13.867749267    4.269053431
    0.831719533   14.534617940   13.880883374    4.271190932
    0.838898164   14.547349582   13.894162054    4.273350163
    0.846076795   14.560216378   13.907586226    4.275531214
    0.853255426   14.573219074   13.921156820    4.277734176
    0.860434057   14.586358424   13.934874783    4.279959145
    0.867612688   14.599635193   13.948741075    4.282206213
    0.874791319   14.613050156   13.962756671    4.284475478
    0.881969950   14.626604099   13.976922559    4.286767034
    0.889148581   14.640297819   13.991239745    4.289080982
    0.896327212   14.654132124   14.005709247    4.291417419
    0.903505843   14.668107833   14.020332102    4.293776448
    0.910684474   14.682225776   14.035109358    4.296158168
    0.917863105   14.696486794   14.050042082    4.298562685
    0.925041736   14.710891741   14.065131358    4.300990101
    0.932220367   14.725441480   14.080378283    4.303440524
    0.939398998   14.740136889   14.095783974    4.305914059
    0.946577629   14.754978855   14.111349562    4.308410815
    0.953756260   14.769968279   14.127076198    4.310930903
    0.960934891   14.785106074   14.142965047    4.313474432
    0.968113523   14.800393164   14.159017296    4.316041516
    0.975292154   14.815830488   14.175234146    4.318632268
    0.982470785   14.831418996   14.191616818    4.321246803
    0.989649416   14.847159652   14.208166552    4.323885239
    0.996828047   14.863053431   14.224884606    4.326547693
    1.004006678   14.879101323   14.241772258    4.329234285
    1.011185309   14.895304333   14.258830806    4.331945135
    1.018363940   14.911663476   14.276061565    4.334680367
    1.025542571   14.928179783   14.293465874    4.337440104
    1.032721202   14.944854300   14.311045090    4.340224472
    1.039899833   14.961688085   14.328800593    4.343033598
    1.047078464   14.978682211   14.346733780    4.345867610
    1.054257095   14.995837768   14.364846076    4.348726639
    1.061435726   15.013155856   14.383138922    4.351610817
    1.068614357   15.030637595   14.401613785    4.354520277
    1.075792988   15.048284118   14.420272154    4.357455153
    1.082971619   15.066096573   14.439115540    4.360415583
    1.090150250   15.084076125   14.458145479    4.363401705
    1.097328881   15.102223954   14.477363531    4.366413660
    1.104507513   15.120541256   14.496771281    4.369451588
    1.111686144   15.139029245   14.516370336    4.372515633
    1.118864775   15.157689149   14.536162333    4.375605941
    1.126043406   15.176522217   14.556148932    4.378722659
    1.133222037   15.195529710   14.576331819    4.381865935
    1.140400668   15.214712911   14.596712707    4.385035921
    1.147579299   15.234073117   14.617293328    4.388232768
    1.154757930   15.253611643   14.638075414    4.391456631
    1.161936561   15.273329820   14.659060673    4.394707666
    1.169115192   15.293229002   14.680250947    4.397986031
    1.176293823   15.313310572   14.701648316    4.401291888
    1.183472454   15.333575921   14.723254673    4.404625397
    1.190651085   15.354026456   14.745071847    4.407986723
    1.197829716   15.374663605   14.767101748    4.411376033
    1.205008347   15.395488817   14.789346348    4.414793493
    1.212186978   15.416503564   14.811807654    4.418239276
    1.219365609   15.437709335   14.834487711    4.421713551
    1.226544240   15.459107644   14.857388596    4.425216496
    1.233722871   15.480700023   14.880512422    4.428748285
    1.240901503   15.502488026   14.903861333    4.432309097
    1.248080134   15.524473231   14.927437513    4.435899115
    1.255258765   15.546657237   14.951243179    4.439518521
    1.262437396   15.569041664   14.975280587    4.443167500
    1.269616027   15.591628159   14.999552031    4.446846241
    1.276794658   15.614418388   15.024059841    4.450554934
    1.283973289   15.637414044   15.048806390    4.454293771
    1.291151920   15.660616842   15.073794089    4.458062948
    1.298330551   15.684028524   15.099025391    4.461862661
    1.305509182   15.707650855   15.124502792    4.465693111
    1.312687813   15.731485625   15.150228828    4.469554501
    1.319866444   15.755534653   15.176206083    4.473447034
    1.327045075   15.779799781   15.202437182    4.477370920
    1.334223706   15.804282879   15.228924799    4.481326367
    1.341402337   15.828985843   15.255671651    4.485313589
    1.348580968   15.853910600   15.282680508    4.489332802
    1.355759599   15.879059102   15.309954184    4.493384224
    1.362938230   15.904433329   15.337495545    4.497468075
    1.370116861   15.930035294   15.365307509    4.501584580
    1.377295492   15.955867036   15.393393046    4.505733965
    1.384474124   15.981930626   15.421755177    4.509916460
    1.391652755   16.008228165   15.450396980    4.514132298
    1.398831386   16.034761785   15.479321589    4.518381714
    1.406010017   16.061533651   15.508532194    4.522664948
    1.413188648   16.088545959   15.538032045    4.526982239
    1.420367279   16.115800938   15.567824449    4.531333834
    1.427545910   16.143300852   15.597912779    4.535719981
    1.434724541   16.171047998   15.628300466    4.540140930
    1.441903172   16.199044708   15.658991007    4.544596936
    1.449081803   16.227293349   15.689987967    4.549088258
    1.456260434   16.255796325   15.721294975    4.553615155
    1.463439065   16.284556077   15.752915730    4.558177894
    1.470617696   16.313575081   15.784854004    4.562776741
    1.477796327   16.342855854   15.817113638    4.567411969
    1.484974958   16.372400951   15.849698550    4.572083853
    1.492153589   16.402212965   15.882612731    4.576792672
    1.499332220   16.432294526   15.915860250    4.581538708
    1.506510851   16.462648305   15.949445254    4.586322249
    1.513689482   16.493277029   15.983371982    4.591143583
    1.520868114   16.524183466   16.017644757    4.596003005
    1.528046745   16.555370404   16.052267973    4.600900814
    1.535225376   16.586840676   16.087246116    4.605837312
    1.542404007   16.618597201   16.122583778    4.610812803
    1.549582638   16.650642938   16.158285642    4.615827600
    1.556761269   16.682980863   16.194356474    4.620882017
    1.563939900   16.715614001   16.230801141    4.625976372
    1.571118531   16.748545433   16.267624612    4.631110989
    1.578297162   16.781778292   16.304831959    4.636286196
    1.585475793   16.815315763   16.342428364    4.641502324
    1.592654424   16.849161082   16.380419115    4.646759710
    1.599833055   16.883317539   16.418809615    4.652058697
    1.607011686   16.917788478   16.457605381    4.657399630
    1.614190317   16.952577297   16.496812048    4.662782861
    1.621368948   16.987687451   16.536435374    4.668208744
    1.628547579   17.023122453   16.576481243    4.673677643
    1.635726210   17.058885876   16.616955667    4.679189922
    1.642904841   17.094981349   16.657864791    4.684745952
    1.650083472   17.131412566   16.699214897    4.690346112
    1.657262104   17.168183282   16.741012407    4.695990782
    1.664440735   17.205297316   16.783263889    4.701680350
    1.671619366   17.242758553   16.825976059    4.707415208
    1.678797997   17.280570943   16.869155788    4.713195757
    1.685976628   17.318738507   16.912810102    4.719022400
    1.693155259   17.357265332   16.956946195    4.724895547
    1.700333890   17.396155578   17.001571424    4.730815615
    1.707512521   17.435413479   17.046693323    4.736783027
    1.714691152   17.475043342   17.092319603    4.742798210
    1.721869783   17.515049548   17.138458159    4.748861601
    1.729048414   17.555436560   17.185117076    4.754973640
    1.736227045   17.596208917   17.232304637    4.761134775
    1.743405676   17.637371240   17.280029326    4.767345461
    1.750584307   17.678928234   17.328299835    4.773606160
    1.757762938   17.720884688   17.377125073    4.779917341
    1.764941569   17.763245479   17.426514173    4.786279478
    1.772120200   17.806015572   17.476476497    4.792693054
    1.779298831   17.849200024   17.527021645    4.799158561
    1.786477462   17.892803985   17.578159464    4.805676494
    1.793656093   17.936832699   17.629900056    4.812247361
    1.800834725   17.981291509   17.682253784    4.818871673
    1.808013356   18.026185859   17.735231287    4.825549953
    1.815191987   18.071521293   17.788843483    4.832282729
    1.822370618   18.117303462   17.843101585    4.839070538
    1.829549249   18.163538123   17.898017105    4.845913928
    1.836727880   18.210231144   17.953601871    4.852813452
    1.843906511   18.257388506   18.009868035    4.859769675
    1.851085142   18.305016304   18.066828085    4.866783168
    1.858263773   18.353120754   18.124494851    4.873854514
    1.865442404   18.401708186   18.182881510    4.880984303
    1.872621035   18.450785054   18.242001583    4.888173137
    1.879799666   18.500357947   18.301869048    4.895421625
    1.886978297   18.550433600   18.362498414    4.902730385
    1.894156928   18.601018845   18.423904470    4.910100040
    1.901335559   18.652120623   18.486102386    4.917531214
    1.908514190   18.703746099   18.549107827    4.925024574
    1.915692821   18.755902646   18.612936950    4.932580817
    1.922871452   18.808597670   18.677606400    4.940200612
    1.930050083   18.861838716   18.743133331    4.947884629
    1.937228715   18.915633508   18.809535432    4.955633559
    1.944407346   18.969989941   18.876830937    4.963448110
    1.951585977   19.024916077   18.945038634    4.971329003
    1.958764608   19.080420149   19.014177869    4.979276970
    1.965943239   19.136510565   19.084268728    4.987292757
    1.973121870   19.193195913   19.155332114    4.995377122
    1.980300501   19.250484962   19.227389410    5.003530837
    1.987479132   19.308386670   19.300462644    5.011754686
    1.994657763   19.366910179   19.374574632    5.020049466
    2.001836394   19.426064838   19.449748994    5.028415987
    2.009015025   19.485860246   19.526010207    5.036855086
    2.016193656   19.546306194   19.603383583    5.045367608
    2.023372287   19.607412659   19.681895309    5.053954410
    2.030550918   19.669189851   19.761572507    5.062616359
    2.037729549   19.731648208   19.842443290    5.071354342
    2.044908180   19.794798397   19.924536795    5.080169249
    2.052086811   19.858651340   20.007883242    5.089061994
    2.059265442   19.923218282   20.092513980    5.098033555
    2.066444073   19.988510695   20.178461547    5.107084907
    2.073622705   20.054540268   20.265759731    5.116217007
    2.080801336   20.121318981   20.354443633    5.125430839
    2.087979967   20.188859108   20.444549731    5.134727415
    2.095158598   20.257173221   20.536115951    5.144107766
    2.102337229   20.326274196   20.629181722    5.153572942
    2.109515860   20.396175221   20.723788040    5.163124011
    2.116694491   20.466889808   20.819977730    5.172762069
    2.123873122   20.538431794   20.917795563    5.182488237
    2.131051753   20.610815333   21.017287937    5.192303642
    2.138230384   20.684054916   21.118503133    5.202209422
    2.145409015   20.758165539   21.221491754    5.212206769
    2.152587646   20.833162609   21.326306877    5.222296925
    2.159766277   20.909061772   21.433003873    5.232481129
    2.166944908   20.985879069   21.541640393    5.242760625
    2.174123539   21.063631010   21.652276787    5.253136683
    2.181302170   21.142334552   21.764976299    5.263610609
    2.188480801   21.222007091   21.879805220    5.274183739
    2.195659432   21.302666490   21.996833051    5.284857440
    2.202838063   21.384331092   22.116132704    5.295633102
    2.210016694   21.467019739   22.237780727    5.306512147
    2.217195326   21.550751788   22.361857545    5.317496029
    2.224373957   21.635547116   22.488447812    5.328586232
    2.231552588   21.721426126   22.617640629    5.339784275
    2.238731219   21.808409880   22.749529763    5.351091709
    2.245909850   21.896520151   22.884214065    5.362510123
    2.253088481   21.985779182   23.021797850    5.374041137
    2.260267112   22.076209819   23.162391285    5.385686407
    2.267445743   22.167835607   23.306110820    5.397447622
    2.274624374   22.260680790   23.453079682    5.409326495
    2.281803005   22.354770323   23.603428393    5.421324764
    2.288981636   22.450129971   23.757295308    5.433444268
    2.296160267   22.546786274   23.914827242    5.445686881
    2.303338898   22.644766406   24.076180134    5.458054299
    2.310517529   22.744098527   24.241519885    5.470548349
    2.317696160   22.844812048   24.411023367    5.483171514
    2.324874791   22.946937015   24.584879014    5.495926002
    2.332053422   23.050504262   24.763288025    5.508813690
    2.339232053   23.155545663   24.946465421    5.521836603
    2.346410684   23.262094228   25.134641364    5.534996889
    2.353589316   23.370184075   25.328062617    5.548296704
    2.360767947   23.479850254   25.526993854    5.561738103
    2.367946578   23.591129190   25.731719730    5.575323459
    2.375125209   23.704058919   25.942546934    5.589055827
    2.382303840   23.818678427   26.159806027    5.602937760
    2.389482471   23.935027921   26.383854051    5.616971554
    2.396661102   24.053149121   26.615077436    5.631159721
    2.403839733   24.173085282   26.853895145    5.645504918
    2.411018364   24.294881225   27.100762250    5.660009895
    2.418196995   24.418583463   27.356174127    5.674677486
    2.425375626   24.544240330   27.620671210    5.689510609
    2.432554257   24.671901902   27.894844078    5.704512253
    2.439732888   24.801620139   28.179339676    5.719685487
    2.446911519   24.933449042   28.474868470    5.735033465
    2.454090150   25.067444758   28.782212589    5.750559433
    2.461268781   25.203665681   29.102235479    5.766266728
    2.468447412   25.342172578   29.435893167    5.782158786
    2.475626043   25.483028699   29.784246663    5.798239140
    2.482804674   25.626299954   30.148477210    5.814511429
    2.489983306   25.772055160   30.529904419    5.830979400
    2.497161937   25.920366029   30.930007420    5.847646915
    2.504340568   26.071307435   31.350450172    5.864517950
    2.511519199   26.224957910   31.793111835    5.881596602
    2.518697830   26.381399450   32.260122920    5.898887097
    2.525876461   26.540717713   32.753909183    5.916393793
    2.533055092   26.703002440   33.277245149    5.934121174
    2.540233723   26.868347745   33.833319803    5.952073846
