# energy grid [eV]     epsr_x  epsr_y  epsr_z
#
    0.200000000    3.470058268   11.970719625   11.894325785
    0.207178631    3.470430447   11.973090669   11.896728987
    0.214357262    3.470815884   11.975546472   11.899218136
    0.221535893    3.471214594   11.978087156   11.901793359
    0.228714524    3.471626591   11.980712846   11.904454787
    0.235893155    3.472051891   11.983423672   11.907202556
    0.243071786    3.472490509   11.986219767   11.910036807
    0.250250417    3.472942461   11.989101270   11.912957683
    0.257429048    3.473407765   11.992068325   11.915965335
    0.264607679    3.473886436   11.995121077   11.919059917
    0.271786311    3.474378494   11.998259678   11.922241587
    0.278964942    3.474883955   12.001484284   11.925510508
    0.286143573    3.475402840   12.004795055   11.928866848
    0.293322204    3.475935166   12.008192157   11.932310780
    0.300500835    3.476480954   12.011675758   11.935842482
    0.307679466    3.477040224   12.015246031   11.939462134
    0.314858097    3.477612997   12.018903156   11.943169924
    0.322036728    3.478199293   12.022647316   11.946966043
    0.329215359    3.478799136   12.026478696   11.950850688
    0.336393990    3.479412546   12.030397490   11.954824060
    0.343572621    3.480039547   12.034403893   11.958886365
    0.350751252    3.480680163   12.038498108   11.963037814
    0.357929883    3.481334417   12.042680340   11.967278622
    0.365108514    3.482002333   12.046950799   11.971609010
    0.372287145    3.482683938   12.051309701   11.976029205
    0.379465776    3.483379255   12.055757267   11.980539436
    0.386644407    3.484088312   12.060293720   11.985139940
    0.393823038    3.484811134   12.064919290   11.989830958
    0.401001669    3.485547750   12.069634213   11.994612735
    0.408180301    3.486298186   12.074438727   11.999485524
    0.415358932    3.487062471   12.079333077   12.004449579
    0.422537563    3.487840634   12.084317513   12.009505163
    0.429716194    3.488632705   12.089392287   12.014652542
    0.436894825    3.489438712   12.094557661   12.019891989
    0.444073456    3.490258687   12.099813897   12.025223782
    0.451252087    3.491092661   12.105161266   12.030648202
    0.458430718    3.491940665   12.110600042   12.036165538
    0.465609349    3.492802732   12.116130505   12.041776084
    0.472787980    3.493678894   12.121752940   12.047480140
    0.479966611    3.494569186   12.127467637   12.053278009
    0.487145242    3.495473639   12.133274891   12.059170003
    0.494323873    3.496392291   12.139175003   12.065156436
    0.501502504    3.497325174   12.145168280   12.071237632
    0.508681135    3.498272326   12.151255033   12.077413917
    0.515859766    3.499233783   12.157435579   12.083685625
    0.523038397    3.500209581   12.163710241   12.090053094
    0.530217028    3.501199759   12.170079347   12.096516669
    0.537395659    3.502204354   12.176543230   12.103076702
    0.544574290    3.503223405   12.183102229   12.109733549
    0.551752922    3.504256951   12.189756691   12.116487573
    0.558931553    3.505305034   12.196506965   12.123339143
    0.566110184    3.506367692   12.203353409   12.130288634
    0.573288815    3.507444969   12.210296384   12.137336427
    0.580467446    3.508536905   12.217336259   12.144482910
    0.587646077    3.509643543   12.224473408   12.151728477
    0.594824708    3.510764927   12.231708212   12.159073529
    0.602003339    3.511901100   12.239041056   12.166518471
    0.609181970    3.513052107   12.246472334   12.174063717
    0.616360601    3.514217993   12.254002444   12.181709688
    0.623539232    3.515398805   12.261631791   12.189456808
    0.630717863    3.516594588   12.269360785   12.197305513
    0.637896494    3.517805390   12.277189846   12.205256241
    0.645075125    3.519031259   12.285119395   12.213309440
    0.652253756    3.520272243   12.293149865   12.221465562
    0.659432387    3.521528393   12.301281692   12.229725070
    0.666611018    3.522799757   12.309515319   12.238088430
    0.673789649    3.524086387   12.317851197   12.246556118
    0.680968280    3.525388333   12.326289783   12.255128615
    0.688146912    3.526705650   12.334831540   12.263806412
    0.695325543    3.528038388   12.343476940   12.272590004
    0.702504174    3.529386602   12.352226461   12.281479897
    0.709682805    3.530750346   12.361080586   12.290476602
    0.716861436    3.532129675   12.370039809   12.299580638
    0.724040067    3.533524646   12.379104627   12.308792532
    0.731218698    3.534935314   12.388275548   12.318112820
    0.738397329    3.536361737   12.397553085   12.327542043
    0.745575960    3.537803973   12.406937759   12.337080754
    0.752754591    3.539262082   12.416430098   12.346729510
    0.759933222    3.540736122   12.426030640   12.356488879
    0.767111853    3.542226155   12.435739929   12.366359436
    0.774290484    3.543732241   12.445558515   12.376341764
    0.781469115    3.545254444   12.455486958   12.386436456
    0.788647746    3.546792824   12.465525826   12.396644112
    0.795826377    3.548347448   12.475675695   12.406965341
    0.803005008    3.549918378   12.485937148   12.417400761
    0.810183639    3.551505681   12.496310777   12.427951000
    0.817362270    3.553109422   12.506797182   12.438616692
    0.824540902    3.554729669   12.517396973   12.449398484
    0.831719533    3.556366490   12.528110766   12.460297029
    0.838898164    3.558019953   12.538939188   12.471312990
    0.846076795    3.559690129   12.549882872   12.482447041
    0.853255426    3.561377087   12.560942463   12.493699863
    0.860434057    3.563080900   12.572118613   12.505072150
    0.867612688    3.564801639   12.583411984   12.516564603
    0.874791319    3.566539379   12.594823245   12.528177934
    0.881969950    3.568294193   12.606353078   12.539912864
    0.889148581    3.570066156   12.618002171   12.551770127
    0.896327212    3.571855346   12.629771223   12.563750464
    0.903505843    3.573661837   12.641660944   12.575854629
    0.910684474    3.575485710   12.653672051   12.588083384
    0.917863105    3.577327042   12.665805273   12.600437505
    0.925041736    3.579185914   12.678061348   12.612917777
    0.932220367    3.581062406   12.690441024   12.625524995
    0.939398998    3.582956601   12.702945061   12.638259967
    0.946577629    3.584868582   12.715574227   12.651123513
    0.953756260    3.586798432   12.728329303   12.664116462
    0.960934891    3.588746237   12.741211079   12.677239656
    0.968113523    3.590712083   12.754220356   12.690493950
    0.975292154    3.592696057   12.767357947   12.703880208
    0.982470785    3.594698247   12.780624676   12.717399310
    0.989649416    3.596718742   12.794021376   12.731052145
    0.996828047    3.598757634   12.807548895   12.744839616
    1.004006678    3.600815013   12.821208091   12.758762639
    1.011185309    3.602890971   12.834999833   12.772822142
    1.018363940    3.604985604   12.848925003   12.787019067
    1.025542571    3.607099005   12.862984494   12.801354369
    1.032721202    3.609231271   12.877179214   12.815829015
    1.039899833    3.611382500   12.891510080   12.830443988
    1.047078464    3.613552788   12.905978024   12.845200284
    1.054257095    3.615742237   12.920583990   12.860098913
    1.061435726    3.617950946   12.935328934   12.875140898
    1.068614357    3.620179019   12.950213828   12.890327279
    1.075792988    3.622426558   12.965239655   12.905659108
    1.082971619    3.624693667   12.980407412   12.921137454
    1.090150250    3.626980454   12.995718110   12.936763401
    1.097328881    3.629287024   13.011172774   12.952538047
    1.104507513    3.631613486   13.026772443   12.968462508
    1.111686144    3.633959950   13.042518172   12.984537913
    1.118864775    3.636326528   13.058411028   13.000765409
    1.126043406    3.638713330   13.074452094   13.017146160
    1.133222037    3.641120472   13.090642469   13.033681344
    1.140400668    3.643548068   13.106983265   13.050372159
    1.147579299    3.645996236   13.123475613   13.067219819
    1.154757930    3.648465092   13.140120657   13.084225554
    1.161936561    3.650954757   13.156919558   13.101390614
    1.169115192    3.653465350   13.173873492   13.118716265
    1.176293823    3.655996996   13.190983654   13.136203794
    1.183472454    3.658549817   13.208251254   13.153854504
    1.190651085    3.661123939   13.225677519   13.171669719
    1.197829716    3.663719488   13.243263694   13.189650780
    1.205008347    3.666336594   13.261011041   13.207799050
    1.212186978    3.668975385   13.278920841   13.226115911
    1.219365609    3.671635995   13.296994392   13.244602764
    1.226544240    3.674318555   13.315233010   13.263261031
    1.233722871    3.677023202   13.333638032   13.282092158
    1.240901503    3.679750070   13.352210812   13.301097608
    1.248080134    3.682499299   13.370952725   13.320278868
    1.255258765    3.685271029   13.389865162   13.339637447
    1.262437396    3.688065400   13.408949540   13.359174876
    1.269616027    3.690882556   13.428207290   13.378892708
    1.276794658    3.693722643   13.447639869   13.398792521
    1.283973289    3.696585807   13.467248752   13.418875915
    1.291151920    3.699472197   13.487035437   13.439144515
    1.298330551    3.702381963   13.507001441   13.459599970
    1.305509182    3.705315258   13.527148306   13.480243954
    1.312687813    3.708272237   13.547477596   13.501078167
    1.319866444    3.711253054   13.567990897   13.522104334
    1.327045075    3.714257869   13.588689819   13.543324207
    1.334223706    3.717286842   13.609575995   13.564739563
    1.341402337    3.720340135   13.630651083   13.586352209
    1.348580968    3.723417911   13.651916764   13.608163977
    1.355759599    3.726520338   13.673374745   13.630176729
    1.362938230    3.729647583   13.695026759   13.652392355
    1.370116861    3.732799817   13.716874564   13.674812776
    1.377295492    3.735977213   13.738919944   13.697439941
    1.384474124    3.739179944   13.761164711   13.720275829
    1.391652755    3.742408189   13.783610703   13.743322452
    1.398831386    3.745662126   13.806259786   13.766581852
    1.406010017    3.748941936   13.829113855   13.790056104
    1.413188648    3.752247804   13.852174833   13.813747317
    1.420367279    3.755579916   13.875444672   13.837657630
    1.427545910    3.758938459   13.898925355   13.861789220
    1.434724541    3.762323626   13.922618895   13.886144297
    1.441903172    3.765735609   13.946527336   13.910725107
    1.449081803    3.769174604   13.970652753   13.935533931
    1.456260434    3.772640809   13.994997253   13.960573089
    1.463439065    3.776134426   14.019562977   13.985844936
    1.470617696    3.779655657   14.044352096   14.011351866
    1.477796327    3.783204708   14.069366809   14.037096304
    1.484974958    3.786781785   14.094609331   14.063080700
    1.492153589    3.790387098   14.120081928   14.089307558
    1.499332220    3.794020869   14.145786982   14.115779499
    1.506510851    3.797683317   14.171726870   14.142499143
    1.513689482    3.801374659   14.197903948   14.169469105
    1.520868114    3.805095116   14.224320627   14.196692058
    1.528046745    3.808844914   14.250979365   14.224170728
    1.535225376    3.812624281   14.277882668   14.251907894
    1.542404007    3.816433449   14.305033080   14.279906379
    1.549582638    3.820272652   14.332433186   14.308169058
    1.556761269    3.824142130   14.360085615   14.336698852
    1.563939900    3.828042122   14.387993038   14.365498733
    1.571118531    3.831972873   14.416158169   14.394571726
    1.578297162    3.835934632   14.444583767   14.423920905
    1.585475793    3.839927648   14.473272638   14.453549400
    1.592654424    3.843952176   14.502227633   14.483460396
    1.599833055    3.848008473   14.531451651   14.513657132
    1.607011686    3.852096802   14.560947639   14.544142905
    1.614190317    3.856217427   14.590718595   14.574921072
    1.621368948    3.860370616   14.620767566   14.605995048
    1.628547579    3.864556641   14.651097651   14.637368309
    1.635726210    3.868775778   14.681712003   14.669044394
    1.642904841    3.873028308   14.712613827   14.701026906
    1.650083472    3.877314512   14.743806384   14.733319511
    1.657262104    3.881634680   14.775292987   14.765925934
    1.664440735    3.885989101   14.807077008   14.798849957
    1.671619366    3.890378072   14.839161883   14.832095475
    1.678797997    3.894801892   14.871551118   14.865666477
    1.685976628    3.899260865   14.904248264   14.899566972
    1.693155259    3.903755299   14.937256936   14.933801038
    1.700333890    3.908285506   14.970580813   14.968372840
    1.707512521    3.912851804   15.004223641   15.003286627
    1.714691152    3.917454514   15.038189236   15.038546730
    1.721869783    3.922093961   15.072481479   15.074157563
    1.729048414    3.926770476   15.107104324   15.110123623
    1.736227045    3.931484395   15.142061795   15.146449496
    1.743405676    3.936236058   15.177357990   15.183139855
    1.750584307    3.941025809   15.212997081   15.220199467
    1.757762938    3.945854000   15.248983320   15.257633189
    1.764941569    3.950720984   15.285321033   15.295445977
    1.772120200    3.955627123   15.322014631   15.333642882
    1.779298831    3.960572783   15.359068605   15.372229060
    1.786477462    3.965558333   15.396487529   15.411209766
    1.793656093    3.970584151   15.434276068   15.450590365
    1.800834725    3.975650620   15.472438971   15.490376329
    1.808013356    3.980758126   15.510981079   15.530573242
    1.815191987    3.985907063   15.549907328   15.571186802
    1.822370618    3.991097831   15.589222747   15.612222827
    1.829549249    3.996330835   15.628932462   15.653687253
    1.836727880    4.001606488   15.669041701   15.695586143
    1.843906511    4.006925206   15.709555793   15.737925686
    1.851085142    4.012287415   15.750480173   15.780712203
    1.858263773    4.017693544   15.791820384   15.823952148
    1.865442404    4.023144032   15.833582078   15.867652116
    1.872621035    4.028639322   15.875771020   15.911818843
    1.879799666    4.034179865   15.918393095   15.956459212
    1.886978297    4.039766120   15.961454304   16.001580255
    1.894156928    4.045398551   16.004960770   16.047189161
    1.901335559    4.051077631   16.048918744   16.093293276
    1.908514190    4.056803840   16.093334604   16.139900112
    1.915692821    4.062577665   16.138214863   16.187017347
    1.922871452    4.068399602   16.183566164   16.234652824
    1.930050083    4.074270153   16.229395290   16.282814552
    1.937228715    4.080189830   16.275709166   16.331510729
    1.944407346    4.086159153   16.322514885   16.380749828
    1.951585977    4.092178649   16.369819687   16.430540482
    1.958764608    4.098248855   16.417630950   16.480891463
    1.965943239    4.104370316   16.465956215   16.531811764
    1.973121870    4.110543583   16.514803188   16.583310602
    1.980300501    4.116769208   16.564179734   16.635397418
    1.987479132    4.123047732   16.614093872   16.688081873
    1.994657763    4.129379729   16.664553823   16.741373872
    2.001836394    4.135765874   16.715568102   16.795283589
    2.009015025    4.142206787   16.767145337   16.849821428
    2.016193656    4.148703047   16.819294287   16.904998037
    2.023372287    4.155255256   16.872023924   16.960824330
    2.030550918    4.161864043   16.925343414   17.017311501
    2.037729549    4.168530047   16.979262166   17.074471031
    2.044908180    4.175253930   17.033789922   17.132314711
    2.052086811    4.182036361   17.088936584   17.190854626
    2.059265442    4.188878013   17.144712212   17.250103168
    2.066444073    4.195779575   17.201127129   17.310073056
    2.073622705    4.202741746   17.258191920   17.370777347
    2.080801336    4.209765236   17.315917429   17.432229443
    2.087979967    4.216850761   17.374314751   17.494443092
    2.095158598    4.223999032   17.433395228   17.557432380
    2.102337229    4.231210800   17.493170501   17.621211800
    2.109515860    4.238486901   17.553652538   17.685796305
    2.116694491    4.245828120   17.614853646   17.751201251
    2.123873122    4.253235223   17.676786522   17.817442576
    2.131051753    4.260709007   17.739464017   17.884536554
    2.138230384    4.268250290   17.802899278   17.952499773
    2.145409015    4.275859907   17.867105822   18.021349325
    2.152587646    4.283538712   17.932097497   18.091102796
    2.159766277    4.291287571   17.997888529   18.161778314
    2.166944908    4.299107371   18.064493726   18.233394778
    2.174123539    4.306999011   18.131928229   18.305971581
    2.181302170    4.314963410   18.200207421   18.379528514
    2.188480801    4.323001503   18.269347129   18.454086004
    2.195659432    4.331114242   18.339363649   18.529665147
    2.202838063    4.339302599   18.410273738   18.606287705
    2.210016694    4.347567565   18.482094621   18.683976129
    2.217195326    4.355910147   18.554844007   18.762753582
    2.224373957    4.364331375   18.628540101   18.842643967
    2.231552588    4.372832299   18.703201622   18.923671953
    2.238731219    4.381413986   18.778847855   19.005863040
    2.245909850    4.390077529   18.855498679   19.089243607
    2.253088481    4.398824041   18.933174512   19.173840870
    2.260267112    4.407654655   19.011896370   19.259682962
    2.267445743    4.416570531   19.091685908   19.346798984
    2.274624374    4.425572849   19.172565439   19.435219049
    2.281803005    4.434662816   19.254557948   19.524974316
    2.288981636    4.443841660   19.337687093   19.616097009
    2.296160267    4.453110640   19.421977225   19.708620465
    2.303338898    4.462471036   19.507453652   19.802579416
    2.310517529    4.471924157   19.594142622   19.898010001
    2.317696160    4.481471341   19.682070949   19.994949428
    2.324874791    4.491113952   19.771266282   20.093436269
    2.332053422    4.500853384   19.861757237   20.193510623
    2.339232053    4.510691062   19.953573405   20.295214158
    2.346410684    4.520628440   20.046745375   20.398590176
    2.353589316    4.530667006   20.141304776   20.503683695
    2.360767947    4.540808279   20.237284322   20.610541536
    2.367946578    4.551053811   20.334717864   20.719212424
    2.375125209    4.561405191   20.433640438   20.829747087
    2.382303840    4.571864038   20.534088313   20.942198365
    2.389482471    4.582431999   20.636099024   21.056621301
    2.396661102    4.593110751   20.739711447   21.173073287
    2.403839733    4.603902061   20.844966092   21.291614368
    2.411018364    4.614807742   20.951905023   21.412307275
    2.418196995    4.625829591   21.060571640   21.535217353
    2.425375626    4.636969429   21.171010969   21.660412878
    2.432554257    4.648229153   21.283269876   21.787965377
    2.439732888    4.659610767   21.397397230   21.917949924
    2.446911519    4.671116279   21.513443734   22.050445023
    2.454090150    4.682747711   21.631462048   22.185532859
    2.461268781    4.694507145   21.751507028   22.323299741
    2.468447412    4.706396724   21.873635838   22.463836386
    2.475626043    4.718418647   21.997908045   22.607237970
    2.482804674    4.730575166   22.124385752   22.753604622
    2.489983306    4.742868593   22.253133759   22.903042156
    2.497161937    4.755301294   22.384219718   23.055661850
    2.504340568    4.767875700   22.517714311   23.211580807
    2.511519199    4.780594298   22.653691363   23.370922659
    2.518697830    4.793459631   22.792227978   23.533817984
    2.525876461    4.806474290   22.933404998   23.700405045
    2.533055092    4.819640983   23.077307723   23.870830827
    2.540233723    4.832962554   23.224025365   24.045250901
