# energy grid [eV]     ieps_x  ieps_y  ieps_z
#
    0.200000000    6.705976558    5.907253985    2.728361585
    0.207178631    6.704894964    5.906130051    2.727997226
    0.214357262    6.703775678    5.904967092    2.727620193
    0.221535893    6.702618748    5.903765171    2.727230502
    0.228714524    6.701424219    5.902524352    2.726828173
    0.235893155    6.700192142    5.901244701    2.726413224
    0.243071786    6.698922567    5.899926286    2.725985674
    0.250250417    6.697615546    5.898569179    2.725545545
    0.257429048    6.696271133    5.897173452    2.725092856
    0.264607679    6.694889383    5.895739178    2.724627629
    0.271786311    6.693470352    5.894266435    2.724149885
    0.278964942    6.692014099    5.892755300    2.723659648
    0.286143573    6.690520682    5.891205854    2.723156940
    0.293322204    6.688990164    5.889618180    2.722641784
    0.300500835    6.687422606    5.887992360    2.722114205
    0.307679466    6.685818073    5.886328482    2.721574227
    0.314858097    6.684176629    5.884626632    2.721021876
    0.322036728    6.682498342    5.882886902    2.720457176
    0.329215359    6.680783280    5.881109382    2.719880155
    0.336393990    6.679031512    5.879294166    2.719290839
    0.343572621    6.677243110    5.877441350    2.718689256
    0.350751252    6.675418145    5.875551030    2.718075434
    0.357929883    6.673556693    5.873623307    2.717449400
    0.365108514    6.671658828    5.871658279    2.716811184
    0.372287145    6.669724627    5.869656051    2.716160815
    0.379465776    6.667754168    5.867616726    2.715498324
    0.386644407    6.665747531    5.865540411    2.714823741
    0.393823038    6.663704796    5.863427213    2.714137096
    0.401001669    6.661626045    5.861277243    2.713438422
    0.408180301    6.659511362    5.859090611    2.712727750
    0.415358932    6.657360833    5.856867430    2.712005113
    0.422537563    6.655174542    5.854607816    2.711270545
    0.429716194    6.652952577    5.852311884    2.710524077
    0.436894825    6.650695028    5.849979753    2.709765746
    0.444073456    6.648401985    5.847611543    2.708995584
    0.451252087    6.646073538    5.845207373    2.708213628
    0.458430718    6.643709781    5.842767369    2.707419912
    0.465609349    6.641310808    5.840291653    2.706614473
    0.472787980    6.638876713    5.837780352    2.705797347
    0.479966611    6.636407594    5.835233594    2.704968571
    0.487145242    6.633903548    5.832651508    2.704128182
    0.494323873    6.631364674    5.830034224    2.703276218
    0.501502504    6.628791073    5.827381874    2.702412718
    0.508681135    6.626182845    5.824694593    2.701537720
    0.515859766    6.623540093    5.821972515    2.700651263
    0.523038397    6.620862922    5.819215777    2.699753386
    0.530217028    6.618151437    5.816424516    2.698844131
    0.537395659    6.615405742    5.813598872    2.697923537
    0.544574290    6.612625947    5.810738986    2.696991645
    0.551752922    6.609812159    5.807845001    2.696048497
    0.558931553    6.606964489    5.804917058    2.695094134
    0.566110184    6.604083046    5.801955304    2.694128599
    0.573288815    6.601167943    5.798959885    2.693151933
    0.580467446    6.598219294    5.795930947    2.692164181
    0.587646077    6.595237211    5.792868640    2.691165385
    0.594824708    6.592221811    5.789773114    2.690155589
    0.602003339    6.589173210    5.786644519    2.689134837
    0.609181970    6.586091525    5.783483009    2.688103174
    0.616360601    6.582976874    5.780288736    2.687060645
    0.623539232    6.579829378    5.777061856    2.686007295
    0.630717863    6.576649156    5.773802525    2.684943169
    0.637896494    6.573436331    5.770510900    2.683868314
    0.645075125    6.570191025    5.767187140    2.682782776
    0.652253756    6.566913361    5.763831402    2.681686602
    0.659432387    6.563603464    5.760443849    2.680579839
    0.666611018    6.560261459    5.757024641    2.679462533
    0.673789649    6.556887474    5.753573942    2.678334734
    0.680968280    6.553481635    5.750091914    2.677196489
    0.688146912    6.550044072    5.746578722    2.676047846
    0.695325543    6.546574913    5.743034533    2.674888855
    0.702504174    6.543074288    5.739459512    2.673719564
    0.709682805    6.539542329    5.735853827    2.672540023
    0.716861436    6.535979168    5.732217647    2.671350281
    0.724040067    6.532384938    5.728551141    2.670150388
    0.731218698    6.528759773    5.724854479    2.668940396
    0.738397329    6.525103807    5.721127832    2.667720353
    0.745575960    6.521417176    5.717371373    2.666490312
    0.752754591    6.517700016    5.713585273    2.665250322
    0.759933222    6.513952465    5.709769708    2.664000437
    0.767111853    6.510174660    5.705924850    2.662740707
    0.774290484    6.506366740    5.702050876    2.661471185
    0.781469115    6.502528846    5.698147961    2.660191922
    0.788647746    6.498661116    5.694216283    2.658902971
    0.795826377    6.494763693    5.690256018    2.657604385
    0.803005008    6.490836718    5.686267344    2.656296217
    0.810183639    6.486880334    5.682250440    2.654978520
    0.817362270    6.482894683    5.678205486    2.653651348
    0.824540902    6.478879911    5.674132662    2.652314754
    0.831719533    6.474836162    5.670032149    2.650968792
    0.838898164    6.470763581    5.665904127    2.649613517
    0.846076795    6.466662315    5.661748778    2.648248982
    0.853255426    6.462532510    5.657566286    2.646875243
    0.860434057    6.458374313    5.653356832    2.645492353
    0.867612688    6.454187873    5.649120601    2.644100369
    0.874791319    6.449973338    5.644857776    2.642699345
    0.881969950    6.445730858    5.640568542    2.641289336
    0.889148581    6.441460582    5.636253084    2.639870399
    0.896327212    6.437162661    5.631911586    2.638442588
    0.903505843    6.432837246    5.627544236    2.637005960
    0.910684474    6.428484489    5.623151219    2.635560571
    0.917863105    6.424104541    5.618732722    2.634106477
    0.925041736    6.419697556    5.614288931    2.632643734
    0.932220367    6.415263686    5.609820035    2.631172399
    0.939398998    6.410803086    5.605326220    2.629692529
    0.946577629    6.406315909    5.600807674    2.628204180
    0.953756260    6.401802310    5.596264587    2.626707410
    0.960934891    6.397262445    5.591697146    2.625202275
    0.968113523    6.392696469    5.587105541    2.623688833
    0.975292154    6.388104538    5.582489960    2.622167142
    0.982470785    6.383486809    5.577850593    2.620637257
    0.989649416    6.378843439    5.573187629    2.619099238
    0.996828047    6.374174584    5.568501258    2.617553142
    1.004006678    6.369480404    5.563791670    2.615999027
    1.011185309    6.364761055    5.559059054    2.614436950
    1.018363940    6.360016697    5.554303602    2.612866970
    1.025542571    6.355247489    5.549525503    2.611289144
    1.032721202    6.350453590    5.544724948    2.609703532
    1.039899833    6.345635158    5.539902127    2.608110190
    1.047078464    6.340792356    5.535057231    2.606509178
    1.054257095    6.335925341    5.530190451    2.604900554
    1.061435726    6.331034276    5.525301977    2.603284376
    1.068614357    6.326119321    5.520392000    2.601660703
    1.075792988    6.321180637    5.515460711    2.600029593
    1.082971619    6.316218385    5.510508300    2.598391105
    1.090150250    6.311232728    5.505534959    2.596745298
    1.097328881    6.306223827    5.500540877    2.595092230
    1.104507513    6.301191844    5.495526246    2.593431961
    1.111686144    6.296136942    5.490491256    2.591764548
    1.118864775    6.291059283    5.485436098    2.590090051
    1.126043406    6.285959030    5.480360962    2.588408529
    1.133222037    6.280836346    5.475266037    2.586720040
    1.140400668    6.275691394    5.470151516    2.585024644
    1.147579299    6.270524338    5.465017587    2.583322399
    1.154757930    6.265335340    5.459864440    2.581613364
    1.161936561    6.260124565    5.454692265    2.579897598
    1.169115192    6.254892177    5.449501251    2.578175160
    1.176293823    6.249638338    5.444291589    2.576446109
    1.183472454    6.244363214    5.439063466    2.574710504
    1.190651085    6.239066968    5.433817073    2.572968403
    1.197829716    6.233749764    5.428552596    2.571219865
    1.205008347    6.228411767    5.423270226    2.569464950
    1.212186978    6.223053141    5.417970150    2.567703716
    1.219365609    6.217674051    5.412652556    2.565936222
    1.226544240    6.212274660    5.407317632    2.564162526
    1.233722871    6.206855133    5.401965564    2.562382688
    1.240901503    6.201415635    5.396596540    2.560596766
    1.248080134    6.195956330    5.391210747    2.558804818
    1.255258765    6.190477383    5.385808370    2.557006903
    1.262437396    6.184978959    5.380389596    2.555203080
    1.269616027    6.179461221    5.374954610    2.553393407
    1.276794658    6.173924334    5.369503598    2.551577942
    1.283973289    6.168368462    5.364036745    2.549756744
    1.291151920    6.162793771    5.358554234    2.547929871
    1.298330551    6.157200424    5.353056250    2.546097381
    1.305509182    6.151588585    5.347542977    2.544259333
    1.312687813    6.145958419    5.342014597    2.542415784
    1.319866444    6.140310090    5.336471294    2.540566792
    1.327045075    6.134643761    5.330913250    2.538712415
    1.334223706    6.128959597    5.325340646    2.536852711
    1.341402337    6.123257762    5.319753665    2.534987738
    1.348580968    6.117538418    5.314152486    2.533117553
    1.355759599    6.111801731    5.308537291    2.531242214
    1.362938230    6.106047862    5.302908259    2.529361777
    1.370116861    6.100276975    5.297265570    2.527476301
    1.377295492    6.094489234    5.291609402    2.525585842
    1.384474124    6.088684800    5.285939934    2.523690458
    1.391652755    6.082863838    5.280257344    2.521790205
    1.398831386    6.077026509    5.274561809    2.519885140
    1.406010017    6.071172976    5.268853506    2.517975320
    1.413188648    6.065303400    5.263132610    2.516060802
    1.420367279    6.059417945    5.257399299    2.514141642
    1.427545910    6.053516770    5.251653745    2.512217895
    1.434724541    6.047600039    5.245896125    2.510289620
    1.441903172    6.041667912    5.240126611    2.508356870
    1.449081803    6.035720550    5.234345377    2.506419703
    1.456260434    6.029758114    5.228552596    2.504478174
    1.463439065    6.023780765    5.222748439    2.502532339
    1.470617696    6.017788662    5.216933078    2.500582252
    1.477796327    6.011781965    5.211106684    2.498627971
    1.484974958    6.005760835    5.205269427    2.496669548
    1.492153589    5.999725430    5.199421475    2.494707041
    1.499332220    5.993675909    5.193562999    2.492740503
    1.506510851    5.987612432    5.187694166    2.490769989
    1.513689482    5.981535157    5.181815143    2.488795554
    1.520868114    5.975444241    5.175926098    2.486817251
    1.528046745    5.969339843    5.170027196    2.484835136
    1.535225376    5.963222120    5.164118603    2.482849262
    1.542404007    5.957091228    5.158200484    2.480859684
    1.549582638    5.950947326    5.152273002    2.478866454
    1.556761269    5.944790569    5.146336321    2.476869626
    1.563939900    5.938621113    5.140390604    2.474869254
    1.571118531    5.932439113    5.134436012    2.472865391
    1.578297162    5.926244726    5.128472707    2.470858089
    1.585475793    5.920038105    5.122500849    2.468847402
    1.592654424    5.913819406    5.116520597    2.466833382
    1.599833055    5.907588783    5.110532112    2.464816081
    1.607011686    5.901346388    5.104535551    2.462795552
    1.614190317    5.895092376    5.098531071    2.460771846
    1.621368948    5.888826900    5.092518830    2.458745016
    1.628547579    5.882550110    5.086498983    2.456715113
    1.635726210    5.876262161    5.080471685    2.454682189
    1.642904841    5.869963203    5.074437092    2.452646294
    1.650083472    5.863653387    5.068395357    2.450607480
    1.657262104    5.857332864    5.062346633    2.448565797
    1.664440735    5.851001785    5.056291071    2.446521297
    1.671619366    5.844660298    5.050228824    2.444474030
    1.678797997    5.838308554    5.044160042    2.442424045
    1.685976628    5.831946701    5.038084875    2.440371392
    1.693155259    5.825574888    5.032003473    2.438316123
    1.700333890    5.819193262    5.025915982    2.436258285
    1.707512521    5.812801970    5.019822551    2.434197929
    1.714691152    5.806401161    5.013723327    2.432135104
    1.721869783    5.799990979    5.007618455    2.430069858
    1.729048414    5.793571572    5.001508081    2.428002240
    1.736227045    5.787143084    4.995392349    2.425932299
    1.743405676    5.780705661    4.989271401    2.423860082
    1.750584307    5.774259446    4.983145382    2.421785639
    1.757762938    5.767804584    4.977014433    2.419709016
    1.764941569    5.761341218    4.970878695    2.417630262
    1.772120200    5.754869491    4.964738308    2.415549424
    1.779298831    5.748389546    4.958593412    2.413466548
    1.786477462    5.741901523    4.952444145    2.411381682
    1.793656093    5.735405564    4.946290646    2.409294873
    1.800834725    5.728901810    4.940133050    2.407206166
    1.808013356    5.722390401    4.933971495    2.405115609
    1.815191987    5.715871477    4.927806116    2.403023246
    1.822370618    5.709345176    4.921637047    2.400929125
    1.829549249    5.702811638    4.915464422    2.398833289
    1.836727880    5.696271000    4.909288373    2.396735786
    1.843906511    5.689723399    4.903109034    2.394636659
    1.851085142    5.683168972    4.896926535    2.392535954
    1.858263773    5.676607856    4.890741007    2.390433714
    1.865442404    5.670040186    4.884552578    2.388329985
    1.872621035    5.663466097    4.878361379    2.386224811
    1.879799666    5.656885723    4.872167537    2.384118235
    1.886978297    5.650299199    4.865971178    2.382010301
    1.894156928    5.643706659    4.859772430    2.379901052
    1.901335559    5.637108233    4.853571417    2.377790532
    1.908514190    5.630504056    4.847368265    2.375678783
    1.915692821    5.623894258    4.841163097    2.373565849
    1.922871452    5.617278970    4.834956036    2.371451771
    1.930050083    5.610658322    4.828747204    2.369336591
    1.937228715    5.604032445    4.822536723    2.367220353
    1.944407346    5.597401468    4.816324712    2.365103096
    1.951585977    5.590765518    4.810111292    2.362984864
    1.958764608    5.584124724    4.803896582    2.360865696
    1.965943239    5.577479214    4.797680699    2.358745634
    1.973121870    5.570829113    4.791463760    2.356624719
    1.980300501    5.564174549    4.785245883    2.354502991
    1.987479132    5.557515646    4.779027181    2.352380490
    1.994657763    5.550852529    4.772807771    2.350257257
    2.001836394    5.544185322    4.766587766    2.348133330
    2.009015025    5.537514150    4.760367279    2.346008750
    2.016193656    5.530839135    4.754146422    2.343883556
    2.023372287    5.524160399    4.747925306    2.341757787
    2.030550918    5.517478064    4.741704043    2.339631481
    2.037729549    5.510792251    4.735482741    2.337504677
    2.044908180    5.504103081    4.729261511    2.335377413
    2.052086811    5.497410674    4.723040459    2.333249728
    2.059265442    5.490715148    4.716819694    2.331121658
    2.066444073    5.484016622    4.710599322    2.328993242
    2.073622705    5.477315214    4.704379448    2.326864517
    2.080801336    5.470611041    4.698160177    2.324735520
    2.087979967    5.463904220    4.691941614    2.322606287
    2.095158598    5.457194867    4.685723862    2.320476856
    2.102337229    5.450483098    4.679507023    2.318347261
    2.109515860    5.443769026    4.673291198    2.316217541
    2.116694491    5.437052766    4.667076490    2.314087729
    2.123873122    5.430334431    4.660862997    2.311957862
    2.131051753    5.423614135    4.654650819    2.309827975
    2.138230384    5.416891989    4.648440054    2.307698104
    2.145409015    5.410168104    4.642230801    2.305568282
    2.152587646    5.403442592    4.636023156    2.303438545
    2.159766277    5.396715563    4.629817215    2.301308926
    2.166944908    5.389987125    4.623613073    2.299179461
    2.174123539    5.383257389    4.617410825    2.297050182
    2.181302170    5.376526462    4.611210565    2.294921123
    2.188480801    5.369794452    4.605012386    2.292792318
    2.195659432    5.363061466    4.598816379    2.290663800
    2.202838063    5.356327610    4.592622637    2.288535601
    2.210016694    5.349592989    4.586431249    2.286407755
    2.217195326    5.342857709    4.580242306    2.284280293
    2.224373957    5.336121874    4.574055897    2.282153248
    2.231552588    5.329385588    4.567872111    2.280026651
    2.238731219    5.322648953    4.561691033    2.277900535
    2.245909850    5.315912072    4.555512753    2.275774930
    2.253088481    5.309175047    4.549337355    2.273649868
    2.260267112    5.302437978    4.543164925    2.271525380
    2.267445743    5.295700967    4.536995547    2.269401496
    2.274624374    5.288964113    4.530829305    2.267278247
    2.281803005    5.282227515    4.524666283    2.265155663
    2.288981636    5.275491272    4.518506562    2.263033775
    2.296160267    5.268755480    4.512350224    2.260912611
    2.303338898    5.262020239    4.506197351    2.258792201
    2.310517529    5.255285643    4.500048021    2.256672575
    2.317696160    5.248551790    4.493902314    2.254553761
    2.324874791    5.241818773    4.487760310    2.252435789
    2.332053422    5.235086689    4.481622085    2.250318687
    2.339232053    5.228355630    4.475487718    2.248202483
    2.346410684    5.221625690    4.469357284    2.246087206
    2.353589316    5.214896962    4.463230859    2.243972883
    2.360767947    5.208169537    4.457108518    2.241859541
    2.367946578    5.201443508    4.450990336    2.239747210
    2.375125209    5.194718964    4.444876386    2.237635914
    2.382303840    5.187995996    4.438766741    2.235525682
    2.389482471    5.181274694    4.432661474    2.233416540
    2.396661102    5.174555145    4.426560655    2.231308515
    2.403839733    5.167837439    4.420464355    2.229201633
    2.411018364    5.161121662    4.414372646    2.227095919
    2.418196995    5.154407903    4.408285595    2.224991401
    2.425375626    5.147696246    4.402203272    2.222888102
    2.432554257    5.140986778    4.396125745    2.220786050
    2.439732888    5.134279584    4.390053081    2.218685268
    2.446911519    5.127574747    4.383985347    2.216585782
    2.454090150    5.120872353    4.377922608    2.214487616
    2.461268781    5.114172483    4.371864931    2.212390796
    2.468447412    5.107475220    4.365812380    2.210295344
    2.475626043    5.100780647    4.359765019    2.208201286
    2.482804674    5.094088844    4.353722911    2.206108645
    2.489983306    5.087399892    4.347686119    2.204017444
    2.497161937    5.080713871    4.341654705    2.201927708
    2.504340568    5.074030861    4.335628730    2.199839459
    2.511519199    5.067350940    4.329608256    2.197752720
    2.518697830    5.060674186    4.323593341    2.195667513
    2.525876461    5.054000677    4.317584047    2.193583863
    2.533055092    5.047330490    4.311580431    2.191501789
    2.540233723    5.040663701    4.305582551    2.189421316
