# energy grid [eV]     epsr_x  epsr_y  epsr_z
#
    0.200000000   16.986904371    5.231400253   17.703871355
    0.207178631   16.990990298    5.232037460   17.708049369
    0.214357262   16.995222678    5.232697348   17.712377066
    0.221535893   16.999601763    5.233379939   17.716854694
    0.228714524   17.004127811    5.234085257   17.721482510
    0.235893155   17.008801091    5.234813324   17.726260779
    0.243071786   17.013621878    5.235564167   17.731189777
    0.250250417   17.018590459    5.236337810   17.736269786
    0.257429048   17.023707130    5.237134280   17.741501100
    0.264607679   17.028972194    5.237953602   17.746884020
    0.271786311   17.034385965    5.238795806   17.752418857
    0.278964942   17.039948766    5.239660920   17.758105930
    0.286143573   17.045660929    5.240548973   17.763945570
    0.293322204   17.051522794    5.241459994   17.769938114
    0.300500835   17.057534713    5.242394016   17.776083909
    0.307679466   17.063697046    5.243351070   17.782383314
    0.314858097   17.070010162    5.244331189   17.788836694
    0.322036728   17.076474442    5.245334405   17.795444424
    0.329215359   17.083090273    5.246360753   17.802206892
    0.336393990   17.089858055    5.247410268   17.809124491
    0.343572621   17.096778196    5.248482986   17.816197625
    0.350751252   17.103851115    5.249578943   17.823426710
    0.357929883   17.111077238    5.250698178   17.830812170
    0.365108514   17.118457006    5.251840727   17.838354438
    0.372287145   17.125990866    5.253006631   17.846053958
    0.379465776   17.133679276    5.254195930   17.853911184
    0.386644407   17.141522705    5.255408663   17.861926579
    0.393823038   17.149521632    5.256644874   17.870100619
    0.401001669   17.157676546    5.257904603   17.878433786
    0.408180301   17.165987947    5.259187896   17.886926577
    0.415358932   17.174456344    5.260494795   17.895579494
    0.422537563   17.183082260    5.261825347   17.904393054
    0.429716194   17.191866226    5.263179596   17.913367783
    0.436894825   17.200808783    5.264557590   17.922504217
    0.444073456   17.209910485    5.265959376   17.931802903
    0.451252087   17.219171897    5.267385004   17.941264398
    0.458430718   17.228593593    5.268834522   17.950889273
    0.465609349   17.238176161    5.270307980   17.960678107
    0.472787980   17.247920198    5.271805431   17.970631490
    0.479966611   17.257826313    5.273326925   17.980750024
    0.487145242   17.267895127    5.274872517   17.991034324
    0.494323873   17.278127273    5.276442260   18.001485013
    0.501502504   17.288523394    5.278036209   18.012102729
    0.508681135   17.299084147    5.279654419   18.022888117
    0.515859766   17.309810198    5.281296948   18.033841839
    0.523038397   17.320702229    5.282963852   18.044964566
    0.530217028   17.331760931    5.284655191   18.056256980
    0.537395659   17.342987009    5.286371024   18.067719776
    0.544574290   17.354381179    5.288111411   18.079353663
    0.551752922   17.365944172    5.289876414   18.091159360
    0.558931553   17.377676728    5.291666095   18.103137599
    0.566110184   17.389579603    5.293480517   18.115289125
    0.573288815   17.401653566    5.295319744   18.127614694
    0.580467446   17.413899396    5.297183842   18.140115078
    0.587646077   17.426317889    5.299072878   18.152791059
    0.594824708   17.438909852    5.300986917   18.165643432
    0.602003339   17.451676106    5.302926028   18.178673008
    0.609181970   17.464617487    5.304890281   18.191880609
    0.616360601   17.477734843    5.306879746   18.205267071
    0.623539232   17.491029037    5.308894493   18.218833244
    0.630717863   17.504500946    5.310934596   18.232579991
    0.637896494   17.518151463    5.313000127   18.246508190
    0.645075125   17.531981492    5.315091160   18.260618733
    0.652253756   17.545991954    5.317207771   18.274912525
    0.659432387   17.560183786    5.319350037   18.289390487
    0.666611018   17.574557937    5.321518034   18.304053553
    0.673789649   17.589115373    5.323711841   18.318902674
    0.680968280   17.603857076    5.325931538   18.333938814
    0.688146912   17.618784043    5.328177205   18.349162952
    0.695325543   17.633897286    5.330448925   18.364576085
    0.702504174   17.649197834    5.332746779   18.380179221
    0.709682805   17.664686732    5.335070852   18.395973389
    0.716861436   17.680365041    5.337421229   18.411959630
    0.724040067   17.696233841    5.339797995   18.428139001
    0.731218698   17.712294224    5.342201239   18.444512579
    0.738397329   17.728547304    5.344631049   18.461081453
    0.745575960   17.744994210    5.347087514   18.477846731
    0.752754591   17.761636088    5.349570725   18.494809539
    0.759933222   17.778474103    5.352080774   18.511971017
    0.767111853   17.795509439    5.354617754   18.529332325
    0.774290484   17.812743295    5.357181759   18.546894640
    0.781469115   17.830176891    5.359772884   18.564659156
    0.788647746   17.847811466    5.362391227   18.582627086
    0.795826377   17.865648276    5.365036886   18.600799660
    0.803005008   17.883688599    5.367709958   18.619178128
    0.810183639   17.901933731    5.370410545   18.637763758
    0.817362270   17.920384986    5.373138749   18.656557837
    0.824540902   17.939043703    5.375894671   18.675561671
    0.831719533   17.957911236    5.378678417   18.694776588
    0.838898164   17.976988965    5.381490091   18.714203932
    0.846076795   17.996278286    5.384329800   18.733845070
    0.853255426   18.015780620    5.387197653   18.753701388
    0.860434057   18.035497408    5.390093758   18.773774294
    0.867612688   18.055430114    5.393018226   18.794065215
    0.874791319   18.075580224    5.395971169   18.814575601
    0.881969950   18.095949246    5.398952700   18.835306923
    0.889148581   18.116538711    5.401962934   18.856260674
    0.896327212   18.137350176    5.405001988   18.877438369
    0.903505843   18.158385217    5.408069977   18.898841546
    0.910684474   18.179645436    5.411167022   18.920471766
    0.917863105   18.201132447    5.414293243   18.942330612
    0.925041736   18.222847867    5.417448761   18.964419691
    0.932220367   18.244793361    5.420633698   18.986740634
    0.939398998   18.266970723    5.423848181   19.009295099
    0.946577629   18.289381710    5.427092334   19.032084767
    0.953756260   18.312028038    5.430366286   19.055111343
    0.960934891   18.334911470    5.433670165   19.078376557
    0.968113523   18.358033810    5.437004102   19.101882166
    0.975292154   18.381396895    5.440368228   19.125629953
    0.982470785   18.405002591    5.443762678   19.149621728
    0.989649416   18.428852792    5.447187587   19.173859328
    0.996828047   18.452949420    5.450643090   19.198344617
    1.004006678   18.477294430    5.454129327   19.223079487
    1.011185309   18.501889804    5.457646438   19.248065856
    1.018363940   18.526737556    5.461194563   19.273305664
    1.025542571   18.551839731    5.464773846   19.298800878
    1.032721202   18.577198405    5.468384431   19.324553529
    1.039899833   18.602815688    5.472026466   19.350565680
    1.047078464   18.628693720    5.475700099   19.376839390
    1.054257095   18.654834678    5.479405478   19.403376751
    1.061435726   18.681240769    5.483142756   19.430179891
    1.068614357   18.707914238    5.486912086   19.457250976
    1.075792988   18.734857363    5.490713624   19.484592204
    1.082971619   18.762072459    5.494547525   19.512205807
    1.090150250   18.789561877    5.498413948   19.540094050
    1.097328881   18.817328006    5.502313055   19.568259234
    1.104507513   18.845373271    5.506245007   19.596703693
    1.111686144   18.873700137    5.510209968   19.625429801
    1.118864775   18.902311107    5.514208105   19.654439963
    1.126043406   18.931208726    5.518239585   19.683736626
    1.133222037   18.960395577    5.522304579   19.713322272
    1.140400668   18.989874287    5.526403257   19.743199421
    1.147579299   19.019647524    5.530535794   19.773370633
    1.154757930   19.049717998    5.534702365   19.803838510
    1.161936561   19.080088464    5.538903148   19.834605690
    1.169115192   19.110761721    5.543138323   19.865674857
    1.176293823   19.141740616    5.547408071   19.897048732
    1.183472454   19.173028039    5.551712577   19.928730084
    1.190651085   19.204626928    5.556052026   19.960721721
    1.197829716   19.236540271    5.560426606   19.993026498
    1.205008347   19.268771104    5.564836508   20.025647315
    1.212186978   19.301322512    5.569281924   20.058587116
    1.219365609   19.334197634    5.573763048   20.091848896
    1.226544240   19.367399659    5.578280078   20.125435693
    1.233722871   19.400931829    5.582833212   20.159350597
    1.240901503   19.434797442    5.587422652   20.193596745
    1.248080134   19.468999849    5.592048601   20.228177328
    1.255258765   19.503542460    5.596711265   20.263095586
    1.262437396   19.538428742    5.601410853   20.298354812
    1.269616027   19.573662219    5.606147574   20.333958352
    1.276794658   19.609246477    5.610921643   20.369909609
    1.283973289   19.645185163    5.615733275   20.406212038
    1.291151920   19.681481987    5.620582688   20.442869155
    1.298330551   19.718140722    5.625470102   20.479884530
    1.305509182   19.755165208    5.630395740   20.517261794
    1.312687813   19.792559348    5.635359828   20.555004639
    1.319866444   19.830327119    5.640362594   20.593116816
    1.327045075   19.868472561    5.645404269   20.631602143
    1.334223706   19.906999792    5.650485086   20.670464497
    1.341402337   19.945912997    5.655605282   20.709707823
    1.348580968   19.985216437    5.660765096   20.749336134
    1.355759599   20.024914451    5.665964769   20.789353508
    1.362938230   20.065011449    5.671204545   20.829764094
    1.370116861   20.105511929    5.676484672   20.870572113
    1.377295492   20.146420473    5.681805401   20.911781857
    1.384474124   20.187741738    5.687166983   20.953397693
    1.391652755   20.229480466    5.692569676   20.995424062
    1.398831386   20.271641488    5.698013738   21.037865484
    1.406010017   20.314229724    5.703499431   21.080726558
    1.413188648   20.357250183    5.709027021   21.124011962
    1.420367279   20.400707971    5.714596775   21.167726457
    1.427545910   20.444608286    5.720208965   21.211874890
    1.434724541   20.488956427    5.725863866   21.256462192
    1.441903172   20.533757788    5.731561755   21.301493382
    1.449081803   20.579017871    5.737302913   21.346973571
    1.456260434   20.624742279    5.743087625   21.392907959
    1.463439065   20.670936724    5.748916179   21.439301844
    1.470617696   20.717607027    5.754788865   21.486160616
    1.477796327   20.764759123    5.760705978   21.533489760
    1.484974958   20.812399062    5.766667816   21.581294843
    1.492153589   20.860533012    5.772674680   21.629581517
    1.499332220   20.909167263    5.778726875   21.678355610
    1.506510851   20.958308231    5.784824712   21.727623138
    1.513689482   21.007962458    5.790968504   21.777390102
    1.520868114   21.058136614    5.797158566   21.827662593
    1.528046745   21.108837499    5.803395218   21.878446843
    1.535225376   21.160072031    5.809678784   21.929749215
    1.542404007   21.211847269    5.816009592   21.981576195
    1.549582638   21.264170513    5.822387975   22.033934393
    1.556761269   21.317049202    5.828814267   22.086830549
    1.563939900   21.370490837    5.835288809   22.140271532
    1.571118531   21.424503079    5.841811946   22.194264343
    1.578297162   21.479093750    5.848384025   22.248816122
    1.585475793   21.534270805    5.855005399   22.303934147
    1.592654424   21.590042414    5.861676426   22.359625842
    1.599833055   21.646417110    5.868397466   22.415898785
    1.607011686   21.703403482    5.875168886   22.472760698
    1.614190317   21.761010188    5.881991056   22.530219459
    1.621368948   21.819246113    5.888864351   22.588283102
    1.628547579   21.878120365    5.895789151   22.646959814
    1.635726210   21.937642258    5.902765839   22.706257934
    1.642904841   21.997821318    5.909794806   22.766186028
    1.650083472   22.058667282    5.916876445   22.826752888
    1.657262104   22.120190108    5.924011155   22.887967403
    1.664440735   22.182399978    5.931199341   22.949838635
    1.671619366   22.245307310    5.938441412   23.012375854
    1.678797997   22.308922758    5.945737781   23.075588535
    1.685976628   22.373257225    5.953088870   23.139486358
    1.693155259   22.438321870    5.960495102   23.204079210
    1.700333890   22.504128113    5.967956908   23.269377193
    1.707512521   22.570687644    5.975474725   23.335390627
    1.714691152   22.638012436    5.983048994   23.402130061
    1.721869783   22.706114747    5.990680162   23.469606274
    1.729048414   22.775007134    5.998368682   23.537830285
    1.736227045   22.844702459    6.006115014   23.606813361
    1.743405676   22.915213902    6.013919623   23.676567020
    1.750584307   22.986554968    6.021782979   23.747103042
    1.757762938   23.058739488    6.029705560   23.818433475
    1.764941569   23.131781644    6.037687849   23.890570641
    1.772120200   23.205696026    6.045730336   23.963527145
    1.779298831   23.280497589    6.053833516   24.037315888
    1.786477462   23.356201632    6.061997895   24.111950092
    1.793656093   23.432823855    6.070223981   24.187443280
    1.800834725   23.510380380    6.078512287   24.263809277
    1.808013356   23.588887772    6.086863341   24.341062255
    1.815191987   23.668363035    6.095277676   24.419216740
    1.822370618   23.748823622    6.103755829   24.498287598
    1.829549249   23.830287472    6.112298346   24.578290056
    1.836727880   23.912773014    6.120905780   24.659239719
    1.843906511   23.996299184    6.129578689   24.741152582
    1.851085142   24.080885448    6.138317640   24.824045040
    1.858263773   24.166551826    6.147123209   24.907933901
    1.865442404   24.253318908    6.155995979   24.992836406
    1.872621035   24.341207874    6.164936544   25.078770239
    1.879799666   24.430240516    6.173945503   25.165753528
    1.886978297   24.520439269    6.183023464   25.253804889
    1.894156928   24.611827241    6.192171049   25.342943435
    1.901335559   24.704428163    6.201388880   25.433188787
    1.908514190   24.798266300    6.210677581   25.524561080
    1.915692821   24.893366620    6.220037785   25.617080959
    1.922871452   24.989755676    6.229470169   25.710769668
    1.930050083   25.087460958    6.238975417   25.805649050
    1.937228715   25.186509937    6.248554192   25.901741561
    1.944407346   25.286930921    6.258207168   25.999070283
    1.951585977   25.388753320    6.267935032   26.097658894
    1.958764608   25.492007569    6.277738484   26.197531735
    1.965943239   25.596725111    6.287618225   26.298713781
    1.973121870   25.702938429    6.297574962   26.401230683
    1.980300501   25.810681155    6.307609451   26.505109229
    1.987479132   25.919988072    6.317722475   26.610377083
    1.994657763   26.030895062    6.327914774   26.717062201
    2.001836394   26.143439222    6.338187089   26.825193282
    2.009015025   26.257659103    6.348540208   26.934800337
    2.016193656   26.373594735    6.358974949   27.045914607
    2.023372287   26.491287397    6.369492113   27.158567787
    2.030550918   26.610779841    6.380092506   27.272792482
    2.037729549   26.732116428    6.390776944   27.388622420
    2.044908180   26.855343138    6.401546220   27.506092381
    2.052086811   26.980507574    6.412401058   27.625238119
    2.059265442   27.107659330    6.423342264   27.746096737
    2.066444073   27.236850466    6.434371019   27.868707253
    2.073622705   27.368134825    6.445488428   27.993109705
    2.080801336   27.501567964    6.456695270   28.119344893
    2.087979967   27.637207714    6.467992337   28.247455055
    2.095158598   27.775114270    6.479380437   28.377483980
    2.102337229   27.915350256    6.490860362   28.509476963
    2.109515860   28.057981423    6.502433257   28.643481028
    2.116694491   28.203076487    6.514100418   28.779544811
    2.123873122   28.350706777    6.525862784   28.917718805
    2.131051753   28.500947093    6.537721310   29.058055913
    2.138230384   28.653874893    6.549676932   29.200610032
    2.145409015   28.809571122    6.561730633   29.345436735
    2.152587646   28.968121246    6.573883531   29.492594563
    2.159766277   29.129614867    6.586136797   29.642145266
    2.166944908   29.294145653    6.598491618   29.794152888
    2.174123539   29.461811380    6.610949088   29.948682540
    2.181302170   29.632714502    6.623510297   30.105801777
    2.188480801   29.806962793    6.636176388   30.265581246
    2.195659432   29.984669604    6.648948525   30.428094466
    2.202838063   30.165954189    6.661827907   30.593418175
    2.210016694   30.350942146    6.674815821   30.761633450
    2.217195326   30.539765780    6.687913553   30.932824382
    2.224373957   30.732564572    6.701122356   31.107077881
    2.231552588   30.929485763    6.714443519   31.284484865
    2.238731219   31.130684964    6.727878365   31.465140530
    2.245909850   31.336326781    6.741428248   31.649144476
    2.253088481   31.546585467    6.755094544   31.836600867
    2.260267112   31.761645715    6.768878655   32.027618751
    2.267445743   31.981703505    6.782782011   32.222312386
    2.274624374   32.206966981    6.796806052   32.420801563
    2.281803005   32.437657363    6.810952207   32.623211971
    2.288981636   32.674010162    6.825221929   32.829675588
    2.296160267   32.916277087    6.839616843   33.040331105
    2.303338898   33.164727355    6.854138655   33.255324399
    2.310517529   33.419648565    6.868789015   33.474809072
    2.317696160   33.681347851    6.883569502   33.698946944
    2.324874791   33.950154634    6.898481744   33.927908632
    2.332053422   34.226422937    6.913527439   34.161874229
    2.339232053   34.510533661    6.928708329   34.401034010
    2.346410684   34.802897449    6.944026202   34.645589319
    2.353589316   35.103957780    6.959482886   34.895753448
    2.360767947   35.414194015    6.975080246   35.151752340
    2.367946578   35.734125519    6.990820186   35.413825728
    2.375125209   36.064316248    7.006704655   35.682228354
    2.382303840   36.405379832    7.022735647   35.957231210
    2.389482471   36.757985373    7.038915202   36.239122906
    2.396661102   37.122864112    7.055245407   36.528211159
    2.403839733   37.500817109    7.071728401   36.824824567
    2.411018364   37.892724109    7.088366373   37.129315049
    2.418196995   38.299553834    7.105161565   37.442059591
    2.425375626   38.722375931    7.122116280   37.763462167
    2.432554257   39.162374728    7.139232872   38.093956808
    2.439732888   39.620865636    7.156513757   38.434010803
    2.446911519   40.099315065    7.173961420   38.784128037
    2.454090150   40.599362845    7.191578429   39.144852798
    2.461268781   41.122848286    7.209367410   39.516774176
    2.468447412   41.671843343    7.227331055   39.900531207
    2.475626043   42.248691324    7.245472137   40.296818361
    2.482804674   42.856053354    7.263793513   40.706391996
    2.489983306   43.496965046    7.282298128   41.130078046
    2.497161937   44.174904618    7.300989007   41.568780285
    2.504340568   44.893876476    7.319869256   42.023490025
    2.511519199   45.658527438    7.338942120   42.495298755
    2.518697830   46.474288889    7.358211043   42.985412990
    2.525876461   47.347511853    7.377679508   43.495166944
    2.533055092   48.285681929    7.397351078   44.026041241
    2.540233723   49.297702451    7.417229465   44.579686461
