# energy grid [eV]     ieps_x  ieps_y  ieps_z
#
    0.200000000    2.353399868    6.537952865    6.934880107
    0.207178631    2.353115788    6.536662378    6.933715270
    0.214357262    2.352821825    6.535327097    6.932509857
    0.221535893    2.352517992    6.533947094    6.931263922
    0.228714524    2.352204303    6.532522444    6.929977516
    0.235893155    2.351880774    6.531053226    6.928650696
    0.243071786    2.351547419    6.529539520    6.927283516
    0.250250417    2.351204254    6.527981408    6.925876036
    0.257429048    2.350851294    6.526378974    6.924428315
    0.264607679    2.350488557    6.524732306    6.922940415
    0.271786311    2.350116059    6.523041492    6.921412398
    0.278964942    2.349733818    6.521306625    6.919844330
    0.286143573    2.349341850    6.519527799    6.918236277
    0.293322204    2.348940175    6.517705109    6.916588307
    0.300500835    2.348528811    6.515838654    6.914900490
    0.307679466    2.348107777    6.513928535    6.913172897
    0.314858097    2.347677092    6.511974853    6.911405601
    0.322036728    2.347236776    6.509977715    6.909598676
    0.329215359    2.346786851    6.507937227    6.907752199
    0.336393990    2.346327335    6.505853500    6.905866248
    0.343572621    2.345858251    6.503726643    6.903940901
    0.350751252    2.345379620    6.501556771    6.901976239
    0.357929883    2.344891465    6.499344000    6.899972345
    0.365108514    2.344393806    6.497088448    6.897929303
    0.372287145    2.343886668    6.494790233    6.895847198
    0.379465776    2.343370074    6.492449480    6.893726118
    0.386644407    2.342844046    6.490066310    6.891566150
    0.393823038    2.342308609    6.487640852    6.889367385
    0.401001669    2.341763788    6.485173232    6.887129915
    0.408180301    2.341209607    6.482663581    6.884853833
    0.415358932    2.340646091    6.480112030    6.882539233
    0.422537563    2.340073267    6.477518715    6.880186211
    0.429716194    2.339491159    6.474883770    6.877794865
    0.436894825    2.338899794    6.472207334    6.875365293
    0.444073456    2.338299199    6.469489547    6.872897597
    0.451252087    2.337689401    6.466730550    6.870391878
    0.458430718    2.337070428    6.463930486    6.867848239
    0.465609349    2.336442306    6.461089502    6.865266785
    0.472787980    2.335805066    6.458207743    6.862647621
    0.479966611    2.335158734    6.455285360    6.859990857
    0.487145242    2.334503340    6.452322503    6.857296600
    0.494323873    2.333838913    6.449319325    6.854564960
    0.501502504    2.333165483    6.446275979    6.851796050
    0.508681135    2.332483079    6.443192622    6.848989981
    0.515859766    2.331791732    6.440069412    6.846146869
    0.523038397    2.331091473    6.436906508    6.843266830
    0.530217028    2.330382333    6.433704070    6.840349979
    0.537395659    2.329664343    6.430462262    6.837396435
    0.544574290    2.328937534    6.427181248    6.834406317
    0.551752922    2.328201939    6.423861193    6.831379747
    0.558931553    2.327457589    6.420502266    6.828316847
    0.566110184    2.326704519    6.417104634    6.825217739
    0.573288815    2.325942759    6.413668469    6.822082548
    0.580467446    2.325172344    6.410193942    6.818911400
    0.587646077    2.324393308    6.406681228    6.815704422
    0.594824708    2.323605684    6.403130500    6.812461742
    0.602003339    2.322809506    6.399541935    6.809183490
    0.609181970    2.322004808    6.395915712    6.805869795
    0.616360601    2.321191627    6.392252008    6.802520790
    0.623539232    2.320369996    6.388551005    6.799136608
    0.630717863    2.319539951    6.384812885    6.795717382
    0.637896494    2.318701527    6.381037830    6.792263247
    0.645075125    2.317854761    6.377226025    6.788774341
    0.652253756    2.316999689    6.373377656    6.785250799
    0.659432387    2.316136347    6.369492910    6.781692761
    0.666611018    2.315264771    6.365571975    6.778100365
    0.673789649    2.314385000    6.361615040    6.774473753
    0.680968280    2.313497070    6.357622297    6.770813066
    0.688146912    2.312601018    6.353593936    6.767118447
    0.695325543    2.311696883    6.349530152    6.763390038
    0.702504174    2.310784702    6.345431136    6.759627986
    0.709682805    2.309864514    6.341297086    6.755832434
    0.716861436    2.308936357    6.337128197    6.752003531
    0.724040067    2.308000270    6.332924665    6.748141423
    0.731218698    2.307056292    6.328686691    6.744246259
    0.738397329    2.306104462    6.324414471    6.740318189
    0.745575960    2.305144820    6.320108208    6.736357362
    0.752754591    2.304177404    6.315768101    6.732363930
    0.759933222    2.303202256    6.311394353    6.728338045
    0.767111853    2.302219415    6.306987168    6.724279860
    0.774290484    2.301228921    6.302546747    6.720189529
    0.781469115    2.300230815    6.298073298    6.716067207
    0.788647746    2.299225138    6.293567024    6.711913049
    0.795826377    2.298211930    6.289028132    6.707727212
    0.803005008    2.297191233    6.284456830    6.703509852
    0.810183639    2.296163087    6.279853325    6.699261128
    0.817362270    2.295127535    6.275217825    6.694981199
    0.824540902    2.294084618    6.270550541    6.690670224
    0.831719533    2.293034378    6.265851682    6.686328363
    0.838898164    2.291976856    6.261121459    6.681955778
    0.846076795    2.290912095    6.256360083    6.677552630
    0.853255426    2.289840138    6.251567766    6.673119081
    0.860434057    2.288761026    6.246744721    6.668655295
    0.867612688    2.287674802    6.241891161    6.664161435
    0.874791319    2.286581510    6.237007300    6.659637667
    0.881969950    2.285481192    6.232093351    6.655084154
    0.889148581    2.284373891    6.227149530    6.650501064
    0.896327212    2.283259650    6.222176052    6.645888562
    0.903505843    2.282138514    6.217173132    6.641246815
    0.910684474    2.281010524    6.212140987    6.636575991
    0.917863105    2.279875726    6.207079834    6.631876258
    0.925041736    2.278734162    6.201989889    6.627147785
    0.932220367    2.277585877    6.196871370    6.622390742
    0.939398998    2.276430915    6.191724495    6.617605297
    0.946577629    2.275269319    6.186549482    6.612791622
    0.953756260    2.274101134    6.181346548    6.607949887
    0.960934891    2.272926405    6.176115914    6.603080264
    0.968113523    2.271745175    6.170857797    6.598182924
    0.975292154    2.270557490    6.165572418    6.593258040
    0.982470785    2.269363393    6.160259995    6.588305785
    0.989649416    2.268162930    6.154920748    6.583326332
    0.996828047    2.266956146    6.149554899    6.578319854
    1.004006678    2.265743085    6.144162665    6.573286526
    1.011185309    2.264523792    6.138744268    6.568226522
    1.018363940    2.263298313    6.133299929    6.563140017
    1.025542571    2.262066692    6.127829867    6.558027186
    1.032721202    2.260828975    6.122334303    6.552888205
    1.039899833    2.259585206    6.116813459    6.547723249
    1.047078464    2.258335432    6.111267554    6.542532496
    1.054257095    2.257079698    6.105696810    6.537316121
    1.061435726    2.255818048    6.100101447    6.532074302
    1.068614357    2.254550529    6.094481686    6.526807215
    1.075792988    2.253277186    6.088837749    6.521515038
    1.082971619    2.251998065    6.083169855    6.516197949
    1.090150250    2.250713211    6.077478226    6.510856126
    1.097328881    2.249422670    6.071763082    6.505489747
    1.104507513    2.248126487    6.066024644    6.500098991
    1.111686144    2.246824709    6.060263133    6.494684036
    1.118864775    2.245517380    6.054478768    6.489245061
    1.126043406    2.244204547    6.048671770    6.483782245
    1.133222037    2.242886256    6.042842359    6.478295767
    1.140400668    2.241562552    6.036990755    6.472785807
    1.147579299    2.240233481    6.031117178    6.467252544
    1.154757930    2.238899089    6.025221846    6.461696158
    1.161936561    2.237559422    6.019304981    6.456116828
    1.169115192    2.236214525    6.013366799    6.450514736
    1.176293823    2.234864444    6.007407521    6.444890060
    1.183472454    2.233509226    6.001427364    6.439242980
    1.190651085    2.232148916    5.995426548    6.433573678
    1.197829716    2.230783559    5.989405289    6.427882333
    1.205008347    2.229413202    5.983363806    6.422169125
    1.212186978    2.228037890    5.977302315    6.416434235
    1.219365609    2.226657669    5.971221035    6.410677842
    1.226544240    2.225272584    5.965120181    6.404900129
    1.233722871    2.223882683    5.958999969    6.399101274
    1.240901503    2.222488009    5.952860615    6.393281458
    1.248080134    2.221088609    5.946702335    6.387440862
    1.255258765    2.219684528    5.940525344    6.381579666
    1.262437396    2.218275812    5.934329857    6.375698050
    1.269616027    2.216862506    5.928116086    6.369796194
    1.276794658    2.215444656    5.921884247    6.363874278
    1.283973289    2.214022307    5.915634552    6.357932483
    1.291151920    2.212595504    5.909367214    6.351970989
    1.298330551    2.211164294    5.903082444    6.345989974
    1.305509182    2.209728721    5.896780456    6.339989620
    1.312687813    2.208288830    5.890461460    6.333970106
    1.319866444    2.206844666    5.884125666    6.327931611
    1.327045075    2.205396275    5.877773285    6.321874315
    1.334223706    2.203943702    5.871404527    6.315798397
    1.341402337    2.202486991    5.865019599    6.309704036
    1.348580968    2.201026187    5.858618711    6.303591410
    1.355759599    2.199561335    5.852202070    6.297460699
    1.362938230    2.198092480    5.845769884    6.291312082
    1.370116861    2.196619667    5.839322359    6.285145735
    1.377295492    2.195142940    5.832859701    6.278961838
    1.384474124    2.193662343    5.826382116    6.272760569
    1.391652755    2.192177921    5.819889807    6.266542104
    1.398831386    2.190689718    5.813382980    6.260306622
    1.406010017    2.189197778    5.806861836    6.254054300
    1.413188648    2.187702146    5.800326580    6.247785314
    1.420367279    2.186202866    5.793777413    6.241499841
    1.427545910    2.184699980    5.787214536    6.235198057
    1.434724541    2.183193534    5.780638150    6.228880139
    1.441903172    2.181683571    5.774048454    6.222546262
    1.449081803    2.180170134    5.767445648    6.216196601
    1.456260434    2.178653267    5.760829931    6.209831332
    1.463439065    2.177133013    5.754201500    6.203450630
    1.470617696    2.175609416    5.747560551    6.197054669
    1.477796327    2.174082518    5.740907281    6.190643622
    1.484974958    2.172552363    5.734241886    6.184217665
    1.492153589    2.171018994    5.727564560    6.177776970
    1.499332220    2.169482454    5.720875497    6.171321710
    1.506510851    2.167942784    5.714174889    6.164852058
    1.513689482    2.166400028    5.707462930    6.158368186
    1.520868114    2.164854229    5.700739811    6.151870267
    1.528046745    2.163305427    5.694005722    6.145358471
    1.535225376    2.161753667    5.687260853    6.138832970
    1.542404007    2.160198989    5.680505394    6.132293934
    1.549582638    2.158641435    5.673739532    6.125741534
    1.556761269    2.157081048    5.666963455    6.119175939
    1.563939900    2.155517868    5.660177349    6.112597319
    1.571118531    2.153951938    5.653381400    6.106005842
    1.578297162    2.152383299    5.646575793    6.099401678
    1.585475793    2.150811991    5.639760712    6.092784994
    1.592654424    2.149238057    5.632936340    6.086155958
    1.599833055    2.147661536    5.626102859    6.079514737
    1.607011686    2.146082471    5.619260451    6.072861497
    1.614190317    2.144500900    5.612409296    6.066196405
    1.621368948    2.142916866    5.605549573    6.059519626
    1.628547579    2.141330407    5.598681462    6.052831325
    1.635726210    2.139741565    5.591805140    6.046131667
    1.642904841    2.138150379    5.584920784    6.039420816
    1.650083472    2.136556890    5.578028570    6.032698936
    1.657262104    2.134961136    5.571128674    6.025966190
    1.664440735    2.133363158    5.564221270    6.019222739
    1.671619366    2.131762994    5.557306530    6.012468747
    1.678797997    2.130160685    5.550384627    6.005704375
    1.685976628    2.128556269    5.543455733    5.998929783
    1.693155259    2.126949785    5.536520019    5.992145133
    1.700333890    2.125341271    5.529577653    5.985350583
    1.707512521    2.123730768    5.522628805    5.978546293
    1.714691152    2.122118311    5.515673642    5.971732421
    1.721869783    2.120503941    5.508712332    5.964909127
    1.729048414    2.118887695    5.501745039    5.958076566
    1.736227045    2.117269612    5.494771930    5.951234897
    1.743405676    2.115649727    5.487793167    5.944384276
    1.750584307    2.114028081    5.480808915    5.937524857
    1.757762938    2.112404708    5.473819335    5.930656798
    1.764941569    2.110779648    5.466824588    5.923780251
    1.772120200    2.109152937    5.459824835    5.916895371
    1.779298831    2.107524612    5.452820235    5.910002312
    1.786477462    2.105894709    5.445810946    5.903101225
    1.793656093    2.104263266    5.438797125    5.896192264
    1.800834725    2.102630317    5.431778930    5.889275579
    1.808013356    2.100995901    5.424756514    5.882351321
    1.815191987    2.099360052    5.417730034    5.875419641
    1.822370618    2.097722806    5.410699642    5.868480689
    1.829549249    2.096084199    5.403665491    5.861534612
    1.836727880    2.094444267    5.396627732    5.854581560
    1.843906511    2.092803044    5.389586516    5.847621680
    1.851085142    2.091160566    5.382541993    5.840655119
    1.858263773    2.089516868    5.375494312    5.833682023
    1.865442404    2.087871984    5.368443619    5.826702539
    1.872621035    2.086225950    5.361390063    5.819716810
    1.879799666    2.084578798    5.354333788    5.812724982
    1.886978297    2.082930564    5.347274940    5.805727198
    1.894156928    2.081281281    5.340213663    5.798723601
    1.901335559    2.079630983    5.333150098    5.791714334
    1.908514190    2.077979704    5.326084389    5.784699538
    1.915692821    2.076327478    5.319016676    5.777679354
    1.922871452    2.074674336    5.311947100    5.770653923
    1.930050083    2.073020313    5.304875799    5.763623383
    1.937228715    2.071365442    5.297802911    5.756587875
    1.944407346    2.069709754    5.290728573    5.749547536
    1.951585977    2.068053283    5.283652922    5.742502504
    1.958764608    2.066396060    5.276576093    5.735452916
    1.965943239    2.064738118    5.269498219    5.728398907
    1.973121870    2.063079489    5.262419435    5.721340614
    1.980300501    2.061420204    5.255339873    5.714278172
    1.987479132    2.059760296    5.248259663    5.707211713
    1.994657763    2.058099794    5.241178936    5.700141373
    2.001836394    2.056438731    5.234097822    5.693067282
    2.009015025    2.054777137    5.227016449    5.685989574
    2.016193656    2.053115043    5.219934945    5.678908379
    2.023372287    2.051452480    5.212853436    5.671823829
    2.030550918    2.049789477    5.205772048    5.664736053
    2.037729549    2.048126066    5.198690905    5.657645179
    2.044908180    2.046462277    5.191610132    5.650551337
    2.052086811    2.044798138    5.184529850    5.643454655
    2.059265442    2.043133679    5.177450182    5.636355258
    2.066444073    2.041468931    5.170371249    5.629253274
    2.073622705    2.039803922    5.163293170    5.622148828
    2.080801336    2.038138681    5.156216065    5.615042045
    2.087979967    2.036473238    5.149140051    5.607933049
    2.095158598    2.034807620    5.142065246    5.600821963
    2.102337229    2.033141856    5.134991766    5.593708910
    2.109515860    2.031475975    5.127919727    5.586594013
    2.116694491    2.029810004    5.120849242    5.579477391
    2.123873122    2.028143972    5.113780425    5.572359166
    2.131051753    2.026477906    5.106713388    5.565239457
    2.138230384    2.024811833    5.099648244    5.558118384
    2.145409015    2.023145782    5.092585102    5.550996065
    2.152587646    2.021479778    5.085524072    5.543872617
    2.159766277    2.019813850    5.078465264    5.536748158
    2.166944908    2.018148023    5.071408786    5.529622803
    2.174123539    2.016482324    5.064354743    5.522496668
    2.181302170    2.014816780    5.057303243    5.515369867
    2.188480801    2.013151417    5.050254390    5.508242515
    2.195659432    2.011486261    5.043208289    5.501114725
    2.202838063    2.009821337    5.036165044    5.493986609
    2.210016694    2.008156671    5.029124756    5.486858279
    2.217195326    2.006492289    5.022087527    5.479729847
    2.224373957    2.004828216    5.015053459    5.472601422
    2.231552588    2.003164477    5.008022651    5.465473114
    2.238731219    2.001501096    5.000995202    5.458345032
    2.245909850    1.999838099    4.993971210    5.451217284
    2.253088481    1.998175509    4.986950773    5.444089978
    2.260267112    1.996513352    4.979933986    5.436963221
    2.267445743    1.994851650    4.972920945    5.429837117
    2.274624374    1.993190429    4.965911746    5.422711774
    2.281803005    1.991529712    4.958906481    5.415587294
    2.288981636    1.989869522    4.951905243    5.408463783
    2.296160267    1.988209883    4.944908125    5.401341343
    2.303338898    1.986550818    4.937915218    5.394220076
    2.310517529    1.984892350    4.930926612    5.387100085
    2.317696160    1.983234501    4.923942397    5.379981470
    2.324874791    1.981577295    4.916962661    5.372864331
    2.332053422    1.979920754    4.909987493    5.365748768
    2.339232053    1.978264900    4.903016978    5.358634880
    2.346410684    1.976609755    4.896051204    5.351522765
    2.353589316    1.974955341    4.889090256    5.344412520
    2.360767947    1.973301680    4.882134218    5.337304242
    2.367946578    1.971648793    4.875183174    5.330198028
    2.375125209    1.969996701    4.868237207    5.323093971
    2.382303840    1.968345427    4.861296399    5.315992167
    2.389482471    1.966694990    4.854360831    5.308892710
    2.396661102    1.965045412    4.847430584    5.301795692
    2.403839733    1.963396714    4.840505737    5.294701206
    2.411018364    1.961748915    4.833586370    5.287609345
    2.418196995    1.960102036    4.826672560    5.280520198
    2.425375626    1.958456097    4.819764385    5.273433857
    2.432554257    1.956811119    4.812861920    5.266350411
    2.439732888    1.955167120    4.805965243    5.259269948
    2.446911519    1.953524121    4.799074428    5.252192558
    2.454090150    1.951882141    4.792189549    5.245118327
    2.461268781    1.950241199    4.785310679    5.238047343
    2.468447412    1.948601315    4.778437891    5.230979692
    2.475626043    1.946962506    4.771571258    5.223915458
    2.482804674    1.945324792    4.764710849    5.216854728
    2.489983306    1.943688192    4.757856736    5.209797585
    2.497161937    1.942052724    4.751008988    5.202744113
    2.504340568    1.940418405    4.744167675    5.195694394
    2.511519199    1.938785255    4.737332863    5.188648510
    2.518697830    1.937153291    4.730504621    5.181606544
    2.525876461    1.935522531    4.723683015    5.174568575
    2.533055092    1.933892991    4.716868111    5.167534683
    2.540233723    1.932264691    4.710059975    5.160504949
