# energy grid [eV]     epsr_x  epsr_y  epsr_z
#
    0.200000000    6.859522425    9.401928762   11.652453326
    0.207178631    6.860634710    9.403683595   11.654640994
    0.214357262    6.861786699    9.405501147   11.656906804
    0.221535893    6.862978443    9.407381505   11.659250859
    0.228714524    6.864209993    9.409324761   11.661673268
    0.235893155    6.865481405    9.411331010   11.664174144
    0.243071786    6.866792734    9.413400349   11.666753603
    0.250250417    6.868144039    9.415532880   11.669411765
    0.257429048    6.869535378    9.417728705   11.672148753
    0.264607679    6.870966814    9.419987933   11.674964696
    0.271786311    6.872438410    9.422310674   11.677859723
    0.278964942    6.873950231    9.424697041   11.680833971
    0.286143573    6.875502344    9.427147151   11.683887578
    0.293322204    6.877094818    9.429661124   11.687020687
    0.300500835    6.878727724    9.432239084   11.690233444
    0.307679466    6.880401134    9.434881157   11.693526001
    0.314858097    6.882115123    9.437587473   11.696898510
    0.322036728    6.883869767    9.440358166   11.700351131
    0.329215359    6.885665145    9.443193371   11.703884026
    0.336393990    6.887501336    9.446093230   11.707497361
    0.343572621    6.889378423    9.449057884   11.711191306
    0.350751252    6.891296490    9.452087482   11.714966035
    0.357929883    6.893255623    9.455182172   11.718821727
    0.365108514    6.895255910    9.458342109   11.722758563
    0.372287145    6.897297440    9.461567449   11.726776731
    0.379465776    6.899380306    9.464858353   11.730876419
    0.386644407    6.901504601    9.468214985   11.735057824
    0.393823038    6.903670421    9.471637512   11.739321144
    0.401001669    6.905877864    9.475126105   11.743666580
    0.408180301    6.908127029    9.478680939   11.748094341
    0.415358932    6.910418019    9.482302192   11.752604638
    0.422537563    6.912750938    9.485990046   11.757197686
    0.429716194    6.915125891    9.489744685   11.761873705
    0.436894825    6.917542986    9.493566300   11.766632918
    0.444073456    6.920002334    9.497455082   11.771475555
    0.451252087    6.922504046    9.501411228   11.776401848
    0.458430718    6.925048238    9.505434939   11.781412034
    0.465609349    6.927635025    9.509526418   11.786506355
    0.472787980    6.930264526    9.513685873   11.791685057
    0.479966611    6.932936862    9.517913516   11.796948389
    0.487145242    6.935652155    9.522209562   11.802296608
    0.494323873    6.938410531    9.526574230   11.807729973
    0.501502504    6.941212117    9.531007743   11.813248748
    0.508681135    6.944057042    9.535510330   11.818853202
    0.515859766    6.946945438    9.540082220   11.824543608
    0.523038397    6.949877440    9.544723650   11.830320244
    0.530217028    6.952853182    9.549434857   11.836183393
    0.537395659    6.955872805    9.554216087   11.842133343
    0.544574290    6.958936448    9.559067585   11.848170386
    0.551752922    6.962044255    9.563989605   11.854294820
    0.558931553    6.965196371    9.568982400   11.860506946
    0.566110184    6.968392944    9.574046232   11.866807073
    0.573288815    6.971634125    9.579181365   11.873195510
    0.580467446    6.974920065    9.584388067   11.879672577
    0.587646077    6.978250921    9.589666612   11.886238595
    0.594824708    6.981626848    9.595017276   11.892893891
    0.602003339    6.985048008    9.600440341   11.899638798
    0.609181970    6.988514563    9.605936093   11.906473652
    0.616360601    6.992026677    9.611504824   11.913398798
    0.623539232    6.995584519    9.617146828   11.920414582
    0.630717863    6.999188257    9.622862406   11.927521359
    0.637896494    7.002838066    9.628651861   11.934719487
    0.645075125    7.006534118    9.634515503   11.942009331
    0.652253756    7.010276594    9.640453646   11.949391259
    0.659432387    7.014065672    9.646466609   11.956865648
    0.666611018    7.017901537    9.652554715   11.964432878
    0.673789649    7.021784373    9.658718293   11.972093335
    0.680968280    7.025714369    9.664957675   11.979847412
    0.688146912    7.029691717    9.671273201   11.987695507
    0.695325543    7.033716610    9.677665214   11.995638023
    0.702504174    7.037789246    9.684134061   12.003675370
    0.709682805    7.041909824    9.690680098   12.011807963
    0.716861436    7.046078545    9.697303682   12.020036224
    0.724040067    7.050295617    9.704005178   12.028360580
    0.731218698    7.054561247    9.710784955   12.036781466
    0.738397329    7.058875646    9.717643388   12.045299320
    0.745575960    7.063239028    9.724580857   12.053914589
    0.752754591    7.067651611    9.731597747   12.062627725
    0.759933222    7.072113614    9.738694451   12.071439188
    0.767111853    7.076625262    9.745871365   12.080349441
    0.774290484    7.081186780    9.753128891   12.089358958
    0.781469115    7.085798398    9.760467438   12.098468215
    0.788647746    7.090460349    9.767887419   12.107677698
    0.795826377    7.095172868    9.775389256   12.116987899
    0.803005008    7.099936195    9.782973373   12.126399317
    0.810183639    7.104750571    9.790640204   12.135912455
    0.817362270    7.109616244    9.798390185   12.145527827
    0.824540902    7.114533461    9.806223761   12.155245952
    0.831719533    7.119502475    9.814141384   12.165067356
    0.838898164    7.124523541    9.822143508   12.174992573
    0.846076795    7.129596920    9.830230599   12.185022144
    0.853255426    7.134722874    9.838403125   12.195156617
    0.860434057    7.139901668    9.846661562   12.205396548
    0.867612688    7.145133574    9.855006395   12.215742499
    0.874791319    7.150418864    9.863438112   12.226195042
    0.881969950    7.155757816    9.871957209   12.236754756
    0.889148581    7.161150710    9.880564190   12.247422226
    0.896327212    7.166597831    9.889259566   12.258198047
    0.903505843    7.172099468    9.898043854   12.269082822
    0.910684474    7.177655913    9.906917578   12.280077159
    0.917863105    7.183267461    9.915881271   12.291181679
    0.925041736    7.188934412    9.924935470   12.302397008
    0.932220367    7.194657072    9.934080724   12.313723781
    0.939398998    7.200435747    9.943317587   12.325162642
    0.946577629    7.206270751    9.952646619   12.336714244
    0.953756260    7.212162398    9.962068391   12.348379247
    0.960934891    7.218111011    9.971583481   12.360158321
    0.968113523    7.224116912    9.981192473   12.372052145
    0.975292154    7.230180432    9.990895962   12.384061408
    0.982470785    7.236301903   10.000694548   12.396186806
    0.989649416    7.242481663   10.010588843   12.408429045
    0.996828047    7.248720054   10.020579465   12.420788842
    1.004006678    7.255017424   10.030667039   12.433266922
    1.011185309    7.261374122   10.040852203   12.445864020
    1.018363940    7.267790506   10.051135601   12.458580881
    1.025542571    7.274266935   10.061517886   12.471418259
    1.032721202    7.280803775   10.071999720   12.484376920
    1.039899833    7.287401395   10.082581775   12.497457638
    1.047078464    7.294060172   10.093264732   12.510661199
    1.054257095    7.300780484   10.104049281   12.523988399
    1.061435726    7.307562717   10.114936122   12.537440044
    1.068614357    7.314407261   10.125925964   12.551016951
    1.075792988    7.321314511   10.137019528   12.564719948
    1.082971619    7.328284866   10.148217541   12.578549876
    1.090150250    7.335318734   10.159520745   12.592507583
    1.097328881    7.342416525   10.170929889   12.606593933
    1.104507513    7.349578655   10.182445732   12.620809798
    1.111686144    7.356805547   10.194069047   12.635156064
    1.118864775    7.364097628   10.205800615   12.649633628
    1.126043406    7.371455331   10.217641229   12.664243398
    1.133222037    7.378879096   10.229591692   12.678986296
    1.140400668    7.386369367   10.241652819   12.693863255
    1.147579299    7.393926595   10.253825438   12.708875223
    1.154757930    7.401551237   10.266110386   12.724023157
    1.161936561    7.409243756   10.278508513   12.739308030
    1.169115192    7.417004620   10.291020681   12.754730827
    1.176293823    7.424834306   10.303647765   12.770292546
    1.183472454    7.432733295   10.316390652   12.785994199
    1.190651085    7.440702075   10.329250240   12.801836813
    1.197829716    7.448741141   10.342227441   12.817821426
    1.205008347    7.456850994   10.355323182   12.833949093
    1.212186978    7.465032143   10.368538399   12.850220882
    1.219365609    7.473285103   10.381874045   12.866637876
    1.226544240    7.481610395   10.395331085   12.883201172
    1.233722871    7.490008549   10.408910498   12.899911883
    1.240901503    7.498480100   10.422613278   12.916771137
    1.248080134    7.507025593   10.436440433   12.933780079
    1.255258765    7.515645579   10.450392985   12.950939866
    1.262437396    7.524340616   10.464471972   12.968251675
    1.269616027    7.533111270   10.478678445   12.985716697
    1.276794658    7.541958114   10.493013473   13.003336140
    1.283973289    7.550881732   10.507478138   13.021111230
    1.291151920    7.559882712   10.522073538   13.039043208
    1.298330551    7.568961653   10.536800780   13.057133333
    1.305509182    7.578119160   10.551660981   13.075382883
    1.312687813    7.587355848   10.566655299   13.093793153
    1.319866444    7.596672341   10.581784938   13.112365456
    1.327045075    7.606069271   10.597051075   13.131101123
    1.334223706    7.615547277   10.612454898   13.150001506
    1.341402337    7.625107010   10.627997618   13.169067974
    1.348580968    7.634749129   10.643680473   13.188301916
    1.355759599    7.644474301   10.659504717   13.207704741
    1.362938230    7.654283204   10.675471624   13.227277878
    1.370116861    7.664176525   10.691582488   13.247022777
    1.377295492    7.674154962   10.707838622   13.266940908
    1.384474124    7.684219221   10.724241360   13.287033764
    1.391652755    7.694370018   10.740792054   13.307302855
    1.398831386    7.704608075   10.757492078   13.327749712
    1.406010017    7.714934114   10.774342825   13.348375877
    1.413188648    7.725348863   10.791345707   13.369182911
    1.420367279    7.735853120   10.808502171   13.390172455
    1.427545910    7.746447696   10.825813683   13.411346173
    1.434724541    7.757133350   10.843281725   13.432705698
    1.441903172    7.767910861   10.860907801   13.454252687
    1.449081803    7.778781026   10.878693440   13.475988836
    1.456260434    7.789744661   10.896640197   13.497915869
    1.463439065    7.800802593   10.914749652   13.520035535
    1.470617696    7.811955664   10.933023409   13.542349611
    1.477796327    7.823204724   10.951463098   13.564859900
    1.484974958    7.834550640   10.970070374   13.587568233
    1.492153589    7.845994290   10.988846921   13.610476466
    1.499332220    7.857536564   11.007794447   13.633586486
    1.506510851    7.869178367   11.026914691   13.656900207
    1.513689482    7.880920617   11.046209418   13.680419572
    1.520868114    7.892764246   11.065680423   13.704146555
    1.528046745    7.904710200   11.085329528   13.728083159
    1.535225376    7.916759440   11.105158587   13.752231418
    1.542404007    7.928912941   11.125169486   13.776593397
    1.549582638    7.941171692   11.145364138   13.801171195
    1.556761269    7.953536699   11.165744492   13.825966942
    1.563939900    7.966008984   11.186312527   13.850982802
    1.571118531    7.978589582   11.207070257   13.876220972
    1.578297162    7.991279548   11.228019729   13.901683684
    1.585475793    8.004079949   11.249163023   13.927373206
    1.592654424    8.016991873   11.270502259   13.953291842
    1.599833055    8.030016422   11.292039587   13.979441931
    1.607011686    8.043154718   11.313777200   14.005825852
    1.614190317    8.056407899   11.335717325   14.032446021
    1.621368948    8.069777122   11.357862228   14.059304891
    1.628547579    8.083263562   11.380214216   14.086404958
    1.635726210    8.096868415   11.402775635   14.113748758
    1.642904841    8.110592892   11.425548873   14.141338866
    1.650083472    8.124438229   11.448536359   14.169177902
    1.657262104    8.138405678   11.471740565   14.197268528
    1.664440735    8.152496514   11.495164010   14.225613450
    1.671619366    8.166712032   11.518809255   14.254215420
    1.678797997    8.181053548   11.542678908   14.283077234
    1.685976628    8.195522401   11.566775624   14.312201737
    1.693155259    8.210119951   11.591102107   14.341591821
    1.700333890    8.224847583   11.615661110   14.371250427
    1.707512521    8.239706704   11.640455436   14.401180546
    1.714691152    8.254698743   11.665487941   14.431385221
    1.721869783    8.269825158   11.690761533   14.461867546
    1.729048414    8.285087427   11.716279175   14.492630668
    1.736227045    8.300487057   11.742043885   14.523677791
    1.743405676    8.316025580   11.768058738   14.555012172
    1.750584307    8.331704553   11.794326868   14.586637128
    1.757762938    8.347525562   11.820851467   14.618556033
    1.764941569    8.363490221   11.847635791   14.650772319
    1.772120200    8.379600172   11.874683158   14.683289481
    1.779298831    8.395857085   11.901996947   14.716111076
    1.786477462    8.412262662   11.929580606   14.749240722
    1.793656093    8.428818634   11.957437646   14.782682101
    1.800834725    8.445526763   11.985571653   14.816438971
    1.808013356    8.462388845   12.013986284   14.850515160
    1.815191987    8.479406706   12.042685248   14.884914552
    1.822370618    8.496582207   12.071672330   14.919641101
    1.829549249    8.513917244   12.100951464   14.954698863
    1.836727880    8.531413748   12.130526637   14.990091961
    1.843906511    8.549073683   12.160401863   15.025824575
    1.851085142    8.566899055   12.190581255   15.061900970
    1.858263773    8.584891903   12.221069016   15.098325494
    1.865442404    8.603054308   12.251869443   15.135102580
    1.872621035    8.621388388   12.282986918   15.172236742
    1.879799666    8.639896300   12.314425901   15.209732571
    1.886978297    8.658580238   12.346190923   15.247594730
    1.894156928    8.677442450   12.378286680   15.285828022
    1.901335559    8.696485247   12.410718048   15.324437405
    1.908514190    8.715710960   12.443489896   15.363427849
    1.915692821    8.735121961   12.476607167   15.402804402
    1.922871452    8.754720677   12.510074939   15.442572231
    1.930050083    8.774509583   12.543898412   15.482736615
    1.937228715    8.794491205   12.578082909   15.523302944
    1.944407346    8.814668121   12.612633867   15.564276717
    1.951585977    8.835042962   12.647556851   15.605663545
    1.958764608    8.855618410   12.682857548   15.647469155
    1.965943239    8.876397208   12.718541778   15.689699396
    1.973121870    8.897382158   12.754615497   15.732360242
    1.980300501    8.918576118   12.791084796   15.775457788
    1.987479132    8.939982003   12.827955909   15.818998258
    1.994657763    8.961602793   12.865235217   15.862988010
    2.001836394    8.983441532   12.902929253   15.907433540
    2.009015025    9.005501330   12.941044706   15.952341484
    2.016193656    9.027785365   12.979588428   15.997718623
    2.023372287    9.050296885   13.018567435   16.043571888
    2.030550918    9.073039207   13.057988916   16.089908360
    2.037729549    9.096015715   13.097860235   16.136735270
    2.044908180    9.119229856   13.138188940   16.184060000
    2.052086811    9.142685186   13.178982770   16.231890128
    2.059265442    9.166385391   13.220249671   16.280233460
    2.066444073    9.190334187   13.261997778   16.329097922
    2.073622705    9.214535350   13.304235437   16.378491597
    2.080801336    9.238992760   13.346971207   16.428422772
    2.087979967    9.263710395   13.390213877   16.478899937
    2.095158598    9.288692329   13.433972464   16.529931786
    2.102337229    9.313942735   13.478256227   16.581527218
    2.109515860    9.339465886   13.523074674   16.633695351
    2.116694491    9.365266160   13.568437569   16.686445523
    2.123873122    9.391348042   13.614354943   16.739787300
    2.131051753    9.417716127   13.660837101   16.793730485
    2.138230384    9.444375127   13.707894625   16.848285127
    2.145409015    9.471329870   13.755538362   16.903461525
    2.152587646    9.498585307   13.803779454   16.959270240
    2.159766277    9.526146520   13.852629519   17.015722101
    2.166944908    9.554018720   13.902100526   17.072828215
    2.174123539    9.582207251   13.952204617   17.130599979
    2.181302170    9.610717612   14.002954302   17.189049115
    2.188480801    9.639555425   14.054362479   17.248187627
    2.195659432    9.668726463   14.106442445   17.308027840
    2.202838063    9.698236709   14.159207961   17.368582433
    2.210016694    9.728092286   14.212673190   17.429864427
    2.217195326    9.758299452   14.266852686   17.491887185
    2.224373957    9.788864642   14.321761462   17.554664447
    2.231552588    9.819794485   14.377415017   17.618210343
    2.238731219    9.851095833   14.433829363   17.682539404
    2.245909850    9.882775717   14.491021017   17.747666579
    2.253088481    9.914841356   14.549007028   17.813607252
    2.260267112    9.947300185   14.607805005   17.880377255
    2.267445743    9.980159868   14.667433146   17.947992889
    2.274624374   10.013428298   14.727910261   18.016470939
    2.281803005   10.047113612   14.789255791   18.085828687
    2.288981636   10.081224195   14.851489845   18.156083937
    2.296160267   10.115768701   14.914633274   18.227255109
    2.303338898   10.150756054   14.978707670   18.299361199
    2.310517529   10.186195461   15.043735341   18.372421722
    2.317696160   10.222096418   15.109739387   18.446456758
    2.324874791   10.258468700   15.176743726   18.521486963
    2.332053422   10.295322310   15.244773177   18.597533893
    2.339232053   10.332667374   15.313853452   18.674620030
    2.346410684   10.370514708   15.384011308   18.752768300
    2.353589316   10.408876454   15.455274972   18.832002647
    2.360767947   10.447764310   15.527673305   18.912347605
    2.367946578   10.487189830   15.601235933   18.993828376
    2.375125209   10.527165222   15.675993859   19.076471222
    2.382303840   10.567703328   15.751979338   19.160303430
    2.389482471   10.608817616   15.829225889   19.245352932
    2.396661102   10.650522111   15.907769971   19.331648972
    2.403839733   10.692831141   15.987648890   19.419222664
    2.411018364   10.735759520   16.068900377   19.508105690
    2.418196995   10.779322690   16.151563897   19.598330457
    2.425375626   10.823536729   16.235680939   19.689930789
    2.432554257   10.868418385   16.321295149   19.782942003
    2.439732888   10.913985078   16.408452146   19.877400855
    2.446911519   10.960254933   16.497199471   19.973345591
    2.454090150   11.007246826   16.587586881   20.070816048
    2.461268781   11.054980370   16.679666437   20.169853697
    2.468447412   11.103476009   16.773492691   20.270501772
    2.475626043   11.152755310   16.869123284   20.372805384
    2.482804674   11.202840797   16.966618730   20.476811624
    2.489983306   11.253755774   17.066042143   20.582569665
    2.497161937   11.305524616   17.167459863   20.690130901
    2.504340568   11.358172916   17.270941954   20.799549151
    2.511519199   11.411727510   17.376562283   20.910880773
    2.518697830   11.466216488   17.484398524   21.024184748
    2.525876461   11.521669319   17.594532630   21.139522921
    2.533055092   11.578116954   17.707051188   21.256960209
    2.540233723   11.635591915   17.822045747   21.376564797
