# energy grid [eV]     ieps_x  ieps_y  ieps_z
#
    0.200000000    9.347423997    8.061526413    8.106026501
    0.207178631    9.345216753    8.059726834    8.104216431
    0.214357262    9.342933150    8.057865078    8.102343704
    0.221535893    9.340573337    8.055941273    8.100408438
    0.228714524    9.338137469    8.053955554    8.098410758
    0.235893155    9.335625706    8.051908057    8.096350790
    0.243071786    9.333038212    8.049798926    8.094228664
    0.250250417    9.330375155    8.047628303    8.092044514
    0.257429048    9.327636710    8.045396340    8.089798479
    0.264607679    9.324823053    8.043103187    8.087490700
    0.271786311    9.321934368    8.040749001    8.085121322
    0.278964942    9.318970841    8.038333943    8.082690493
    0.286143573    9.315932664    8.035858176    8.080198366
    0.293322204    9.312820031    8.033321866    8.077645095
    0.300500835    9.309633144    8.030725184    8.075030840
    0.307679466    9.306372205    8.028068304    8.072355764
    0.314858097    9.303037423    8.025351404    8.069620032
    0.322036728    9.299629011    8.022574663    8.066823812
    0.329215359    9.296147186    8.019738265    8.063967278
    0.336393990    9.292592167    8.016842398    8.061050605
    0.343572621    9.288964180    8.013887251    8.058073971
    0.350751252    9.285263453    8.010873019    8.055037559
    0.357929883    9.281490219    8.007799897    8.051941554
    0.365108514    9.277644715    8.004668084    8.048786144
    0.372287145    9.273727180    8.001477783    8.045571520
    0.379465776    9.269737859    7.998229200    8.042297876
    0.386644407    9.265676999    7.994922542    8.038965411
    0.393823038    9.261544853    7.991558020    8.035574324
    0.401001669    9.257341675    7.988135848    8.032124818
    0.408180301    9.253067724    7.984656243    8.028617100
    0.415358932    9.248723262    7.981119423    8.025051379
    0.422537563    9.244308556    7.977525610    8.021427865
    0.429716194    9.239823873    7.973875029    8.017746774
    0.436894825    9.235269488    7.970167906    8.014008322
    0.444073456    9.230645675    7.966404470    8.010212730
    0.451252087    9.225952714    7.962584953    8.006360221
    0.458430718    9.221190887    7.958709590    8.002451018
    0.465609349    9.216360481    7.954778616    7.998485350
    0.472787980    9.211461782    7.950792270    7.994463447
    0.479966611    9.206495085    7.946750793    7.990385542
    0.487145242    9.201460682    7.942654428    7.986251869
    0.494323873    9.196358873    7.938503420    7.982062667
    0.501502504    9.191189958    7.934298017    7.977818174
    0.508681135    9.185954240    7.930038468    7.973518634
    0.515859766    9.180652026    7.925725025    7.969164290
    0.523038397    9.175283625    7.921357940    7.964755389
    0.530217028    9.169849349    7.916937468    7.960292181
    0.537395659    9.164349513    7.912463868    7.955774916
    0.544574290    9.158784434    7.907937398    7.951203848
    0.551752922    9.153154431    7.903358319    7.946579231
    0.558931553    9.147459828    7.898726893    7.941901323
    0.566110184    9.141700949    7.894043384    7.937170384
    0.573288815    9.135878121    7.889308059    7.932386674
    0.580467446    9.129991674    7.884521185    7.927550457
    0.587646077    9.124041940    7.879683031    7.922661998
    0.594824708    9.118029253    7.874793867    7.917721564
    0.602003339    9.111953950    7.869853966    7.912729423
    0.609181970    9.105816369    7.864863602    7.907685847
    0.616360601    9.099616851    7.859823050    7.902591107
    0.623539232    9.093355739    7.854732585    7.897445478
    0.630717863    9.087033378    7.849592486    7.892249235
    0.637896494    9.080650115    7.844403033    7.887002656
    0.645075125    9.074206298    7.839164505    7.881706018
    0.652253756    9.067702279    7.833877184    7.876359604
    0.659432387    9.061138410    7.828541353    7.870963694
    0.666611018    9.054515045    7.823157297    7.865518572
    0.673789649    9.047832542    7.817725300    7.860024523
    0.680968280    9.041091256    7.812245649    7.854481834
    0.688146912    9.034291549    7.806718632    7.848890791
    0.695325543    9.027433781    7.801144536    7.843251683
    0.702504174    9.020518316    7.795523652    7.837564802
    0.709682805    9.013545516    7.789856270    7.831830439
    0.716861436    9.006515749    7.784142681    7.826048885
    0.724040067    8.999429382    7.778383178    7.820220436
    0.731218698    8.992286782    7.772578054    7.814345386
    0.738397329    8.985088320    7.766727604    7.808424032
    0.745575960    8.977834368    7.760832121    7.802456671
    0.752754591    8.970525297    7.754891902    7.796443600
    0.759933222    8.963161482    7.748907244    7.790385121
    0.767111853    8.955743297    7.742878443    7.784281532
    0.774290484    8.948271119    7.736805798    7.778133136
    0.781469115    8.940745325    7.730689607    7.771940234
    0.788647746    8.933166294    7.724530170    7.765703129
    0.795826377    8.925534403    7.718327786    7.759422127
    0.803005008    8.917850034    7.712082756    7.753097531
    0.810183639    8.910113568    7.705795381    7.746729646
    0.817362270    8.902325387    7.699465963    7.740318781
    0.824540902    8.894485873    7.693094803    7.733865240
    0.831719533    8.886595411    7.686682205    7.727369333
    0.838898164    8.878654385    7.680228472    7.720831367
    0.846076795    8.870663180    7.673733906    7.714251652
    0.853255426    8.862622182    7.667198812    7.707630498
    0.860434057    8.854531778    7.660623495    7.700968214
    0.867612688    8.846392355    7.654008258    7.694265111
    0.874791319    8.838204301    7.647353407    7.687521501
    0.881969950    8.829968003    7.640659247    7.680737696
    0.889148581    8.821683852    7.633926083    7.673914007
    0.896327212    8.813352235    7.627154222    7.667050747
    0.903505843    8.804973544    7.620343970    7.660148230
    0.910684474    8.796548167    7.613495632    7.653206768
    0.917863105    8.788076495    7.606609515    7.646226675
    0.925041736    8.779558920    7.599685926    7.639208266
    0.932220367    8.770995831    7.592725171    7.632151854
    0.939398998    8.762387622    7.585727558    7.625057755
    0.946577629    8.753734682    7.578693392    7.617926282
    0.953756260    8.745037403    7.571622982    7.610757752
    0.960934891    8.736296179    7.564516634    7.603552478
    0.968113523    8.727511399    7.557374655    7.596310776
    0.975292154    8.718683458    7.550197352    7.589032962
    0.982470785    8.709812745    7.542985032    7.581719351
    0.989649416    8.700899654    7.535738003    7.574370259
    0.996828047    8.691944577    7.528456571    7.566986001
    1.004006678    8.682947906    7.521141042    7.559566892
    1.011185309    8.673910032    7.513791724    7.552113248
    1.018363940    8.664831347    7.506408923    7.544625386
    1.025542571    8.655712243    7.498992946    7.537103619
    1.032721202    8.646553111    7.491544099    7.529548263
    1.039899833    8.637354343    7.484062687    7.521959634
    1.047078464    8.628116330    7.476549018    7.514338046
    1.054257095    8.618839462    7.469003395    7.506683815
    1.061435726    8.609524129    7.461426125    7.498997255
    1.068614357    8.600170722    7.453817512    7.491278680
    1.075792988    8.590779631    7.446177863    7.483528406
    1.082971619    8.581351244    7.438507479    7.475746745
    1.090150250    8.571885951    7.430806667    7.467934011
    1.097328881    8.562384140    7.423075730    7.460090518
    1.104507513    8.552846198    7.415314971    7.452216580
    1.111686144    8.543272514    7.407524693    7.444312507
    1.118864775    8.533663475    7.399705198    7.436378614
    1.126043406    8.524019466    7.391856790    7.428415211
    1.133222037    8.514340873    7.383979770    7.420422611
    1.140400668    8.504628082    7.376074438    7.412401124
    1.147579299    8.494881477    7.368141096    7.404351061
    1.154757930    8.485101442    7.360180044    7.396272733
    1.161936561    8.475288359    7.352191582    7.388166447
    1.169115192    8.465442613    7.344176008    7.380032515
    1.176293823    8.455564583    7.336133623    7.371871244
    1.183472454    8.445654651    7.328064723    7.363682943
    1.190651085    8.435713197    7.319969607    7.355467918
    1.197829716    8.425740601    7.311848571    7.347226477
    1.205008347    8.415737240    7.303701911    7.338958925
    1.212186978    8.405703493    7.295529924    7.330665569
    1.219365609    8.395639736    7.287332905    7.322346714
    1.226544240    8.385546345    7.279111147    7.314002663
    1.233722871    8.375423695    7.270864944    7.305633720
    1.240901503    8.365272159    7.262594591    7.297240188
    1.248080134    8.355092111    7.254300377    7.288822369
    1.255258765    8.344883923    7.245982597    7.280380564
    1.262437396    8.334647966    7.237641539    7.271915074
    1.269616027    8.324384609    7.229277495    7.263426200
    1.276794658    8.314094221    7.220890753    7.254914239
    1.283973289    8.303777171    7.212481602    7.246379490
    1.291151920    8.293433824    7.204050331    7.237822251
    1.298330551    8.283064546    7.195597225    7.229242818
    1.305509182    8.272669702    7.187122571    7.220641487
    1.312687813    8.262249656    7.178626654    7.212018552
    1.319866444    8.251804768    7.170109759    7.203374308
    1.327045075    8.241335400    7.161572169    7.194709048
    1.334223706    8.230841912    7.153014167    7.186023064
    1.341402337    8.220324662    7.144436035    7.177316646
    1.348580968    8.209784007    7.135838053    7.168590086
    1.355759599    8.199220304    7.127220502    7.159843672
    1.362938230    8.188633907    7.118583660    7.151077693
    1.370116861    8.178025169    7.109927806    7.142292437
    1.377295492    8.167394442    7.101253217    7.133488189
    1.384474124    8.156742078    7.092560169    7.124665235
    1.391652755    8.146068426    7.083848937    7.115823859
    1.398831386    8.135373833    7.075119796    7.106964344
    1.406010017    8.124658646    7.066373019    7.098086974
    1.413188648    8.113923211    7.057608877    7.089192028
    1.420367279    8.103167872    7.048827644    7.080279788
    1.427545910    8.092392971    7.040029587    7.071350531
    1.434724541    8.081598849    7.031214978    7.062404536
    1.441903172    8.070785846    7.022384083    7.053442080
    1.449081803    8.059954300    7.013537171    7.044463439
    1.456260434    8.049104547    7.004674506    7.035468887
    1.463439065    8.038236924    6.995796355    7.026458697
    1.470617696    8.027351763    6.986902980    7.017433143
    1.477796327    8.016449397    6.977994645    7.008392494
    1.484974958    8.005530156    6.969071611    6.999337021
    1.492153589    7.994594371    6.960134139    6.990266993
    1.499332220    7.983642368    6.951182488    6.981182678
    1.506510851    7.972674474    6.942216917    6.972084341
    1.513689482    7.961691013    6.933237683    6.962972248
    1.520868114    7.950692308    6.924245041    6.953846664
    1.528046745    7.939678681    6.915239248    6.944707850
    1.535225376    7.928650452    6.906220555    6.935556069
    1.542404007    7.917607938    6.897189217    6.926391581
    1.549582638    7.906551457    6.888145484    6.917214645
    1.556761269    7.895481323    6.879089607    6.908025519
    1.563939900    7.884397850    6.870021834    6.898824459
    1.571118531    7.873301350    6.860942414    6.889611721
    1.578297162    7.862192133    6.851851593    6.880387559
    1.585475793    7.851070507    6.842749617    6.871152225
    1.592654424    7.839936779    6.833636729    6.861905972
    1.599833055    7.828791255    6.824513174    6.852649049
    1.607011686    7.817634237    6.815379192    6.843381705
    1.614190317    7.806466029    6.806235024    6.834104188
    1.621368948    7.795286929    6.797080910    6.824816745
    1.628547579    7.784097237    6.787917087    6.815519620
    1.635726210    7.772897250    6.778743793    6.806213056
    1.642904841    7.761687261    6.769561263    6.796897298
    1.650083472    7.750467566    6.760369731    6.787572584
    1.657262104    7.739238455    6.751169430    6.778239156
    1.664440735    7.728000218    6.741960593    6.768897251
    1.671619366    7.716753144    6.732743450    6.759547107
    1.678797997    7.705497520    6.723518230    6.750188959
    1.685976628    7.694233629    6.714285161    6.740823042
    1.693155259    7.682961756    6.705044470    6.731449588
    1.700333890    7.671682182    6.695796382    6.722068830
    1.707512521    7.660395186    6.686541121    6.712680997
    1.714691152    7.649101045    6.677278911    6.703286318
    1.721869783    7.637800037    6.668009973    6.693885022
    1.729048414    7.626492436    6.658734526    6.684477334
    1.736227045    7.615178514    6.649452792    6.675063479
    1.743405676    7.603858542    6.640164985    6.665643680
    1.750584307    7.592532790    6.630871325    6.656218160
    1.757762938    7.581201524    6.621572024    6.646787140
    1.764941569    7.569865010    6.612267298    6.637350838
    1.772120200    7.558523513    6.602957358    6.627909472
    1.779298831    7.547177294    6.593642415    6.618463260
    1.786477462    7.535826613    6.584322681    6.609012415
    1.793656093    7.524471730    6.574998362    6.599557153
    1.800834725    7.513112900    6.565669667    6.590097686
    1.808013356    7.501750380    6.556336800    6.580634223
    1.815191987    7.490384422    6.546999968    6.571166976
    1.822370618    7.479015278    6.537659372    6.561696153
    1.829549249    7.467643198    6.528315215    6.552221959
    1.836727880    7.456268429    6.518967698    6.542744601
    1.843906511    7.444891218    6.509617020    6.533264283
    1.851085142    7.433511809    6.500263378    6.523781207
    1.858263773    7.422130445    6.490906969    6.514295574
    1.865442404    7.410747367    6.481547990    6.504807585
    1.872621035    7.399362814    6.472186633    6.495317438
    1.879799666    7.387977023    6.462823091    6.485825330
    1.886978297    7.376590231    6.453457556    6.476331457
    1.894156928    7.365202670    6.444090218    6.466836013
    1.901335559    7.353814574    6.434721265    6.457339191
    1.908514190    7.342426171    6.425350884    6.447841183
    1.915692821    7.331037692    6.415979263    6.438342178
    1.922871452    7.319649363    6.406606585    6.428842366
    1.930050083    7.308261409    6.397233034    6.419341934
    1.937228715    7.296874053    6.387858792    6.409841068
    1.944407346    7.285487517    6.378484040    6.400339952
    1.951585977    7.274102020    6.369108957    6.390838769
    1.958764608    7.262717782    6.359733722    6.381337703
    1.965943239    7.251335018    6.350358510    6.371836932
    1.973121870    7.239953943    6.340983498    6.362336636
    1.980300501    7.228574769    6.331608861    6.352836994
    1.987479132    7.217197709    6.322234770    6.343338180
    1.994657763    7.205822972    6.312861397    6.333840371
    2.001836394    7.194450764    6.303488913    6.324343739
    2.009015025    7.183081293    6.294117486    6.314848457
    2.016193656    7.171714763    6.284747285    6.305354697
    2.023372287    7.160351375    6.275378475    6.295862626
    2.030550918    7.148991332    6.266011222    6.286372415
    2.037729549    7.137634832    6.256645689    6.276884228
    2.044908180    7.126282073    6.247282039    6.267398233
    2.052086811    7.114933251    6.237920433    6.257914592
    2.059265442    7.103588559    6.228561030    6.248433469
    2.066444073    7.092248190    6.219203991    6.238955025
    2.073622705    7.080912336    6.209849471    6.229479421
    2.080801336    7.069581184    6.200497627    6.220006814
    2.087979967    7.058254923    6.191148613    6.210537363
    2.095158598    7.046933737    6.181802583    6.201071223
    2.102337229    7.035617812    6.172459690    6.191608549
    2.109515860    7.024307330    6.163120084    6.182149494
    2.116694491    7.013002470    6.153783915    6.172694212
    2.123873122    7.001703414    6.144451331    6.163242852
    2.131051753    6.990410337    6.135122479    6.153795563
    2.138230384    6.979123416    6.125797506    6.144352495
    2.145409015    6.967842825    6.116476556    6.134913794
    2.152587646    6.956568737    6.107159772    6.125479606
    2.159766277    6.945301322    6.097847296    6.116050074
    2.166944908    6.934040750    6.088539270    6.106625342
    2.174123539    6.922787189    6.079235833    6.097205552
    2.181302170    6.911540805    6.069937123    6.087790843
    2.188480801    6.900301763    6.060643279    6.078381356
    2.195659432    6.889070225    6.051354434    6.068977227
    2.202838063    6.877846353    6.042070726    6.059578595
    2.210016694    6.866630306    6.032792286    6.050185592
    2.217195326    6.855422244    6.023519247    6.040798355
    2.224373957    6.844222322    6.014251741    6.031417016
    2.231552588    6.833030696    6.004989898    6.022041705
    2.238731219    6.821847520    5.995733845    6.012672554
    2.245909850    6.810672945    5.986483711    6.003309692
    2.253088481    6.799507122    5.977239622    5.993953247
    2.260267112    6.788350200    5.968001702    5.984603344
    2.267445743    6.777202326    5.958770077    5.975260110
    2.274624374    6.766063647    5.949544869    5.965923669
    2.281803005    6.754934306    5.940326198    5.956594143
    2.288981636    6.743814447    5.931114187    5.947271654
    2.296160267    6.732704212    5.921908953    5.937956323
    2.303338898    6.721603740    5.912710616    5.928648269
    2.310517529    6.710513169    5.903519292    5.919347611
    2.317696160    6.699432637    5.894335097    5.910054464
    2.324874791    6.688362279    5.885158145    5.900768946
    2.332053422    6.677302229    5.875988550    5.891491170
    2.339232053    6.666252620    5.866826425    5.882221249
    2.346410684    6.655213583    5.857671880    5.872959297
    2.353589316    6.644185248    5.848525026    5.863705424
    2.360767947    6.633167743    5.839385972    5.854459740
    2.367946578    6.622161194    5.830254826    5.845222354
    2.375125209    6.611165729    5.821131694    5.835993373
    2.382303840    6.600181469    5.812016682    5.826772904
    2.389482471    6.589208539    5.802909895    5.817561053
    2.396661102    6.578247059    5.793811436    5.808357922
    2.403839733    6.567297149    5.784721407    5.799163616
    2.411018364    6.556358928    5.775639910    5.789978236
    2.418196995    6.545432513    5.766567045    5.780801884
    2.425375626    6.534518019    5.757502912    5.771634658
    2.432554257    6.523615562    5.748447607    5.762476658
    2.439732888    6.512725253    5.739401229    5.753327981
    2.446911519    6.501847205    5.730363873    5.744188724
    2.454090150    6.490981529    5.721335634    5.735058981
    2.461268781    6.480128332    5.712316606    5.725938847
    2.468447412    6.469287724    5.703306882    5.716828416
    2.475626043    6.458459809    5.694306553    5.707727779
    2.482804674    6.447644694    5.685315711    5.698637027
    2.489983306    6.436842483    5.676334444    5.689556251
    2.497161937    6.426053277    5.667362842    5.680485540
    2.504340568    6.415277178    5.658400993    5.671424980
    2.511519199    6.404514287    5.649448982    5.662374661
    2.518697830    6.393764701    5.640506896    5.653334666
    2.525876461    6.383028518    5.631574819    5.644305081
    2.533055092    6.372305835    5.622652835    5.635285989
    2.540233723    6.361596746    5.613741027    5.626277474
