# energy grid [eV]     ieps_x  ieps_y  ieps_z
#
    0.200000000    5.755405636    3.712700087    4.064258373
    0.207178631    5.754505283    3.712071707    4.063580090
    0.214357262    5.753573551    3.711421506    4.062878226
    0.221535893    5.752610476    3.710749517    4.062152815
    0.228714524    5.751616099    3.710055777    4.061403892
    0.235893155    5.750590460    3.709340322    4.060631496
    0.243071786    5.749533600    3.708603190    4.059835664
    0.250250417    5.748445561    3.707844420    4.059016434
    0.257429048    5.747326390    3.707064052    4.058173847
    0.264607679    5.746176129    3.706262128    4.057307944
    0.271786311    5.744994827    3.705438690    4.056418768
    0.278964942    5.743782531    3.704593780    4.055506362
    0.286143573    5.742539290    3.703727444    4.054570770
    0.293322204    5.741265154    3.702839728    4.053612039
    0.300500835    5.739960174    3.701930677    4.052630215
    0.307679466    5.738624404    3.701000339    4.051625345
    0.314858097    5.737257897    3.700048763    4.050597479
    0.322036728    5.735860707    3.699076000    4.049546667
    0.329215359    5.734432892    3.698082099    4.048472959
    0.336393990    5.732974508    3.697067112    4.047376407
    0.343572621    5.731485614    3.696031093    4.046257066
    0.350751252    5.729966269    3.694974095    4.045114987
    0.357929883    5.728416535    3.693896173    4.043950228
    0.365108514    5.726836474    3.692797384    4.042762844
    0.372287145    5.725226148    3.691677783    4.041552891
    0.379465776    5.723585622    3.690537429    4.040320429
    0.386644407    5.721914961    3.689376381    4.039065517
    0.393823038    5.720214232    3.688194698    4.037788214
    0.401001669    5.718483502    3.686992442    4.036488582
    0.408180301    5.716722841    3.685769673    4.035166682
    0.415358932    5.714932317    3.684526456    4.033822578
    0.422537563    5.713112003    3.683262853    4.032456335
    0.429716194    5.711261969    3.681978929    4.031068016
    0.436894825    5.709382290    3.680674750    4.029657688
    0.444073456    5.707473040    3.679350382    4.028225418
    0.451252087    5.705534293    3.678005892    4.026771273
    0.458430718    5.703566126    3.676641348    4.025295323
    0.465609349    5.701568616    3.675256820    4.023797637
    0.472787980    5.699541843    3.673852378    4.022278285
    0.479966611    5.697485885    3.672428092    4.020737339
    0.487145242    5.695400823    3.670984035    4.019174871
    0.494323873    5.693286738    3.669520278    4.017590954
    0.501502504    5.691143714    3.668036895    4.015985663
    0.508681135    5.688971833    3.666533961    4.014359073
    0.515859766    5.686771180    3.665011550    4.012711258
    0.523038397    5.684541841    3.663469738    4.011042296
    0.530217028    5.682283903    3.661908602    4.009352265
    0.537395659    5.679997452    3.660328220    4.007641242
    0.544574290    5.677682577    3.658728669    4.005909307
    0.551752922    5.675339369    3.657110029    4.004156539
    0.558931553    5.672967916    3.655472379    4.002383019
    0.566110184    5.670568311    3.653815801    4.000588829
    0.573288815    5.668140646    3.652140374    3.998774052
    0.580467446    5.665685014    3.650446182    3.996938769
    0.587646077    5.663201508    3.648733307    3.995083064
    0.594824708    5.660690225    3.647001832    3.993207023
    0.602003339    5.658151260    3.645251842    3.991310731
    0.609181970    5.655584709    3.643483421    3.989394273
    0.616360601    5.652990671    3.641696655    3.987457737
    0.623539232    5.650369244    3.639891630    3.985501209
    0.630717863    5.647720527    3.638068433    3.983524778
    0.637896494    5.645044621    3.636227151    3.981528533
    0.645075125    5.642341626    3.634367873    3.979512563
    0.652253756    5.639611645    3.632490687    3.977476959
    0.659432387    5.636854781    3.630595683    3.975421810
    0.666611018    5.634071136    3.628682950    3.973347209
    0.673789649    5.631260815    3.626752579    3.971253249
    0.680968280    5.628423924    3.624804662    3.969140020
    0.688146912    5.625560568    3.622839289    3.967007618
    0.695325543    5.622670854    3.620856554    3.964856135
    0.702504174    5.619754890    3.618856549    3.962685667
    0.709682805    5.616812783    3.616839368    3.960496308
    0.716861436    5.613844643    3.614805104    3.958288155
    0.724040067    5.610850580    3.612753852    3.956061304
    0.731218698    5.607830703    3.610685707    3.953815851
    0.738397329    5.604785125    3.608600764    3.951551894
    0.745575960    5.601713956    3.606499120    3.949269531
    0.752754591    5.598617309    3.604380870    3.946968861
    0.759933222    5.595495298    3.602246111    3.944649982
    0.767111853    5.592348037    3.600094942    3.942312994
    0.774290484    5.589175640    3.597927459    3.939957997
    0.781469115    5.585978222    3.595743760    3.937585091
    0.788647746    5.582755899    3.593543946    3.935194378
    0.795826377    5.579508789    3.591328114    3.932785959
    0.803005008    5.576237007    3.589096363    3.930359935
    0.810183639    5.572940671    3.586848795    3.927916410
    0.817362270    5.569619901    3.584585508    3.925455486
    0.824540902    5.566274815    3.582306605    3.922977265
    0.831719533    5.562905532    3.580012184    3.920481852
    0.838898164    5.559512173    3.577702349    3.917969351
    0.846076795    5.556094858    3.575377200    3.915439866
    0.853255426    5.552653709    3.573036839    3.912893502
    0.860434057    5.549188847    3.570681370    3.910330364
    0.867612688    5.545700395    3.568310893    3.907750558
    0.874791319    5.542188475    3.565925513    3.905154188
    0.881969950    5.538653211    3.563525332    3.902541363
    0.889148581    5.535094727    3.561110454    3.899912188
    0.896327212    5.531513147    3.558680982    3.897266770
    0.903505843    5.527908596    3.556237021    3.894605216
    0.910684474    5.524281199    3.553778674    3.891927634
    0.917863105    5.520631083    3.551306047    3.889234132
    0.925041736    5.516958372    3.548819243    3.886524817
    0.932220367    5.513263195    3.546318368    3.883799798
    0.939398998    5.509545677    3.543803526    3.881059183
    0.946577629    5.505805948    3.541274823    3.878303082
    0.953756260    5.502044133    3.538732365    3.875531604
    0.960934891    5.498260363    3.536176257    3.872744857
    0.968113523    5.494454765    3.533606605    3.869942952
    0.975292154    5.490627469    3.531023514    3.867125998
    0.982470785    5.486778605    3.528427091    3.864294105
    0.989649416    5.482908301    3.525817442    3.861447383
    0.996828047    5.479016689    3.523194674    3.858585943
    1.004006678    5.475103898    3.520558892    3.855709895
    1.011185309    5.471170061    3.517910204    3.852819350
    1.018363940    5.467215307    3.515248716    3.849914418
    1.025542571    5.463239769    3.512574534    3.846995211
    1.032721202    5.459243579    3.509887766    3.844061840
    1.039899833    5.455226867    3.507188519    3.841114416
    1.047078464    5.451189768    3.504476899    3.838153050
    1.054257095    5.447132413    3.501753013    3.835177854
    1.061435726    5.443054936    3.499016969    3.832188939
    1.068614357    5.438957470    3.496268873    3.829186417
    1.075792988    5.434840147    3.493508833    3.826170401
    1.082971619    5.430703103    3.490736955    3.823141001
    1.090150250    5.426546470    3.487953347    3.820098329
    1.097328881    5.422370383    3.485158116    3.817042498
    1.104507513    5.418174976    3.482351369    3.813973619
    1.111686144    5.413960384    3.479533213    3.810891805
    1.118864775    5.409726742    3.476703755    3.807797167
    1.126043406    5.405474183    3.473863102    3.804689818
    1.133222037    5.401202844    3.471011360    3.801569870
    1.140400668    5.396912860    3.468148638    3.798437435
    1.147579299    5.392604366    3.465275041    3.795292624
    1.154757930    5.388277497    3.462390676    3.792135550
    1.161936561    5.383932389    3.459495650    3.788966326
    1.169115192    5.379569178    3.456590070    3.785785062
    1.176293823    5.375188000    3.453674043    3.782591871
    1.183472454    5.370788990    3.450747673    3.779386865
    1.190651085    5.366372285    3.447811068    3.776170156
    1.197829716    5.361938022    3.444864334    3.772941856
    1.205008347    5.357486335    3.441907577    3.769702076
    1.212186978    5.353017362    3.438940903    3.766450928
    1.219365609    5.348531239    3.435964417    3.763188523
    1.226544240    5.344028102    3.432978226    3.759914974
    1.233722871    5.339508088    3.429982434    3.756630391
    1.240901503    5.334971333    3.426977146    3.753334886
    1.248080134    5.330417974    3.423962469    3.750028570
    1.255258765    5.325848147    3.420938506    3.746711554
    1.262437396    5.321261989    3.417905364    3.743383949
    1.269616027    5.316659636    3.414863145    3.740045865
    1.276794658    5.312041225    3.411811955    3.736697414
    1.283973289    5.307406892    3.408751897    3.733338705
    1.291151920    5.302756775    3.405683076    3.729969850
    1.298330551    5.298091008    3.402605596    3.726590958
    1.305509182    5.293409730    3.399519559    3.723202139
    1.312687813    5.288713076    3.396425069    3.719803503
    1.319866444    5.284001182    3.393322230    3.716395160
    1.327045075    5.279274184    3.390211143    3.712977219
    1.334223706    5.274532220    3.387091912    3.709549790
    1.341402337    5.269775424    3.383964639    3.706112980
    1.348580968    5.265003933    3.380829426    3.702666900
    1.355759599    5.260217883    3.377686374    3.699211658
    1.362938230    5.255417410    3.374535585    3.695747361
    1.370116861    5.250602649    3.371377160    3.692274120
    1.377295492    5.245773736    3.368211201    3.688792040
    1.384474124    5.240930806    3.365037808    3.685301230
    1.391652755    5.236073994    3.361857081    3.681801797
    1.398831386    5.231203436    3.358669120    3.678293849
    1.406010017    5.226319267    3.355474025    3.674777492
    1.413188648    5.221421622    3.352271896    3.671252833
    1.420367279    5.216510634    3.349062831    3.667719979
    1.427545910    5.211586440    3.345846930    3.664179034
    1.434724541    5.206649172    3.342624290    3.660630106
    1.441903172    5.201698966    3.339395011    3.657073300
    1.449081803    5.196735955    3.336159190    3.653508721
    1.456260434    5.191760273    3.332916924    3.649936474
    1.463439065    5.186772053    3.329668311    3.646356664
    1.470617696    5.181771429    3.326413447    3.642769394
    1.477796327    5.176758535    3.323152429    3.639174769
    1.484974958    5.171733502    3.319885353    3.635572893
    1.492153589    5.166696463    3.316612315    3.631963869
    1.499332220    5.161647552    3.313333409    3.628347800
    1.506510851    5.156586900    3.310048732    3.624724789
    1.513689482    5.151514639    3.306758378    3.621094938
    1.520868114    5.146430900    3.303462441    3.617458349
    1.528046745    5.141335816    3.300161015    3.613815125
    1.535225376    5.136229517    3.296854193    3.610165365
    1.542404007    5.131112135    3.293542069    3.606509172
    1.549582638    5.125983799    3.290224735    3.602846646
    1.556761269    5.120844641    3.286902284    3.599177887
    1.563939900    5.115694790    3.283574807    3.595502995
    1.571118531    5.110534375    3.280242397    3.591822070
    1.578297162    5.105363527    3.276905144    3.588135211
    1.585475793    5.100182375    3.273563140    3.584442517
    1.592654424    5.094991046    3.270216474    3.580744086
    1.599833055    5.089789671    3.266865236    3.577040016
    1.607011686    5.084578376    3.263509516    3.573330405
    1.614190317    5.079357290    3.260149404    3.569615350
    1.621368948    5.074126540    3.256784987    3.565894948
    1.628547579    5.068886253    3.253416354    3.562169296
    1.635726210    5.063636557    3.250043593    3.558438489
    1.642904841    5.058377577    3.246666792    3.554702624
    1.650083472    5.053109440    3.243286036    3.550961795
    1.657262104    5.047832271    3.239901414    3.547216098
    1.664440735    5.042546197    3.236513011    3.543465626
    1.671619366    5.037251341    3.233120912    3.539710474
    1.678797997    5.031947828    3.229725204    3.535950736
    1.685976628    5.026635783    3.226325970    3.532186505
    1.693155259    5.021315330    3.222923296    3.528417873
    1.700333890    5.015986592    3.219517265    3.524644933
    1.707512521    5.010649692    3.216107960    3.520867776
    1.714691152    5.005304753    3.212695465    3.517086495
    1.721869783    4.999951897    3.209279862    3.513301180
    1.729048414    4.994591246    3.205861234    3.509511923
    1.736227045    4.989222922    3.202439662    3.505718812
    1.743405676    4.983847045    3.199015227    3.501921938
    1.750584307    4.978463737    3.195588011    3.498121391
    1.757762938    4.973073117    3.192158093    3.494317258
    1.764941569    4.967675305    3.188725553    3.490509629
    1.772120200    4.962270421    3.185290471    3.486698591
    1.779298831    4.956858584    3.181852927    3.482884233
    1.786477462    4.951439912    3.178412997    3.479066640
    1.793656093    4.946014524    3.174970761    3.475245900
    1.800834725    4.940582536    3.171526295    3.471422099
    1.808013356    4.935144067    3.168079678    3.467595322
    1.815191987    4.929699232    3.164630985    3.463765656
    1.822370618    4.924248149    3.161180293    3.459933183
    1.829549249    4.918790933    3.157727678    3.456097990
    1.836727880    4.913327699    3.154273215    3.452260159
    1.843906511    4.907858562    3.150816978    3.448419774
    1.851085142    4.902383638    3.147359043    3.444576919
    1.858263773    4.896903039    3.143899482    3.440731675
    1.865442404    4.891416879    3.140438369    3.436884124
    1.872621035    4.885925272    3.136975778    3.433034349
    1.879799666    4.880428330    3.133511779    3.429182429
    1.886978297    4.874926165    3.130046447    3.425328447
    1.894156928    4.869418889    3.126579852    3.421472481
    1.901335559    4.863906612    3.123112064    3.417614612
    1.908514190    4.858389447    3.119643155    3.413754918
    1.915692821    4.852867501    3.116173195    3.409893479
    1.922871452    4.847340887    3.112702254    3.406030373
    1.930050083    4.841809711    3.109230400    3.402165677
    1.937228715    4.836274084    3.105757702    3.398299468
    1.944407346    4.830734114    3.102284228    3.394431824
    1.951585977    4.825189907    3.098810047    3.390562821
    1.958764608    4.819641572    3.095335225    3.386692535
    1.965943239    4.814089215    3.091859829    3.382821040
    1.973121870    4.808532942    3.088383925    3.378948413
    1.980300501    4.802972860    3.084907580    3.375074727
    1.987479132    4.797409072    3.081430859    3.371200056
    1.994657763    4.791841684    3.077953827    3.367324474
    2.001836394    4.786270799    3.074476547    3.363448053
    2.009015025    4.780696523    3.070999085    3.359570867
    2.016193656    4.775118957    3.067521504    3.355692987
    2.023372287    4.769538204    3.064043866    3.351814485
    2.030550918    4.763954366    3.060566234    3.347935432
    2.037729549    4.758367546    3.057088671    3.344055898
    2.044908180    4.752777843    3.053611237    3.340175954
    2.052086811    4.747185359    3.050133995    3.336295669
    2.059265442    4.741590194    3.046657005    3.332415113
    2.066444073    4.735992446    3.043180327    3.328534354
    2.073622705    4.730392216    3.039704021    3.324653460
    2.080801336    4.724789600    3.036228147    3.320772498
    2.087979967    4.719184698    3.032752762    3.316891537
    2.095158598    4.713577607    3.029277926    3.313010644
    2.102337229    4.707968423    3.025803697    3.309129883
    2.109515860    4.702357243    3.022330131    3.305249322
    2.116694491    4.696744162    3.018857287    3.301369024
    2.123873122    4.691129276    3.015385221    3.297489057
    2.131051753    4.685512679    3.011913988    3.293609483
    2.138230384    4.679894467    3.008443644    3.289730366
    2.145409015    4.674274731    3.004974245    3.285851771
    2.152587646    4.668653566    3.001505846    3.281973760
    2.159766277    4.663031064    2.998038501    3.278096395
    2.166944908    4.657407317    2.994572263    3.274219739
    2.174123539    4.651782416    2.991107186    3.270343853
    2.181302170    4.646156453    2.987643323    3.266468798
    2.188480801    4.640529517    2.984180726    3.262594635
    2.195659432    4.634901700    2.980719448    3.258721424
    2.202838063    4.629273089    2.977259541    3.254849225
    2.210016694    4.623643775    2.973801054    3.250978097
    2.217195326    4.618013844    2.970344040    3.247108098
    2.224373957    4.612383386    2.966888549    3.243239287
    2.231552588    4.606752486    2.963434630    3.239371723
    2.238731219    4.601121232    2.959982332    3.235505461
    2.245909850    4.595489711    2.956531705    3.231640559
    2.253088481    4.589858006    2.953082798    3.227777074
    2.260267112    4.584226204    2.949635658    3.223915061
    2.267445743    4.578594389    2.946190334    3.220054577
    2.274624374    4.572962645    2.942746872    3.216195675
    2.281803005    4.567331055    2.939305319    3.212338411
    2.288981636    4.561699702    2.935865722    3.208482840
    2.296160267    4.556068668    2.932428127    3.204629013
    2.303338898    4.550438036    2.928992579    3.200776986
    2.310517529    4.544807887    2.925559124    3.196926810
    2.317696160    4.539178301    2.922127806    3.193078539
    2.324874791    4.533549358    2.918698670    3.189232223
    2.332053422    4.527921139    2.915271759    3.185387915
    2.339232053    4.522293721    2.911847117    3.181545665
    2.346410684    4.516667185    2.908424787    3.177705524
    2.353589316    4.511041607    2.905004811    3.173867543
    2.360767947    4.505417066    2.901587233    3.170031770
    2.367946578    4.499793637    2.898172093    3.166198255
    2.375125209    4.494171399    2.894759434    3.162367048
    2.382303840    4.488550427    2.891349296    3.158538196
    2.389482471    4.482930795    2.887941720    3.154711747
    2.396661102    4.477312579    2.884536746    3.150887749
    2.403839733    4.471695854    2.881134414    3.147066248
    2.411018364    4.466080692    2.877734764    3.143247293
    2.418196995    4.460467168    2.874337834    3.139430928
    2.425375626    4.454855354    2.870943663    3.135617200
    2.432554257    4.449245322    2.867552289    3.131806154
    2.439732888    4.443637143    2.864163751    3.127997834
    2.446911519    4.438030890    2.860778085    3.124192287
    2.454090150    4.432426632    2.857395329    3.120389555
    2.461268781    4.426824440    2.854015520    3.116589682
    2.468447412    4.421224383    2.850638694    3.112792711
    2.475626043    4.415626531    2.847264886    3.108998687
    2.482804674    4.410030951    2.843894133    3.105207650
    2.489983306    4.404437712    2.840526470    3.101419642
    2.497161937    4.398846882    2.837161930    3.097634707
    2.504340568    4.393258527    2.833800550    3.093852884
    2.511519199    4.387672713    2.830442363    3.090074215
    2.518697830    4.382089508    2.827087402    3.086298740
    2.525876461    4.376508975    2.823735701    3.082526499
    2.533055092    4.370931181    2.820387293    3.078757531
    2.540233723    4.365356189    2.817042211    3.074991876
