# energy grid [eV]     epsr_x  epsr_y  epsr_z
#
    0.200000000   11.906571804   13.560359186   10.511040995
    0.207178631   11.908910941   13.563228343   10.513111714
    0.214357262   11.911333704   13.566200133   10.515256460
    0.221535893   11.913840212   13.569274711   10.517475338
    0.228714524   11.916430589   13.572452235   10.519768460
    0.235893155   11.919104966   13.575732870   10.522135938
    0.243071786   11.921863473   13.579116786   10.524577889
    0.250250417   11.924706249   13.582604158   10.527094436
    0.257429048   11.927633435   13.586195169   10.529685702
    0.264607679   11.930645178   13.589890003   10.532351818
    0.271786311   11.933741627   13.593688855   10.535092914
    0.278964942   11.936922937   13.597591921   10.537909129
    0.286143573   11.940189267   13.601599405   10.540800603
    0.293322204   11.943540780   13.605711517   10.543767479
    0.300500835   11.946977646   13.609928470   10.546809906
    0.307679466   11.950500035   13.614250487   10.549928037
    0.314858097   11.954108125   13.618677793   10.553122027
    0.322036728   11.957802098   13.623210620   10.556392037
    0.329215359   11.961582139   13.627849207   10.559738231
    0.336393990   11.965448440   13.632593797   10.563160777
    0.343572621   11.969401194   13.637444641   10.566659847
    0.350751252   11.973440602   13.642401993   10.570235617
    0.357929883   11.977566869   13.647466116   10.573888269
    0.365108514   11.981780204   13.652637277   10.577617986
    0.372287145   11.986080819   13.657915750   10.581424958
    0.379465776   11.990468935   13.663301815   10.585309377
    0.386644407   11.994944774   13.668795757   10.589271439
    0.393823038   11.999508565   13.674397870   10.593311348
    0.401001669   12.004160539   13.680108450   10.597429307
    0.408180301   12.008900937   13.685927803   10.601625527
    0.415358932   12.013729999   13.691856239   10.605900222
    0.422537563   12.018647974   13.697894076   10.610253611
    0.429716194   12.023655115   13.704041637   10.614685916
    0.436894825   12.028751679   13.710299252   10.619197364
    0.444073456   12.033937928   13.716667257   10.623788188
    0.451252087   12.039214131   13.723145996   10.628458623
    0.458430718   12.044580561   13.729735818   10.633208910
    0.465609349   12.050037495   13.736437079   10.638039294
    0.472787980   12.055585217   13.743250142   10.642950026
    0.479966611   12.061224016   13.750175377   10.647941358
    0.487145242   12.066954184   13.757213160   10.653013551
    0.494323873   12.072776022   13.764363873   10.658166868
    0.501502504   12.078689834   13.771627908   10.663401578
    0.508681135   12.084695929   13.779005661   10.668717953
    0.515859766   12.090794624   13.786497537   10.674116271
    0.523038397   12.096986238   13.794103946   10.679596816
    0.530217028   12.103271098   13.801825307   10.685159875
    0.537395659   12.109649537   13.809662045   10.690805739
    0.544574290   12.116121892   13.817614593   10.696534708
    0.551752922   12.122688506   13.825683391   10.702347083
    0.558931553   12.129349729   13.833868886   10.708243172
    0.566110184   12.136105915   13.842171534   10.714223288
    0.573288815   12.142957425   13.850591797   10.720287748
    0.580467446   12.149904625   13.859130145   10.726436875
    0.587646077   12.156947889   13.867787056   10.732670997
    0.594824708   12.164087596   13.876563016   10.738990448
    0.602003339   12.171324129   13.885458517   10.745395566
    0.609181970   12.178657880   13.894474061   10.751886697
    0.616360601   12.186089245   13.903610157   10.758464188
    0.623539232   12.193618629   13.912867322   10.765128396
    0.630717863   12.201246441   13.922246083   10.771879680
    0.637896494   12.208973097   13.931746972   10.778718408
    0.645075125   12.216799019   13.941370532   10.785644950
    0.652253756   12.224724637   13.951117312   10.792659684
    0.659432387   12.232750385   13.960987873   10.799762994
    0.666611018   12.240876708   13.970982781   10.806955269
    0.673789649   12.249104052   13.981102612   10.814236903
    0.680968280   12.257432875   13.991347952   10.821608297
    0.688146912   12.265863638   14.001719394   10.829069859
    0.695325543   12.274396813   14.012217540   10.836622001
    0.702504174   12.283032874   14.022843003   10.844265142
    0.709682805   12.291772306   14.033596404   10.851999707
    0.716861436   12.300615600   14.044478372   10.859826129
    0.724040067   12.309563253   14.055489547   10.867744844
    0.731218698   12.318615773   14.066630578   10.875756297
    0.738397329   12.327773670   14.077902123   10.883860940
    0.745575960   12.337037466   14.089304851   10.892059228
    0.752754591   12.346407689   14.100839441   10.900351626
    0.759933222   12.355884875   14.112506579   10.908738604
    0.767111853   12.365469566   14.124306963   10.917220640
    0.774290484   12.375162315   14.136241303   10.925798218
    0.781469115   12.384963680   14.148310316   10.934471829
    0.788647746   12.394874229   14.160514730   10.943241971
    0.795826377   12.404894538   14.172855287   10.952109148
    0.803005008   12.415025189   14.185332734   10.961073874
    0.810183639   12.425266776   14.197947833   10.970136669
    0.817362270   12.435619898   14.210701356   10.979298057
    0.824540902   12.446085165   14.223594086   10.988558575
    0.831719533   12.456663195   14.236626815   10.997918764
    0.838898164   12.467354613   14.249800350   11.007379174
    0.846076795   12.478160055   14.263115507   11.016940361
    0.853255426   12.489080167   14.276573114   11.026602890
    0.860434057   12.500115600   14.290174011   11.036367335
    0.867612688   12.511267018   14.303919051   11.046234276
    0.874791319   12.522535093   14.317809097   11.056204303
    0.881969950   12.533920506   14.331845026   11.066278011
    0.889148581   12.545423949   14.346027726   11.076456008
    0.896327212   12.557046122   14.360358099   11.086738906
    0.903505843   12.568787736   14.374837058   11.097127327
    0.910684474   12.580649511   14.389465531   11.107621904
    0.917863105   12.592632179   14.404244457   11.118223275
    0.925041736   12.604736480   14.419174789   11.128932090
    0.932220367   12.616963165   14.434257495   11.139749005
    0.939398998   12.629312998   14.449493554   11.150674688
    0.946577629   12.641786749   14.464883961   11.161709814
    0.953756260   12.654385203   14.480429723   11.172855068
    0.960934891   12.667109154   14.496131863   11.184111146
    0.968113523   12.679959407   14.511991418   11.195478751
    0.975292154   12.692936780   14.528009438   11.206958598
    0.982470785   12.706042101   14.544186990   11.218551410
    0.989649416   12.719276210   14.560525154   11.230257921
    0.996828047   12.732639959   14.577025028   11.242078876
    1.004006678   12.746134211   14.593687723   11.254015028
    1.011185309   12.759759843   14.610514366   11.266067142
    1.018363940   12.773517744   14.627506101   11.278235995
    1.025542571   12.787408813   14.644664087   11.290522371
    1.032721202   12.801433965   14.661989501   11.302927067
    1.039899833   12.815594116   14.679483533   11.315450891
    1.047078464   12.829890177   14.697147388   11.328094655
    1.054257095   12.844323044   14.714982286   11.340859182
    1.061435726   12.858893729   14.732989476   11.353745321
    1.068614357   12.873603345   14.751170239   11.366753947
    1.075792988   12.888452860   14.769525852   11.379885924
    1.082971619   12.903443233   14.788057605   11.393142120
    1.090150250   12.918575469   14.806766811   11.406523421
    1.097328881   12.933850601   14.825654805   11.420030730
    1.104507513   12.949269678   14.844722941   11.433664962
    1.111686144   12.964833768   14.863972593   11.447427043
    1.118864775   12.980543952   14.883405152   11.461317914
    1.126043406   12.996401326   14.903022033   11.475338530
    1.133222037   13.012407002   14.922824668   11.489489858
    1.140400668   13.028562110   14.942814512   11.503772877
    1.147579299   13.044867792   14.962993038   11.518188583
    1.154757930   13.061325209   14.983361744   11.532737984
    1.161936561   13.077935540   15.003922146   11.547422103
    1.169115192   13.094699977   15.024675784   11.562241977
    1.176293823   13.111619734   15.045624221   11.577198658
    1.183472454   13.128696037   15.066769041   11.592293213
    1.190651085   13.145930136   15.088111852   11.607526723
    1.197829716   13.163323294   15.109654285   11.622900287
    1.205008347   13.180876795   15.131397995   11.638415017
    1.212186978   13.198591941   15.153344661   11.654072042
    1.219365609   13.216470054   15.175495989   11.669872508
    1.226544240   13.234512475   15.197853706   11.685817576
    1.233722871   13.252720565   15.220419569   11.701908425
    1.240901503   13.271095704   15.243195357   11.718146250
    1.248080134   13.289639293   15.266182878   11.734532264
    1.255258765   13.308352753   15.289383965   11.751067697
    1.262437396   13.327237519   15.312800474   11.767753791
    1.269616027   13.346295035   15.336434279   11.784591797
    1.276794658   13.365526758   15.360287276   11.801582980
    1.283973289   13.384934255   15.384361454   11.818728685
    1.291151920   13.404519110   15.408658826   11.836030272
    1.298330551   13.424282850   15.433181377   11.853489063
    1.305509182   13.444227031   15.457931128   11.871106403
    1.312687813   13.464353247   15.482910140   11.888883672
    1.319866444   13.484663125   15.508120510   11.906822271
    1.327045075   13.505158314   15.533564370   11.924923623
    1.334223706   13.525840492   15.559243881   11.943189172
    1.341402337   13.546711362   15.585161238   11.961620383
    1.348580968   13.567772650   15.611318664   11.980218737
    1.355759599   13.589026112   15.637718420   11.998985741
    1.362938230   13.610473531   15.664362822   12.017922946
    1.370116861   13.632116718   15.691254214   12.037031917
    1.377295492   13.653957511   15.718394959   12.056314227
    1.384474124   13.675997776   15.745787464   12.075771475
    1.391652755   13.698239411   15.773434173   12.095405288
    1.398831386   13.720684341   15.801337571   12.115217321
    1.406010017   13.743334523   15.829500184   12.135209253
    1.413188648   13.766191946   15.857924577   12.155382789
    1.420367279   13.789258629   15.886613355   12.175739661
    1.427545910   13.812536625   15.915569165   12.196281627
    1.434724541   13.836028019   15.944794699   12.217010473
    1.441903172   13.859734930   15.974292688   12.237928013
    1.449081803   13.883659512   16.004065911   12.259036090
    1.456260434   13.907803952   16.034117191   12.280336575
    1.463439065   13.932170476   16.064449396   12.301831369
    1.470617696   13.956761344   16.095065442   12.323522404
    1.477796327   13.981578854   16.125968293   12.345411641
    1.484974958   14.006625342   16.157160960   12.367501075
    1.492153589   14.031903184   16.188646507   12.389792731
    1.499332220   14.057414794   16.220428046   12.412288667
    1.506510851   14.083162627   16.252508742   12.434990975
    1.513689482   14.109149180   16.284891815   12.457901781
    1.520868114   14.135376992   16.317580537   12.481023245
    1.528046745   14.161848645   16.350578235   12.504357563
    1.535225376   14.188566766   16.383888295   12.527906967
    1.542404007   14.215534023   16.417514157   12.551673726
    1.549582638   14.242753131   16.451459323   12.575660147
    1.556761269   14.270226846   16.485727353   12.599868575
    1.563939900   14.297957988   16.520321869   12.624301394
    1.571118531   14.325949430   16.555246549   12.648961027
    1.578297162   14.354204078   16.590505144   12.673849938
    1.585475793   14.382724902   16.626101485   12.698970641
    1.592654424   14.411514917   16.662039459   12.724325688
    1.599833055   14.440577189   16.698323009   12.749917670
    1.607011686   14.469914840   16.734956155   12.775749226
    1.614190317   14.499531051   16.771942988   12.801823038
    1.621368948   14.529429061   16.809287670   12.828141833
    1.628547579   14.559612168   16.846994425   12.854708374
    1.635726210   14.590083730   16.885067559   12.881525477
    1.642904841   14.620847168   16.923511514   12.908596060
    1.650083472   14.651905965   16.962330794   12.935923075
    1.657262104   14.683263669   17.001529939   12.963509485
    1.664440735   14.714923895   17.041113580   12.991358311
    1.671619366   14.746890326   17.081086445   13.019472640
    1.678797997   14.779166714   17.121453352   13.047855616
    1.685976628   14.811756883   17.162219211   13.076510441
    1.693155259   14.844664731   17.203389024   13.105440376
    1.700333890   14.877894228   17.244967888   13.134648742
    1.707512521   14.911449424   17.286960997   13.164138920
    1.714691152   14.945334440   17.329373643   13.193914352
    1.721869783   14.979553469   17.372211215   13.223978543
    1.729048414   15.014110806   17.415479216   13.254335069
    1.736227045   15.049010867   17.459183268   13.284987585
    1.743405676   15.084258117   17.503329088   13.315939804
    1.750584307   15.119857085   17.547922498   13.347195492
    1.757762938   15.155812386   17.592969428   13.378758475
    1.764941569   15.192128750   17.638475938   13.410632674
    1.772120200   15.228811080   17.684448249   13.442822169
    1.779298831   15.265864334   17.730892683   13.475331065
    1.786477462   15.303293528   17.777815664   13.508163498
    1.793656093   15.341103794   17.825223758   13.541323700
    1.800834725   15.379300381   17.873123670   13.574816002
    1.808013356   15.417888652   17.921522245   13.608644821
    1.815191987   15.456874084   17.970426468   13.642814666
    1.822370618   15.496262275   18.019843472   13.677330134
    1.829549249   15.536058940   18.069780532   13.712195914
    1.836727880   15.576269921   18.120245097   13.747416804
    1.843906511   15.616901185   18.171244783   13.782997706
    1.851085142   15.657958813   18.222787344   13.818943605
    1.858263773   15.699449036   18.274880704   13.855259593
    1.865442404   15.741378286   18.327532967   13.891950885
    1.872621035   15.783753092   18.380752415   13.929022800
    1.879799666   15.826580104   18.434547508   13.966480762
    1.886978297   15.869866133   18.488926898   14.004330316
    1.894156928   15.913618158   18.543899427   14.042577127
    1.901335559   15.957843319   18.599474126   14.081226977
    1.908514190   16.002548928   18.655660226   14.120285770
    1.915692821   16.047742466   18.712467212   14.159759575
    1.922871452   16.093431596   18.769904811   14.199654616
    1.930050083   16.139624162   18.827982915   14.239977210
    1.937228715   16.186328200   18.886711643   14.280733812
    1.944407346   16.233551940   18.946101364   14.321931038
    1.951585977   16.281303818   19.006162699   14.363575656
    1.958764608   16.329592477   19.066906525   14.405674597
    1.965943239   16.378426777   19.128343978   14.448234951
    1.973121870   16.427815802   19.190486469   14.491263972
    1.980300501   16.477768865   19.253345684   14.534769082
    1.987479132   16.528295517   19.316933601   14.578757873
    1.994657763   16.579405570   19.381262496   14.623238172
    2.001836394   16.631109092   19.446344951   14.668217997
    2.009015025   16.683416406   19.512193869   14.713705513
    2.016193656   16.736338111   19.578822479   14.759709095
    2.023372287   16.789885090   19.646244353   14.806237334
    2.030550918   16.844068517   19.714473411   14.853299041
    2.037729549   16.898899882   19.783523939   14.900903256
    2.044908180   16.954391004   19.853410591   14.949059256
    2.052086811   17.010553979   19.924148380   14.997776554
    2.059265442   17.067401277   19.995752757   15.047064913
    2.066444073   17.124945840   20.068239718   15.096934353
    2.073622705   17.183200894   20.141625599   15.147395163
    2.080801336   17.242179989   20.215927109   15.198457905
    2.087979967   17.301897094   20.291161431   15.250133417
    2.095158598   17.362366587   20.367346230   15.302432827
    2.102337229   17.423603310   20.444499812   15.355367647
    2.109515860   17.485622483   20.522640990   15.408949709
    2.116694491   17.548439772   20.601788869   15.463191058
    2.123873122   17.612071698   20.681962985   15.518104067
    2.131051753   17.676535129   20.763183758   15.573701632
    2.138230384   17.741847220   20.845472434   15.629997182
    2.145409015   17.808025802   20.928850804   15.687004288
    2.152587646   17.875089455   21.013341980   15.744736884
    2.159766277   17.943057158   21.098968852   15.803209366
    2.166944908   18.011948456   21.185754772   15.862436580
    2.174123539   18.081783741   21.273724088   15.922433858
    2.181302170   18.152584193   21.362902043   15.983217040
    2.188480801   18.224371545   21.453314771   16.044802514
    2.195659432   18.297168270   21.544989220   16.107207145
    2.202838063   18.370997664   21.637953152   16.170448281
    2.210016694   18.445883899   21.732235337   16.234543889
    2.217195326   18.521852058   21.827865621   16.299512584
    2.224373957   18.598928058   21.924874735   16.365373556
    2.231552588   18.677138832   22.023294448   16.432146653
    2.238731219   18.756512504   22.123157687   16.499852471
    2.245909850   18.837078140   22.224498534   16.568512297
    2.253088481   18.918865861   22.327352287   16.638148158
    2.260267112   19.001907015   22.431755527   16.708782888
    2.267445743   19.086234241   22.537746206   16.780440170
    2.274624374   19.171881529   22.645363730   16.853144574
    2.281803005   19.258884259   22.754648952   16.926921600
    2.288981636   19.347279282   22.865644225   17.001797725
    2.296160267   19.437104980   22.978393379   17.077800456
    2.303338898   19.528401296   23.092941569   17.154958383
    2.310517529   19.621209963   23.209336054   17.233301276
    2.317696160   19.715575116   23.327627949   17.312860146
    2.324874791   19.811542839   23.447869927   17.393667236
    2.332053422   19.909160786   23.570114962   17.475756072
    2.339232053   20.008478879   23.694418354   17.559161438
    2.346410684   20.109549560   23.820838263   17.643919507
    2.353589316   20.212427948   23.949436303   17.730068893
    2.360767947   20.317171862   24.080276809   17.817649857
    2.367946578   20.423842079   24.213426251   17.906704463
    2.375125209   20.532502600   24.348954318   17.997277169
    2.382303840   20.643220599   24.486933980   18.089413528
    2.389482471   20.756066803   24.627441724   18.183161260
    2.396661102   20.871115840   24.770557838   18.278570718
    2.403839733   20.988446528   24.916366596   18.375694911
    2.411018364   21.108142207   25.064956439   18.474589731
    2.418196995   21.230291009   25.216420306   18.575314061
    2.425375626   21.354986222   25.370856209   18.677929851
    2.432554257   21.482326822   25.528367970   18.782502548
    2.439732888   21.612417899   25.689064678   18.889101294
    2.446911519   21.745371200   25.853061223   18.997799367
    2.454090150   21.881305497   26.020479067   19.108674153
    2.461268781   22.020347058   26.191446806   19.221807401
    2.468447412   22.162630235   26.366100800   19.337285926
    2.475626043   22.308298677   26.544585734   19.455202957
    2.482804674   22.457508768   26.727055676   19.575658046
    2.489983306   22.610430127   26.913674949   19.698757373
    2.497161937   22.767240663   27.104617958   19.824613391
    2.504340568   22.928131110   27.300070734   19.953346425
    2.511519199   23.093308084   27.500232357   20.085085827
    2.518697830   23.262995298   27.705316135   20.219970691
    2.525876461   23.437435084   27.915550824   20.358150612
    2.533055092   23.616890361   28.131181926   20.499786313
    2.540233723   23.801647003   28.352473580   20.645051097
