# energy grid [eV]     epsr_x  epsr_y  epsr_z
#
    0.200000000   27.151619128   25.505746178   27.061795906
    0.207178631   27.159648792   25.513200920   27.069789394
    0.214357262   27.167967040   25.520923525   27.078070161
    0.221535893   27.176574445   25.528914517   27.086638776
    0.228714524   27.185471600   25.537174440   27.095495830
    0.235893155   27.194659119   25.545703860   27.104641934
    0.243071786   27.204137638   25.554503357   27.114077719
    0.250250417   27.213907813   25.563573535   27.123803839
    0.257429048   27.223970320   25.572915013   27.133820965
    0.264607679   27.234325858   25.582528432   27.144129793
    0.271786311   27.244975147   25.592414453   27.154731038
    0.278964942   27.255918926   25.602573754   27.165625437
    0.286143573   27.267157958   25.613007034   27.176813748
    0.293322204   27.278693027   25.623715013   27.188296751
    0.300500835   27.290524939   25.634698430   27.200075246
    0.307679466   27.302654522   25.645958043   27.212150058
    0.314858097   27.315082625   25.657494633   27.224522032
    0.322036728   27.327810121   25.669308998   27.237192034
    0.329215359   27.340837903   25.681401959   27.250160955
    0.336393990   27.354166890   25.693774358   27.263429706
    0.343572621   27.367798022   25.706427055   27.276999223
    0.350751252   27.381732260   25.719360934   27.290870464
    0.357929883   27.395970590   25.732576899   27.305044407
    0.365108514   27.410514023   25.746075875   27.319522058
    0.372287145   27.425363591   25.759858809   27.334304444
    0.379465776   27.440520350   25.773926669   27.349392615
    0.386644407   27.455985381   25.788280445   27.364787645
    0.393823038   27.471759788   25.802921151   27.380490634
    0.401001669   27.487844699   25.817849821   27.396502702
    0.408180301   27.504241268   25.833067511   27.412824999
    0.415358932   27.520950674   25.848575302   27.429458694
    0.422537563   27.537974117   25.864374296   27.446404985
    0.429716194   27.555312828   25.880465618   27.463665092
    0.436894825   27.572968059   25.896850418   27.481240263
    0.444073456   27.590941090   25.913529867   27.499131769
    0.451252087   27.609233225   25.930505161   27.517340908
    0.458430718   27.627845796   25.947777521   27.535869005
    0.465609349   27.646780161   25.965348190   27.554717410
    0.472787980   27.666037704   25.983218437   27.573887500
    0.479966611   27.685619836   26.001389555   27.593380677
    0.487145242   27.705527996   26.019862861   27.613198373
    0.494323873   27.725763650   26.038639700   27.633342047
    0.501502504   27.746328292   26.057721438   27.653813183
    0.508681135   27.767223444   26.077109472   27.674613295
    0.515859766   27.788450657   26.096805219   27.695743926
    0.523038397   27.810011510   26.116810128   27.717206646
    0.530217028   27.831907610   26.137125671   27.739003054
    0.537395659   27.854140597   26.157753348   27.761134778
    0.544574290   27.876712137   26.178694685   27.783603479
    0.551752922   27.899623927   26.199951236   27.806410842
    0.558931553   27.922877696   26.221524584   27.829558587
    0.566110184   27.946475202   26.243416339   27.853048462
    0.573288815   27.970418235   26.265628139   27.876882248
    0.580467446   27.994708617   26.288161651   27.901061756
    0.587646077   28.019348200   26.311018571   27.925588828
    0.594824708   28.044338870   26.334200625   27.950465340
    0.602003339   28.069682540   26.357709569   27.975693198
    0.609181970   28.095381149   26.381547187   28.001274340
    0.616360601   28.121436655   26.405715297   28.027210725
    0.623539232   28.147851098   26.430215744   28.053504330
    0.630717863   28.174626589   26.455050407   28.080157211
    0.637896494   28.201765202   26.480221197   28.107171518
    0.645075125   28.229269034   26.505730055   28.134549357
    0.652253756   28.257140245   26.531578957   28.162292846
    0.659432387   28.285381034   26.557769910   28.190404158
    0.666611018   28.313993618   26.584304953   28.218885510
    0.673789649   28.342980241   26.611186153   28.247739155
    0.680968280   28.372343201   26.638415591   28.276967382
    0.688146912   28.402084902   26.665995373   28.306572508
    0.695325543   28.432207734   26.693927705   28.336556882
    0.702504174   28.462714088   26.722214866   28.366922932
    0.709682805   28.493606416   26.750859131   28.397673142
    0.716861436   28.524887226   26.779862719   28.428809980
    0.724040067   28.556559036   26.809227950   28.460335936
    0.731218698   28.588624393   26.838957255   28.492253596
    0.738397329   28.621085961   26.869053027   28.524565573
    0.745575960   28.653946475   26.899517673   28.557274573
    0.752754591   28.687208625   26.930353655   28.590383307
    0.759933222   28.720875143   26.961563490   28.623894480
    0.767111853   28.754948844   26.993149734   28.657810857
    0.774290484   28.789432563   27.025114986   28.692135261
    0.781469115   28.824329179   27.057461886   28.726870567
    0.788647746   28.859641626   27.090193119   28.762019694
    0.795826377   28.895372887   27.123311407   28.797585609
    0.803005008   28.931525994   27.156819521   28.833571329
    0.810183639   28.968104027   27.190720273   28.869979915
    0.817362270   29.005110116   27.225016520   28.906814479
    0.824540902   29.042547441   27.259711165   28.944078184
    0.831719533   29.080419233   27.294807158   28.981774241
    0.838898164   29.118728773   27.330307493   29.019905914
    0.846076795   29.157479397   27.366215216   29.058476520
    0.853255426   29.196674492   27.402533416   29.097489426
    0.860434057   29.236317500   27.439265236   29.136948055
    0.867612688   29.276411920   27.476413867   29.176855885
    0.874791319   29.316961304   27.513982549   29.217216449
    0.881969950   29.357969261   27.551974576   29.258033336
    0.889148581   29.399439461   27.590393293   29.299310193
    0.896327212   29.441375629   27.629242100   29.341050725
    0.903505843   29.483781551   27.668524448   29.383258697
    0.910684474   29.526661075   27.708243845   29.425937933
    0.917863105   29.570018109   27.748403855   29.469092321
    0.925041736   29.613856624   27.789008098   29.512725808
    0.932220367   29.658180656   27.830060253   29.556842406
    0.939398998   29.702994304   27.871564055   29.601446193
    0.946577629   29.748301735   27.913523302   29.646541309
    0.953756260   29.794107182   27.955941850   29.692131965
    0.960934891   29.840414945   27.998823618   29.738222436
    0.968113523   29.887229397   28.042172589   29.784817068
    0.975292154   29.934554978   28.085992807   29.831920278
    0.982470785   29.982396202   28.130288384   29.879536552
    0.989649416   30.030757656   28.175063496   29.927670452
    0.996828047   30.079644000   28.220322388   29.976326610
    1.004006678   30.129059973   28.266069371   30.025509737
    1.011185309   30.179010388   28.312308828   30.075224620
    1.018363940   30.229500138   28.359045213   30.125476122
    1.025542571   30.280534195   28.406283050   30.176269188
    1.032721202   30.332117615   28.454026939   30.227608842
    1.039899833   30.384255534   28.502281554   30.279500192
    1.047078464   30.436953173   28.551051645   30.331948428
    1.054257095   30.490215841   28.600342038   30.384958829
    1.061435726   30.544048933   28.650157642   30.438536757
    1.068614357   30.598457934   28.700503443   30.492687666
    1.075792988   30.653448419   28.751384510   30.547417098
    1.082971619   30.709026056   28.802805996   30.602730688
    1.090150250   30.765196609   28.854773139   30.658634166
    1.097328881   30.821965935   28.907291264   30.715133356
    1.104507513   30.879339993   28.960365783   30.772234180
    1.111686144   30.937324839   29.014002198   30.829942661
    1.118864775   30.995926633   29.068206106   30.888264919
    1.126043406   31.055151637   29.122983194   30.947207182
    1.133222037   31.115006220   29.178339245   31.006775782
    1.140400668   31.175496859   29.234280141   31.066977155
    1.147579299   31.236630142   29.290811861   31.127817852
    1.154757930   31.298412767   29.347940486   31.189304532
    1.161936561   31.360851548   29.405672200   31.251443967
    1.169115192   31.423953418   29.464013292   31.314243050
    1.176293823   31.487725425   29.522970159   31.377708787
    1.183472454   31.552174742   29.582549305   31.441848309
    1.190651085   31.617308666   29.642757349   31.506668867
    1.197829716   31.683134619   29.703601020   31.572177842
    1.205008347   31.749660153   29.765087166   31.638382740
    1.212186978   31.816892953   29.827222754   31.705291200
    1.219365609   31.884840838   29.890014868   31.772910993
    1.226544240   31.953511765   29.953470720   31.841250031
    1.233722871   32.022913831   30.017597645   31.910316361
    1.240901503   32.093055276   30.082403108   31.980118174
    1.248080134   32.163944489   30.147894705   32.050663808
    1.255258765   32.235590005   30.214080167   32.121961748
    1.262437396   32.308000516   30.280967360   32.194020633
    1.269616027   32.381184866   30.348564292   32.266849254
    1.276794658   32.455152062   30.416879112   32.340456563
    1.283973289   32.529911272   30.485920117   32.414851674
    1.291151920   32.605471832   30.555695752   32.490043866
    1.298330551   32.681843248   30.626214615   32.566042587
    1.305509182   32.759035198   30.697485458   32.642857457
    1.312687813   32.837057542   30.769517195   32.720498276
    1.319866444   32.915920318   30.842318901   32.798975022
    1.327045075   32.995633753   30.915899817   32.878297858
    1.334223706   33.076208262   30.990269354   32.958477138
    1.341402337   33.157654457   31.065437099   33.039523408
    1.348580968   33.239983147   31.141412815   33.121447411
    1.355759599   33.323205346   31.218206446   33.204260095
    1.362938230   33.407332275   31.295828124   33.287972611
    1.370116861   33.492375370   31.374288170   33.372596326
    1.377295492   33.578346284   31.453597100   33.458142820
    1.384474124   33.665256893   31.533765630   33.544623899
    1.391652755   33.753119303   31.614804678   33.632051593
    1.398831386   33.841945854   31.696725372   33.720438165
    1.406010017   33.931749123   31.779539053   33.809796117
    1.413188648   34.022541935   31.863257280   33.900138194
    1.420367279   34.114337367   31.947891839   33.991477392
    1.427545910   34.207148750   32.033454740   34.083826961
    1.434724541   34.300989683   32.119958232   34.177200413
    1.441903172   34.395874032   32.207414802   34.271611531
    1.449081803   34.491815941   32.295837185   34.367074371
    1.456260434   34.588829838   32.385238366   34.463603270
    1.463439065   34.686930442   32.475631592   34.561212857
    1.470617696   34.786132770   32.567030371   34.659918055
    1.477796327   34.886452145   32.659448485   34.759734092
    1.484974958   34.987904203   32.752899995   34.860676506
    1.492153589   35.090504903   32.847399246   34.962761156
    1.499332220   35.194270533   32.942960875   35.066004229
    1.506510851   35.299217719   33.039599822   35.170422247
    1.513689482   35.405363436   33.137331332   35.276032079
    1.520868114   35.512725015   33.236170969   35.382850946
    1.528046745   35.621320154   33.336134620   35.490896436
    1.535225376   35.731166928   33.437238504   35.600186509
    1.542404007   35.842283796   33.539499184   35.710739509
    1.549582638   35.954689617   33.642933575   35.822574177
    1.556761269   36.068403660   33.747558950   35.935709658
    1.563939900   36.183445614   33.853392959   36.050165518
    1.571118531   36.299835604   33.960453630   36.165961753
    1.578297162   36.417594200   34.068759388   36.283118806
    1.585475793   36.536742433   34.178329061   36.401657572
    1.592654424   36.657301794   34.289181882   36.521599405
    1.599833055   36.779294184   34.401337463   36.642966067
    1.607011686   36.902741688   34.514815639   36.765779505
    1.614190317   37.027665981   34.629636066   36.890061265
    1.621368948   37.154088891   34.745818611   37.015833080
    1.628547579   37.282035446   34.863385559   37.143119943
    1.635726210   37.411530781   34.982359445   37.271946755
    1.642904841   37.542602360   35.102764195   37.402340310
    1.650083472   37.675277902   35.224623855   37.534328149
    1.657262104   37.809583406   35.347961543   37.667936655
    1.664440735   37.945544328   35.472800407   37.803191218
    1.671619366   38.083187126   35.599164382   37.940117910
    1.678797997   38.222539634   35.727078293   38.078744294
    1.685976628   38.363630244   35.856567188   38.219098571
    1.693155259   38.506487702   35.987656206   38.361209320
    1.700333890   38.651142563   36.120372957   38.505107153
    1.707512521   38.797627477   36.254747469   38.650824499
    1.714691152   38.945974708   36.390808271   38.798393124
    1.721869783   39.096216653   36.528584252   38.947845095
    1.729048414   39.248386154   36.668104734   39.099213089
    1.736227045   39.402516928   36.809399554   39.252530650
    1.743405676   39.558643888   36.952499609   39.407832747
    1.750584307   39.716802675   37.097436482   39.565154945
    1.757762938   39.877029558   37.244241874   39.724533211
    1.764941569   40.039361720   37.392948030   39.886004178
    1.772120200   40.203839032   37.543590985   40.049607066
    1.779298831   40.370501721   37.696207503   40.215382050
    1.786477462   40.539390082   37.850833114   40.383370284
    1.793656093   40.710547272   38.007505304   40.553614072
    1.800834725   40.884016492   38.166260256   40.726154357
    1.808013356   41.059841169   38.327135872   40.901034579
    1.815191987   41.238067186   38.490177028   41.078302841
    1.822370618   41.418742351   38.655428298   41.258007166
    1.829549249   41.601914748   38.822929572   41.440193377
    1.836727880   41.787632320   38.992721913   41.624908493
    1.843906511   41.975944442   39.164849828   41.812201573
    1.851085142   42.166901996   39.339359332   42.002124584
    1.858263773   42.360558642   39.516297560   42.194732535
    1.865442404   42.556971889   39.695712772   42.390080100
    1.872621035   42.756198651   39.877654537   42.588222463
    1.879799666   42.958296088   40.062174418   42.789217397
    1.886978297   43.163323707   40.249325548   42.993124883
    1.894156928   43.371342984   40.439162046   43.200005939
    1.901335559   43.582417296   40.631739592   43.409923349
    1.908514190   43.796611963   40.827115601   43.622941942
    1.915692821   44.013994281   41.025349212   43.839128553
    1.922871452   44.234633578   41.226501331   44.058552052
    1.930050083   44.458601296   41.430634682   44.281283408
    1.937228715   44.685971070   41.637813881   44.507395772
    1.944407346   44.916818817   41.848105507   44.736964558
    1.951585977   45.151222825   42.061578179   44.970067540
    1.958764608   45.389263852   42.278302639   45.206784943
    1.965943239   45.631025224   42.498351834   45.447199542
    1.973121870   45.876592941   42.721801004   45.691396771
    1.980300501   46.126055785   42.948727777   45.939464827
    1.987479132   46.379505440   43.179212266   46.191494788
    1.994657763   46.637036611   43.413337171   46.447580737
    2.001836394   46.898747151   43.651187884   46.707819881
    2.009015025   47.164738199   43.892852604   46.972312692
    2.016193656   47.435114317   44.138422457   47.241163046
    2.023372287   47.709983644   44.387991618   47.514478369
    2.030550918   47.989458048   44.641657444   47.792369794
    2.037729549   48.273653296   44.899520609   48.074952329
    2.044908180   48.562689225   45.161685256   48.362345023
    2.052086811   48.856689928   45.428259143   48.654671158
    2.059265442   49.155783947   45.699353809   48.952058433
    2.066444073   49.460104481   45.975084746   49.254639176
    2.073622705   49.769789597   46.255571573   49.562550554
    2.080801336   50.084982467   46.540938234   49.875934804
    2.087979967   50.405831604   46.831313192   50.194939473
    2.095158598   50.732491121   47.126829645   50.519717673
    2.102337229   51.065121002   47.427625752   50.850428352
    2.109515860   51.403887393   47.733844866   51.187236577
    2.116694491   51.748962901   48.045635791   51.530313846
    2.123873122   52.100526926   48.363153046   51.879838398
    2.131051753   52.458765997   48.686557148   52.235995568
    2.138230384   52.823874143   49.016014914   52.598978140
    2.145409015   53.196053278   49.351699776   52.968986739
    2.152587646   53.575513617   49.693792126   53.346230240
    2.159766277   53.962474111   50.042479667   53.730926206
    2.166944908   54.357162919   50.397957805   54.123301354
    2.174123539   54.759817908   50.760430047   54.523592051
    2.181302170   55.170687181   51.130108444   54.932044845
    2.188480801   55.590029648   51.507214048   55.348917030
    2.195659432   56.018115636   51.891977405   55.774477251
    2.202838063   56.455227532   52.284639086   56.209006149
    2.210016694   56.901660482   52.685450246   56.652797055
    2.217195326   57.357723134   53.094673226   57.106156729
    2.224373957   57.823738435   53.512582198   57.569406155
    2.231552588   58.300044488   53.939463854   58.042881391
    2.238731219   58.786995466   54.375618145   58.526934488
    2.245909850   59.284962604   54.821359075   59.021934469
    2.253088481   59.794335257   55.277015547   59.528268387
    2.260267112   60.315522045   55.742932284   60.046342468
    2.267445743   60.848952085   56.219470811   60.576583335
    2.274624374   61.395076316   56.707010513   61.119439334
    2.281803005   61.954368942   57.205949777   61.675381964
    2.288981636   62.527328976   57.716707227   62.244907426
    2.296160267   63.114481924   58.239723051   62.828538298
    2.303338898   63.716381601   58.775460442   63.426825346
    2.310517529   64.333612110   59.324407155   64.040349499
    2.317696160   64.966789981   59.887077193   64.669723983
    2.324874791   65.616566506   60.464012640   65.315596649
    2.332053422   66.283630273   61.055785646   65.978652510
    2.339232053   66.968709934   61.663000592   66.659616497
    2.346410684   67.672577213   62.286296443   67.359256470
    2.353589316   68.396050177   62.926349312   68.078386492
    2.360767947   69.139996710   63.583875251   68.817870347
    2.367946578   69.905338317   64.259633302   69.578625388
    2.375125209   70.693055445   64.954428936   70.361627548
    2.382303840   71.504192993   65.669117800   71.167916623
    2.389482471   72.339862702   66.404609508   71.998599471
    2.396661102   73.201249457   67.161872141   72.854856088
    2.403839733   74.089619284   67.941937245   73.737947366
    2.411018364   75.006327090   68.745905281   74.649223081
    2.418196995   75.952823935   69.574951554   75.590129118
    2.425375626   76.930664387   70.430332733   76.562214633
    2.432554257   77.941515457   71.313394062   77.567140925
    2.439732888   78.987168304   72.225577191   78.606693268
    2.446911519   80.069553158   73.168428904   79.682795688
    2.454090150   81.190755596   74.143613698   80.797528012
    2.461268781   82.353025536   75.152926268   81.953135447
    2.468447412   83.558792561   76.198298124   83.152041805
    2.475626043   84.810689353   77.281814247   84.396872508
    2.482804674   86.111573685   78.405732173   85.690478963
    2.489983306   87.464555215   79.572501915   87.035969214
    2.497161937   88.873025905   80.784779818   88.436735025
    2.504340568   90.340685058   82.045449047   89.896473564
    2.511519199   91.871581513   83.357658326   91.419227235
    2.518697830   93.470156368   84.724846986   93.009431678
    2.525876461   95.141293985   86.150782605   94.671973919
    2.533055092   96.890380611   87.639605599   96.412246713
    2.540233723   98.723355569   89.195852977   98.236197151
