# energy grid [eV]     ieps_x  ieps_y  ieps_z
#
    0.200000000   17.432606074   16.371399683   17.375904297
    0.207178631   17.427589620   16.366743248   17.370910399
    0.214357262   17.422399659   16.361925723   17.365743771
    0.221535893   17.417036538   16.356947427   17.360404760
    0.228714524   17.411500616   16.351808689   17.354893720
    0.235893155   17.405792262   16.346509847   17.349211020
    0.243071786   17.399911856   16.341051251   17.343357038
    0.250250417   17.393859791   16.335433261   17.337332163
    0.257429048   17.387636469   16.329656246   17.331136796
    0.264607679   17.381242302   16.323720586   17.324771348
    0.271786311   17.374677716   16.317626669   17.318236240
    0.278964942   17.367943145   16.311374896   17.311531906
    0.286143573   17.361039035   16.304965675   17.304658789
    0.293322204   17.353965841   16.298399425   17.297617342
    0.300500835   17.346724031   16.291676574   17.290408029
    0.307679466   17.339314081   16.284797561   17.283031325
    0.314858097   17.331736479   16.277762833   17.275487714
    0.322036728   17.323991723   16.270572847   17.267777692
    0.329215359   17.316080320   16.263228069   17.259901764
    0.336393990   17.308002788   16.255728975   17.251860445
    0.343572621   17.299759655   16.248076051   17.243654260
    0.350751252   17.291351460   16.240269789   17.235283743
    0.357929883   17.282778750   16.232310692   17.226749441
    0.365108514   17.274042082   16.224199274   17.218051907
    0.372287145   17.265142023   16.215936054   17.209191705
    0.379465776   17.256079150   16.207521563   17.200169410
    0.386644407   17.246854050   16.198956338   17.190985603
    0.393823038   17.237467317   16.190240927   17.181640877
    0.401001669   17.227919557   16.181375886   17.172135834
    0.408180301   17.218211383   16.172361777   17.162471085
    0.415358932   17.208343419   16.163199175   17.152647249
    0.422537563   17.198316296   16.153888658   17.142664954
    0.429716194   17.188130655   16.144430816   17.132524839
    0.436894825   17.177787146   16.134826247   17.122227549
    0.444073456   17.167286427   16.125075554   17.111773739
    0.451252087   17.156629165   16.115179350   17.101164072
    0.458430718   17.145816035   16.105138257   17.090399221
    0.465609349   17.134847721   16.094952902   17.079479865
    0.472787980   17.123724915   16.084623921   17.068406692
    0.479966611   17.112448316   16.074151957   17.057180398
    0.487145242   17.101018634   16.063537662   17.045801689
    0.494323873   17.089436583   16.052781692   17.034271275
    0.501502504   17.077702887   16.041884715   17.022589877
    0.508681135   17.065818279   16.030847401   17.010758223
    0.515859766   17.053783496   16.019670430   16.998777048
    0.523038397   17.041599286   16.008354489   16.986647093
    0.530217028   17.029266402   15.996900270   16.974369110
    0.537395659   17.016785605   15.985308474   16.961943854
    0.544574290   17.004157664   15.973579806   16.949372090
    0.551752922   16.991383353   15.961714979   16.936654590
    0.558931553   16.978463454   15.949714712   16.923792130
    0.566110184   16.965398757   15.937579732   16.910785496
    0.573288815   16.952190057   15.925310768   16.897635479
    0.580467446   16.938838155   15.912908560   16.884342876
    0.587646077   16.925343861   15.900373850   16.870908493
    0.594824708   16.911707988   15.887707388   16.857333138
    0.602003339   16.897931359   15.874909928   16.843617629
    0.609181970   16.884014798   15.861982233   16.829762789
    0.616360601   16.869959141   15.848925067   16.815769445
    0.623539232   16.855765224   15.835739202   16.801638432
    0.630717863   16.841433893   15.822425416   16.787370590
    0.637896494   16.826965997   15.808984490   16.772966764
    0.645075125   16.812362392   15.795417212   16.758427806
    0.652253756   16.797623938   15.781724373   16.743754571
    0.659432387   16.782751502   15.767906771   16.728947921
    0.666611018   16.767745954   15.753965206   16.714008723
    0.673789649   16.752608170   15.739900487   16.698937847
    0.680968280   16.737339031   15.725713422   16.683736169
    0.688146912   16.721939423   15.711404827   16.668404572
    0.695325543   16.706410236   15.696975523   16.652943940
    0.702504174   16.690752364   15.682426331   16.637355163
    0.709682805   16.674966706   15.667758081   16.621639136
    0.716861436   16.659054166   15.652971604   16.605796756
    0.724040067   16.643015650   15.638067735   16.589828927
    0.731218698   16.626852071   15.623047314   16.573736556
    0.738397329   16.610564343   15.607911183   16.557520552
    0.745575960   16.594153385   15.592660189   16.541181829
    0.752754591   16.577620120   15.577295182   16.524721307
    0.759933222   16.560965473   15.561817014   16.508139905
    0.767111853   16.544190375   15.546226542   16.491438548
    0.774290484   16.527295758   15.530524626   16.474618165
    0.781469115   16.510282557   15.514712127   16.457679686
    0.788647746   16.493151712   15.498789911   16.440624046
    0.795826377   16.475904165   15.482758846   16.423452181
    0.803005008   16.458540861   15.466619802   16.406165031
    0.810183639   16.441062745   15.450373653   16.388763539
    0.817362270   16.423470769   15.434021273   16.371248650
    0.824540902   16.405765885   15.417563542   16.353621311
    0.831719533   16.387949047   15.401001338   16.335882472
    0.838898164   16.370021212   15.384335544   16.318033084
    0.846076795   16.351983340   15.367567044   16.300074102
    0.853255426   16.333836390   15.350696725   16.282006483
    0.860434057   16.315581326   15.333725474   16.263831182
    0.867612688   16.297219113   15.316654180   16.245549162
    0.874791319   16.278750716   15.299483735   16.227161381
    0.881969950   16.260177104   15.282215032   16.208668805
    0.889148581   16.241499245   15.264848964   16.190072396
    0.896327212   16.222718110   15.247386426   16.171373120
    0.903505843   16.203834671   15.229828316   16.152571944
    0.910684474   16.184849900   15.212175531   16.133669835
    0.917863105   16.165764771   15.194428968   16.114667763
    0.925041736   16.146580258   15.176589528   16.095566698
    0.932220367   16.127297338   15.158658111   16.076367608
    0.939398998   16.107916985   15.140635618   16.057071467
    0.946577629   16.088440178   15.122522950   16.037679245
    0.953756260   16.068867891   15.104321008   16.018191914
    0.960934891   16.049201104   15.086030696   15.998610447
    0.968113523   16.029440793   15.067652916   15.978935816
    0.975292154   16.009587937   15.049188571   15.959168995
    0.982470785   15.989643512   15.030638563   15.939310956
    0.989649416   15.969608497   15.012003797   15.919362672
    0.996828047   15.949483870   14.993285173   15.899325115
    1.004006678   15.929270607   14.974483596   15.879199259
    1.011185309   15.908969685   14.955599968   15.858986074
    1.018363940   15.888582082   14.936635191   15.838686534
    1.025542571   15.868108772   14.917590166   15.818301608
    1.032721202   15.847550732   14.898465795   15.797832267
    1.039899833   15.826908935   14.879262979   15.777279481
    1.047078464   15.806184356   14.859982617   15.756644219
    1.054257095   15.785377966   14.840625608   15.735927448
    1.061435726   15.764490739   14.821192852   15.715130136
    1.068614357   15.743523644   14.801685244   15.694253249
    1.075792988   15.722477651   14.782103682   15.673297750
    1.082971619   15.701353729   14.762449060   15.652264604
    1.090150250   15.680152843   14.742722273   15.631154773
    1.097328881   15.658875959   14.722924214   15.609969217
    1.104507513   15.637524042   14.703055773   15.588708895
    1.111686144   15.616098053   14.683117841   15.567374764
    1.118864775   15.594598953   14.663111307   15.545967781
    1.126043406   15.573027700   14.643037057   15.524488899
    1.133222037   15.551385251   14.622895976   15.502939071
    1.140400668   15.529672561   14.602688949   15.481319247
    1.147579299   15.507890584   14.582416857   15.459630374
    1.154757930   15.486040269   14.562080580   15.437873400
    1.161936561   15.464122565   14.541680996   15.416049267
    1.169115192   15.442138419   14.521218980   15.394158918
    1.176293823   15.420088774   14.500695408   15.372203292
    1.183472454   15.397974573   14.480111150   15.350183327
    1.190651085   15.375796753   14.459467077   15.328099956
    1.197829716   15.353556252   14.438764055   15.305954111
    1.205008347   15.331254004   14.418002950   15.283746723
    1.212186978   15.308890940   14.397184625   15.261478717
    1.219365609   15.286467988   14.376309938   15.239151018
    1.226544240   15.263986074   14.355379748   15.216764547
    1.233722871   15.241446121   14.334394911   15.194320223
    1.240901503   15.218849048   14.313356278   15.171818961
    1.248080134   15.196195773   14.292264699   15.149261673
    1.255258765   15.173487210   14.271121021   15.126649269
    1.262437396   15.150724268   14.249926088   15.103982655
    1.269616027   15.127907856   14.228680741   15.081262734
    1.276794658   15.105038877   14.207385819   15.058490407
    1.283973289   15.082118233   14.186042157   15.035666569
    1.291151920   15.059146821   14.164650587   15.012792114
    1.298330551   15.036125535   14.143211939   14.989867932
    1.305509182   15.013055266   14.121727039   14.966894910
    1.312687813   14.989936900   14.100196709   14.943873930
    1.319866444   14.966771322   14.078621769   14.920805871
    1.327045075   14.943559412   14.057003036   14.897691610
    1.334223706   14.920302044   14.035341322   14.874532018
    1.341402337   14.897000093   14.013637438   14.851327965
    1.348580968   14.873654427   13.991892190   14.828080314
    1.355759599   14.850265910   13.970106380   14.804789926
    1.362938230   14.826835403   13.948280808   14.781457659
    1.370116861   14.803363765   13.926416270   14.758084365
    1.377295492   14.779851847   13.904513557   14.734670894
    1.384474124   14.756300499   13.882573459   14.711218092
    1.391652755   14.732710566   13.860596760   14.687726798
    1.398831386   14.709082890   13.838584241   14.664197851
    1.406010017   14.685418306   13.816536680   14.640632083
    1.413188648   14.661717649   13.794454851   14.617030323
    1.420367279   14.637981745   13.772339524   14.593393397
    1.427545910   14.614211421   13.750191463   14.569722124
    1.434724541   14.590407495   13.728011433   14.546017321
    1.441903172   14.566570784   13.705800190   14.522279800
    1.449081803   14.542702098   13.683558489   14.498510369
    1.456260434   14.518802246   13.661287081   14.474709831
    1.463439065   14.494872029   13.638986711   14.450878985
    1.470617696   14.470912246   13.616658123   14.427018625
    1.477796327   14.446923690   13.594302053   14.403129543
    1.484974958   14.422907151   13.571919237   14.379212523
    1.492153589   14.398863414   13.549510405   14.355268346
    1.499332220   14.374793259   13.527076281   14.331297790
    1.506510851   14.350697461   13.504617589   14.307301627
    1.513689482   14.326576792   13.482135045   14.283280624
    1.520868114   14.302432018   13.459629363   14.259235545
    1.528046745   14.278263900   13.437101252   14.235167147
    1.535225376   14.254073196   13.414551416   14.211076184
    1.542404007   14.229860659   13.391980557   14.186963406
    1.549582638   14.205627036   13.369389370   14.162829557
    1.556761269   14.181373070   13.346778548   14.138675377
    1.563939900   14.157099499   13.324148777   14.114501601
    1.571118531   14.132807057   13.301500742   14.090308959
    1.578297162   14.108496473   13.278835121   14.066098176
    1.585475793   14.084168471   13.256152589   14.041869974
    1.592654424   14.059823769   13.233453816   14.017625068
    1.599833055   14.035463083   13.210739467   13.993364171
    1.607011686   14.011087122   13.188010204   13.969087987
    1.614190317   13.986696589   13.165266684   13.944797219
    1.621368948   13.962292186   13.142509559   13.920492563
    1.628547579   13.937874607   13.119739477   13.896174712
    1.635726210   13.913444542   13.096957081   13.871844353
    1.642904841   13.889002676   13.074163011   13.847502167
    1.650083472   13.864549690   13.051357901   13.823148832
    1.657262104   13.840086259   13.028542381   13.798785021
    1.664440735   13.815613053   13.005717077   13.774411401
    1.671619366   13.791130738   12.982882609   13.750028635
    1.678797997   13.766639975   12.960039594   13.725637380
    1.685976628   13.742141418   12.937188645   13.701238290
    1.693155259   13.717635720   12.914330367   13.676832012
    1.700333890   13.693123525   12.891465365   13.652419190
    1.707512521   13.668605475   12.868594237   13.628000461
    1.714691152   13.644082204   12.845717576   13.603576460
    1.721869783   13.619554346   12.822835972   13.579147813
    1.729048414   13.595022524   12.799950009   13.554715146
    1.736227045   13.570487361   12.777060268   13.530279075
    1.743405676   13.545949472   12.754167325   13.505840215
    1.750584307   13.521409469   12.731271749   13.481399174
    1.757762938   13.496867958   12.708374109   13.456956556
    1.764941569   13.472325540   12.685474966   13.432512960
    1.772120200   13.447782811   12.662574876   13.408068979
    1.779298831   13.423240363   12.639674395   13.383625203
    1.786477462   13.398698782   12.616774068   13.359182215
    1.793656093   13.374158649   12.593874442   13.334740595
    1.800834725   13.349620542   12.570976054   13.310300918
    1.808013356   13.325085032   12.548079439   13.285863751
    1.815191987   13.300552685   12.525185129   13.261429660
    1.822370618   13.276024064   12.502293648   13.236999205
    1.829549249   13.251499726   12.479405517   13.212572939
    1.836727880   13.226980221   12.456521254   13.188151413
    1.843906511   13.202466098   12.433641371   13.163735172
    1.851085142   13.177957899   12.410766374   13.139324756
    1.858263773   13.153456162   12.387896769   13.114920701
    1.865442404   13.128961418   12.365033052   13.090523535
    1.872621035   13.104474195   12.342175719   13.066133786
    1.879799666   13.079995016   12.319325259   13.041751974
    1.886978297   13.055524400   12.296482158   13.017378615
    1.894156928   13.031062859   12.273646896   12.993014220
    1.901335559   13.006610902   12.250819950   12.968659296
    1.908514190   12.982169033   12.228001792   12.944314344
    1.915692821   12.957737750   12.205192890   12.919979861
    1.922871452   12.933317546   12.182393707   12.895656340
    1.930050083   12.908908913   12.159604701   12.871344267
    1.937228715   12.884512333   12.136826328   12.847044125
    1.944407346   12.860128288   12.114059036   12.822756393
    1.951585977   12.835757251   12.091303273   12.798481543
    1.958764608   12.811399693   12.068559479   12.774220045
    1.965943239   12.787056081   12.045828091   12.749972361
    1.973121870   12.762726875   12.023109543   12.725738953
    1.980300501   12.738412531   12.000404262   12.701520273
    1.987479132   12.714113501   11.977712673   12.677316773
    1.994657763   12.689830233   11.955035195   12.653128898
    2.001836394   12.665563168   11.932372245   12.628957088
    2.009015025   12.641312746   11.909724233   12.604801780
    2.016193656   12.617079398   11.887091567   12.580663406
    2.023372287   12.592863554   11.864474650   12.556542393
    2.030550918   12.568665639   11.841873880   12.532439164
    2.037729549   12.544486072   11.819289653   12.508354137
    2.044908180   12.520325268   11.796722358   12.484287726
    2.052086811   12.496183637   11.774172382   12.460240340
    2.059265442   12.472061588   11.751640106   12.436212383
    2.066444073   12.447959520   11.729125910   12.412204258
    2.073622705   12.423877833   11.706630166   12.388216359
    2.080801336   12.399816918   11.684153245   12.364249078
    2.087979967   12.375777164   11.661695513   12.340302802
    2.095158598   12.351758957   11.639257331   12.316377916
    2.102337229   12.327762675   11.616839057   12.292474796
    2.109515860   12.303788695   11.594441045   12.268593818
    2.116694491   12.279837387   11.572063644   12.244735352
    2.123873122   12.255909119   11.549707200   12.220899763
    2.131051753   12.232004254   11.527372056   12.197087414
    2.138230384   12.208123151   11.505058548   12.173298661
    2.145409015   12.184266163   11.482767011   12.149533857
    2.152587646   12.160433641   11.460497776   12.125793353
    2.159766277   12.136625931   11.438251167   12.102077492
    2.166944908   12.112843374   11.416027509   12.078386615
    2.174123539   12.089086309   11.393827118   12.054721060
    2.181302170   12.065355070   11.371650311   12.031081158
    2.188480801   12.041649985   11.349497398   12.007467238
    2.195659432   12.017971380   11.327368685   11.983879624
    2.202838063   11.994319577   11.305264477   11.960318638
    2.210016694   11.970694893   11.283185074   11.936784595
    2.217195326   11.947097641   11.261130770   11.913277808
    2.224373957   11.923528132   11.239101859   11.889798585
    2.231552588   11.899986670   11.217098629   11.866347231
    2.238731219   11.876473558   11.195121366   11.842924047
    2.245909850   11.852989093   11.173170350   11.819529330
    2.253088481   11.829533568   11.151245859   11.796163372
    2.260267112   11.806107274   11.129348168   11.772826462
    2.267445743   11.782710497   11.107477547   11.749518887
    2.274624374   11.759343520   11.085634264   11.726240927
    2.281803005   11.736006621   11.063818581   11.702992860
    2.288981636   11.712700074   11.042030759   11.679774961
    2.296160267   11.689424152   11.020271055   11.656587499
    2.303338898   11.666179120   10.998539721   11.633430741
    2.310517529   11.642965244   10.976837008   11.610304951
    2.317696160   11.619782783   10.955163162   11.587210387
    2.324874791   11.596631994   10.933518425   11.564147306
    2.332053422   11.573513129   10.911903038   11.541115959
    2.339232053   11.550426438   10.890317236   11.518116594
    2.346410684   11.527372166   10.868761253   11.495149458
    2.353589316   11.504350555   10.847235318   11.472214791
    2.360767947   11.481361844   10.825739657   11.449312832
    2.367946578   11.458406269   10.804274494   11.426443815
    2.375125209   11.435484061   10.782840048   11.403607970
    2.382303840   11.412595447   10.761436536   11.380805526
    2.389482471   11.389740654   10.740064172   11.358036707
    2.396661102   11.366919901   10.718723166   11.335301734
    2.403839733   11.344133408   10.697413725   11.312600823
    2.411018364   11.321381389   10.676136053   11.289934191
    2.418196995   11.298664056   10.654890351   11.267302046
    2.425375626   11.275981616   10.633676816   11.244704597
    2.432554257   11.253334274   10.612495645   11.222142049
    2.439732888   11.230722232   10.591347028   11.199614601
    2.446911519   11.208145689   10.570231154   11.177122453
    2.454090150   11.185604839   10.549148210   11.154665799
    2.461268781   11.163099874   10.528098378   11.132244830
    2.468447412   11.140630983   10.507081837   11.109859735
    2.475626043   11.118198353   10.486098765   11.087510699
    2.482804674   11.095802165   10.465149336   11.065197904
    2.489983306   11.073442598   10.444233722   11.042921530
    2.497161937   11.051119831   10.423352089   11.020681753
    2.504340568   11.028834035   10.402504605   10.998478745
    2.511519199   11.006585382   10.381691432   10.976312677
    2.518697830   10.984374039   10.360912729   10.954183716
    2.525876461   10.962200170   10.340168654   10.932092027
    2.533055092   10.940063937   10.319459361   10.910037770
    2.540233723   10.917965499   10.298785002   10.888021103
