# energy grid [eV]     epsr_x  epsr_y  epsr_z
#
    0.200000000   17.297863700   16.991721239    7.905786817
    0.207178631   17.301960394   16.995762587    7.907078950
    0.214357262   17.306203859   16.999948768    7.908417185
    0.221535893   17.310594338   17.004280027    7.909801577
    0.228714524   17.315132082   17.008756618    7.911232185
    0.235893155   17.319817354   17.013378803    7.912709070
    0.243071786   17.324650422   17.018146852    7.914232295
    0.250250417   17.329631564   17.023061048    7.915801923
    0.257429048   17.334761067   17.028121677    7.917418022
    0.264607679   17.340039228   17.033329039    7.919080659
    0.271786311   17.345466351   17.038683439    7.920789907
    0.278964942   17.351042750   17.044185195    7.922545836
    0.286143573   17.356768748   17.049834631    7.924348522
    0.293322204   17.362644677   17.055632081    7.926198042
    0.300500835   17.368670878   17.061577889    7.928094475
    0.307679466   17.374847701   17.067672407    7.930037900
    0.314858097   17.381175505   17.073915998    7.932028402
    0.322036728   17.387654659   17.080309032    7.934066065
    0.329215359   17.394285541   17.086851892    7.936150977
    0.336393990   17.401068539   17.093544966    7.938283227
    0.343572621   17.408004049   17.100388655    7.940462905
    0.350751252   17.415092478   17.107383368    7.942690107
    0.357929883   17.422334242   17.114529525    7.944964926
    0.365108514   17.429729766   17.121827555    7.947287462
    0.372287145   17.437279485   17.129277896    7.949657815
    0.379465776   17.444983846   17.136880996    7.952076085
    0.386644407   17.452843303   17.144637316    7.954542378
    0.393823038   17.460858321   17.152547323    7.957056801
    0.401001669   17.469029374   17.160611497    7.959619461
    0.408180301   17.477356948   17.168830326    7.962230471
    0.415358932   17.485841538   17.177204311    7.964889943
    0.422537563   17.494483650   17.185733960    7.967597993
    0.429716194   17.503283799   17.194419794    7.970354738
    0.436894825   17.512242511   17.203262344    7.973160299
    0.444073456   17.521360323   17.212262152    7.976014797
    0.451252087   17.530637782   17.221419769    7.978918359
    0.458430718   17.540075447   17.230735759    7.981871109
    0.465609349   17.549673885   17.240210696    7.984873179
    0.472787980   17.559433677   17.249845164    7.987924699
    0.479966611   17.569355412   17.259639761    7.991025803
    0.487145242   17.579439693   17.269595093    7.994176629
    0.494323873   17.589687132   17.279711779    7.997377314
    0.501502504   17.600098353   17.289990450    8.000628000
    0.508681135   17.610673991   17.300431747    8.003928830
    0.515859766   17.621414693   17.311036323    8.007279951
    0.523038397   17.632321117   17.321804844    8.010681512
    0.530217028   17.643393934   17.332737988    8.014133662
    0.537395659   17.654633825   17.343836442    8.017636557
    0.544574290   17.666041484   17.355100909    8.021190351
    0.551752922   17.677617617   17.366532102    8.024795204
    0.558931553   17.689362941   17.378130747    8.028451276
    0.566110184   17.701278187   17.389897583    8.032158733
    0.573288815   17.713364097   17.401833361    8.035917738
    0.580467446   17.725621427   17.413938845    8.039728463
    0.587646077   17.738050945   17.426214811    8.043591078
    0.594824708   17.750653430   17.438662051    8.047505758
    0.602003339   17.763429677   17.451281366    8.051472680
    0.609181970   17.776380493   17.464073575    8.055492023
    0.616360601   17.789506696   17.477039507    8.059563970
    0.623539232   17.802809120   17.490180005    8.063688706
    0.630717863   17.816288613   17.503495929    8.067866418
    0.637896494   17.829946034   17.516988149    8.072097299
    0.645075125   17.843782257   17.530657551    8.076381540
    0.652253756   17.857798172   17.544505036    8.080719339
    0.659432387   17.871994679   17.558531518    8.085110895
    0.666611018   17.886372696   17.572737928    8.089556410
    0.673789649   17.900933154   17.587125208    8.094056089
    0.680968280   17.915676999   17.601694320    8.098610140
    0.688146912   17.930605191   17.616446236    8.103218774
    0.695325543   17.945718706   17.631381948    8.107882205
    0.702504174   17.961018534   17.646502461    8.112600651
    0.709682805   17.976505682   17.661808797    8.117374331
    0.716861436   17.992181172   17.677301993    8.122203468
    0.724040067   18.008046040   17.692983102    8.127088288
    0.731218698   18.024101340   17.708853196    8.132029022
    0.738397329   18.040348143   17.724913361    8.137025902
    0.745575960   18.056787532   17.741164700    8.142079163
    0.752754591   18.073420612   17.757608335    8.147189045
    0.759933222   18.090248501   17.774245404    8.152355790
    0.767111853   18.107272335   17.791077063    8.157579644
    0.774290484   18.124493268   17.808104486    8.162860854
    0.781469115   18.141912471   17.825328864    8.168199675
    0.788647746   18.159531132   17.842751408    8.173596361
    0.795826377   18.177350458   17.860373347    8.179051172
    0.803005008   18.195371674   17.878195928    8.184564370
    0.810183639   18.213596021   17.896220415    8.190136221
    0.817362270   18.232024758   17.914448082    8.195766996
    0.824540902   18.250659153   17.932880192    8.201456966
    0.831719533   18.269500493   17.951518027    8.207206409
    0.838898164   18.288550128   17.970363039    8.213015606
    0.846076795   18.307809422   17.989416679    8.218884841
    0.853255426   18.327279718   18.008680282    8.224814402
    0.860434057   18.346962384   18.028155220    8.230804580
    0.867612688   18.366858817   18.047842911    8.236855671
    0.874791319   18.386970437   18.067744804    8.242967974
    0.881969950   18.407298686   18.087862373    8.249141793
    0.889148581   18.427845025   18.108197112    8.255377434
    0.896327212   18.448610941   18.128750541    8.261675209
    0.903505843   18.469597939   18.149524201    8.268035433
    0.910684474   18.490807549   18.170519656    8.274458425
    0.917863105   18.512241323   18.191738494    8.280944509
    0.925041736   18.533900835   18.213182329    8.287494012
    0.932220367   18.555787684   18.234852796    8.294107266
    0.939398998   18.577903492   18.256751559    8.300784607
    0.946577629   18.600249905   18.278880303    8.307526375
    0.953756260   18.622828594   18.301240741    8.314332915
    0.960934891   18.645641254   18.323834613    8.321204576
    0.968113523   18.668689606   18.346663685    8.328141712
    0.975292154   18.691975391   18.369729747    8.335144681
    0.982470785   18.715500379   18.393034620    8.342213845
    0.989649416   18.739266372   18.416580152    8.349349571
    0.996828047   18.763275209   18.440368220    8.356552232
    1.004006678   18.787528741   18.464400728    8.363822204
    1.011185309   18.812028844   18.488679610    8.371159869
    1.018363940   18.836777425   18.513206830    8.378565613
    1.025542571   18.861776422   18.537984383    8.386039827
    1.032721202   18.887027801   18.563014294    8.393582908
    1.039899833   18.912533559   18.588298618    8.401195256
    1.047078464   18.938295723   18.613839445    8.408877278
    1.054257095   18.964316349   18.639638896    8.416629386
    1.061435726   18.990597525   18.665699123    8.424451996
    1.068614357   19.017141372   18.692022315    8.432345530
    1.075792988   19.043950042   18.718610693    8.440310416
    1.082971619   19.071025718   18.745466513    8.448347086
    1.090150250   19.098370618   18.772592067    8.456455978
    1.097328881   19.125986995   18.799989684    8.464637537
    1.104507513   19.153877134   18.827661727    8.472892212
    1.111686144   19.182043356   18.855610598    8.481220458
    1.118864775   19.210488017   18.883838737    8.489622736
    1.126043406   19.239213510   18.912348624    8.498099514
    1.133222037   19.268222265   18.941142775    8.506651263
    1.140400668   19.297516749   18.970223750    8.515278462
    1.147579299   19.327099466   18.999594148    8.523981597
    1.154757930   19.356972961   19.029256609    8.532761159
    1.161936561   19.387139817   19.059213817    8.541617644
    1.169115192   19.417602658   19.089468498    8.550551557
    1.176293823   19.448364149   19.120023425    8.559563408
    1.183472454   19.479426996   19.150881412    8.568653713
    1.190651085   19.510793947   19.182045322    8.577822996
    1.197829716   19.542467795   19.213518062    8.587071787
    1.205008347   19.574451376   19.245302590    8.596400622
    1.212186978   19.606747571   19.277401910    8.605810045
    1.219365609   19.639359307   19.309819075    8.615300607
    1.226544240   19.672289557   19.342557192    8.624872865
    1.233722871   19.705541342   19.375619417    8.634527385
    1.240901503   19.739117730   19.409008958    8.644264739
    1.248080134   19.773021840   19.442729078    8.654085506
    1.255258765   19.807256841   19.476783095    8.663990273
    1.262437396   19.841825953   19.511174382    8.673979636
    1.269616027   19.876732446   19.545906370    8.684054196
    1.276794658   19.911979647   19.580982547    8.694214564
    1.283973289   19.947570934   19.616406461    8.704461358
    1.291151920   19.983509742   19.652181721    8.714795204
    1.298330551   20.019799562   19.688311997    8.725216738
    1.305509182   20.056443943   19.724801024    8.735726600
    1.312687813   20.093446491   19.761652599    8.746325444
    1.319866444   20.130810875   19.798870589    8.757013928
    1.327045075   20.168540821   19.836458924    8.767792721
    1.334223706   20.206640120   19.874421606    8.778662499
    1.341402337   20.245112626   19.912762706    8.789623951
    1.348580968   20.283962259   19.951486368    8.800677769
    1.355759599   20.323193002   19.990596807    8.811824660
    1.362938230   20.362808908   20.030098308    8.823065336
    1.370116861   20.402814098   20.069995217    8.834400521
    1.377295492   20.443212760   20.110291976    8.845830948
    1.384474124   20.484009165   20.150993164    8.857357359
    1.391652755   20.525207645   20.192103393    8.868980503
    1.398831386   20.566812606   20.233627318    8.880701142
    1.406010017   20.608828548   20.275569744    8.892520053
    1.413188648   20.651260046   20.317935558    8.904438024
    1.420367279   20.694111734   20.360729695    8.916455841
    1.427545910   20.737388346   20.403957199    8.928574311
    1.434724541   20.781094703   20.447623222    8.940794259
    1.441903172   20.825235701   20.491733007    8.953116510
    1.449081803   20.869816322   20.536291892    8.965541897
    1.456260434   20.914841638   20.581305314    8.978071269
    1.463439065   20.960316815   20.626778818    8.990705488
    1.470617696   21.006247113   20.672718056    9.003445422
    1.477796327   21.052637882   20.719128786    9.016291950
    1.484974958   21.099494575   20.766016882    9.029245964
    1.492153589   21.146822752   20.813388331    9.042308397
    1.499332220   21.194628073   20.861249239    9.055480179
    1.506510851   21.242916290   20.909605828    9.068762235
    1.513689482   21.291693265   20.958464444    9.082155509
    1.520868114   21.340964958   21.007831558    9.095660962
    1.528046745   21.390737438   21.057713768    9.109279569
    1.535225376   21.441016948   21.108117821    9.123012318
    1.542404007   21.491809841   21.159050600    9.136860209
    1.549582638   21.543122538   21.210519111    9.150824259
    1.556761269   21.594961590   21.262530510    9.164905501
    1.563939900   21.647333684   21.315092103    9.179104989
    1.571118531   21.700245634   21.368211344    9.193423780
    1.578297162   21.753704393   21.421895844    9.207862949
    1.585475793   21.807717061   21.476153387    9.222423590
    1.592654424   21.862290867   21.530991909    9.237106810
    1.599833055   21.917433179   21.586419515    9.251913731
    1.607011686   21.973151512   21.642444487    9.266845497
    1.614190317   22.029453534   21.699075280    9.281903262
    1.621368948   22.086347061   21.756320531    9.297088201
    1.628547579   22.143840060   21.814189045    9.312401504
    1.635726210   22.201940657   21.872689817    9.327844380
    1.642904841   22.260657194   21.931832138    9.343418056
    1.650083472   22.319998187   21.991625506    9.359123776
    1.657262104   22.379972272   22.052079533    9.374962803
    1.664440735   22.440588272   22.113204056    9.390936421
    1.671619366   22.501855203   22.175009156    9.407045930
    1.678797997   22.563782275   22.237505150    9.423292652
    1.685976628   22.626378893   22.300702596    9.439677927
    1.693155259   22.689654662   22.364612296    9.456203116
    1.700333890   22.753619388   22.429245303    9.472869600
    1.707512521   22.818283098   22.494612938    9.489678783
    1.714691152   22.883656050   22.560726804    9.506632094
    1.721869783   22.949748709   22.627598767    9.523730977
    1.729048414   23.016571768   22.695240976    9.540976902
    1.736227045   23.084136157   22.763665878    9.558371358
    1.743405676   23.152453048   22.832886225    9.575915860
    1.750584307   23.221533860   22.902915085    9.593611945
    1.757762938   23.291390257   22.973765848    9.611461182
    1.764941569   23.362034185   23.045452248    9.629465161
    1.772120200   23.433477950   23.117988408    9.647625492
    1.779298831   23.505734080   23.191388783    9.665943812
    1.786477462   23.578815341   23.265668174    9.684421787
    1.793656093   23.652734821   23.340841779    9.703061107
    1.800834725   23.727505925   23.416925199    9.721863492
    1.808013356   23.803142380   23.493934453    9.740830688
    1.815191987   23.879658232   23.571885976    9.759964470
    1.822370618   23.957067835   23.650796622    9.779266640
    1.829549249   24.035385823   23.730683638    9.798739027
    1.836727880   24.114627276   23.811564828    9.818383494
    1.843906511   24.194807965   23.893458779    9.838201947
    1.851085142   24.275943787   23.976384362    9.858196309
    1.858263773   24.358050810   24.060360789    9.878368516
    1.865442404   24.441145639   24.145407911    9.898720554
    1.872621035   24.525245530   24.231546280    9.919254492
    1.879799666   24.610368037   24.318796876    9.939972396
    1.886978297   24.696531065   24.407181223    9.960876341
    1.894156928   24.783753054   24.496721960    9.981968451
    1.901335559   24.872052946   24.587442362   10.003250892
    1.908514190   24.961450166   24.679365987   10.024725865
    1.915692821   25.051964637   24.772517141   10.046395613
    1.922871452   25.143616757   24.866920900   10.068262412
    1.930050083   25.236427467   24.962603047   10.090328564
    1.937228715   25.330418382   25.059590171   10.112596403
    1.944407346   25.425612014   25.157910353   10.135068369
    1.951585977   25.522031534   25.257592727   10.157746972
    1.958764608   25.619700264   25.358666549   10.180634690
    1.965943239   25.718642134   25.461161977   10.203734029
    1.973121870   25.818881668   25.565110203   10.227047541
    1.980300501   25.920443904   25.670543340   10.250577790
    1.987479132   26.023355550   25.777495138   10.274327375
    1.994657763   26.127644656   25.886001218   10.298299117
    2.001836394   26.233338623   25.996097721   10.322495956
    2.009015025   26.340465676   26.107821467   10.346920598
    2.016193656   26.449056115   26.221211061   10.371575887
    2.023372287   26.559140965   26.336306820   10.396464907
    2.030550918   26.670751346   26.453150150   10.421590618
    2.037729549   26.783919331   26.571783914   10.446955995
    2.044908180   26.898678145   26.692252626   10.472564109
    2.052086811   27.015062128   26.814602500   10.498418105
    2.059265442   27.133107203   26.938881853   10.524521227
    2.066444073   27.252850536   27.065141024   10.550876781
    2.073622705   27.374330136   27.193432156   10.577488106
    2.080801336   27.497585154   27.323809288   10.604358609
    2.087979967   27.622656176   27.456328737   10.631491768
    2.095158598   27.749585245   27.591049215   10.658891136
    2.102337229   27.878415804   27.728031906   10.686560332
    2.109515860   28.009192812   27.867340615   10.714503051
    2.116694491   28.141962920   28.009041942   10.742723064
    2.123873122   28.276774417   28.153205422   10.771224219
    2.131051753   28.413677278   28.299903698   10.800010439
    2.138230384   28.552723293   28.449212682   10.829085724
    2.145409015   28.693966064   28.601211680   10.858454146
    2.152587646   28.837460986   28.755983523   10.888119855
    2.159766277   28.983265716   28.913615225   10.918087145
    2.166944908   29.131440927   29.074198702   10.948360419
    2.174123539   29.282050318   29.237830826   10.978944105
    2.181302170   29.435158786   29.404612241   11.009842723
    2.188480801   29.590833404   29.574648395   11.041060904
    2.195659432   29.749144349   29.748050544   11.072603385
    2.202838063   29.910164882   29.924935996   11.104475007
    2.210016694   30.073971391   30.105428437   11.136680721
    2.217195326   30.240643533   30.289658373   11.169225586
    2.224373957   30.410264422   30.477763631   11.202114773
    2.231552588   30.582920827   30.669889926   11.235353569
    2.238731219   30.758703397   30.866191459   11.268947375
    2.245909850   30.937706898   31.066831570   11.302901690
    2.253088481   31.120030466   31.271983468   11.337222110
    2.260267112   31.305777927   31.481831348   11.371914478
    2.267445743   31.495058091   31.696571258   11.406984869
    2.274624374   31.687985019   31.916411571   11.442439319
    2.281803005   31.884678413   32.141574387   11.478283983
    2.288981636   32.085264025   32.372296927   11.514525196
    2.296160267   32.289874061   32.608832971   11.551169470
    2.303338898   32.498647600   32.851454215   11.588223462
    2.310517529   32.711731024   33.100452064   11.625694008
    2.317696160   32.929278539   33.356139703   11.663588147
    2.324874791   33.151453580   33.618854085   11.701913064
    2.332053422   33.378429493   33.888958464   11.740676118
    2.339232053   33.610388577   34.166845246   11.779884853
    2.346410684   33.847523736   34.452939148   11.819547003
    2.353589316   34.090039822   34.747700784   11.859670501
    2.360767947   34.338154519   35.051630770   11.900263488
    2.367946578   34.592099500   35.365274419   11.941334366
    2.375125209   34.852121564   35.689226968   11.982891758
    2.382303840   35.118483931   36.024139494   12.024944435
    2.389482471   35.391467899   36.370726545   12.067501321
    2.396661102   35.671374634   36.729776059   12.110571395
    2.403839733   35.958527363   37.102159014   12.154164128
    2.411018364   36.253273813   37.488837567   12.198290081
    2.418196995   36.555988266   37.890878920   12.242959297
    2.425375626   36.867074892   38.309473056   12.288182345
    2.432554257   37.186971254   38.745951300   12.333970245
    2.439732888   37.516152032   39.201808206   12.380333592
    2.446911519   37.855133696   39.678728348   12.427283077
    2.454090150   38.204480280   40.178618822   12.474829946
    2.461268781   38.564811159   40.703649185   12.522987543
    2.468447412   38.936806807   41.256297791   12.571769148
    2.475626043   39.321217230   41.839408997   12.621187010
    2.482804674   39.718874974   42.456265851   12.671253985
    2.489983306   40.130707075   43.110686798   12.721983718
    2.497161937   40.557751340   43.807143185   12.773390491
    2.504340568   41.001181577   44.550909703   12.825489169
    2.511519199   41.462328740   45.348238393   12.878295130
    2.518697830   41.942708023   46.206580603   12.931824143
    2.525876461   42.444064056   47.134924214   12.986092641
    2.533055092   42.968422683   48.144210601   13.041117734
    2.540233723   43.518158310   49.247886971   13.096917192
