# energy grid [eV]     ieps_x  ieps_y  ieps_z
#
    0.200000000    8.698340336    1.401719765    8.655813302
    0.207178631    8.696414953    1.401615072    8.653931209
    0.214357262    8.694422855    1.401506784    8.651983857
    0.221535893    8.692364160    1.401394911    8.649971360
    0.228714524    8.690238994    1.401279462    8.647893834
    0.235893155    8.688047485    1.401160449    8.645751402
    0.243071786    8.685789763    1.401037882    8.643544186
    0.250250417    8.683465964    1.400911771    8.641272314
    0.257429048    8.681076227    1.400782127    8.638935918
    0.264607679    8.678620696    1.400648963    8.636535133
    0.271786311    8.676099516    1.400512288    8.634070096
    0.278964942    8.673512838    1.400372116    8.631540951
    0.286143573    8.670860815    1.400228459    8.628947841
    0.293322204    8.668143604    1.400081327    8.626290915
    0.300500835    8.665361366    1.399930735    8.623570326
    0.307679466    8.662514265    1.399776694    8.620786228
    0.314858097    8.659602469    1.399619218    8.617938781
    0.322036728    8.656626149    1.399458320    8.615028146
    0.329215359    8.653585479    1.399294013    8.612054489
    0.336393990    8.650480637    1.399126310    8.609017977
    0.343572621    8.647311805    1.398955226    8.605918783
    0.350751252    8.644079166    1.398780774    8.602757081
    0.357929883    8.640782909    1.398602969    8.599533049
    0.365108514    8.637423223    1.398421824    8.596246868
    0.372287145    8.634000305    1.398237355    8.592898723
    0.379465776    8.630514349    1.398049575    8.589488800
    0.386644407    8.626965558    1.397858500    8.586017290
    0.393823038    8.623354134    1.397664144    8.582484386
    0.401001669    8.619680285    1.397466523    8.578890284
    0.408180301    8.615944218    1.397265652    8.575235184
    0.415358932    8.612146148    1.397061546    8.571519286
    0.422537563    8.608286289    1.396854221    8.567742796
    0.429716194    8.604364860    1.396643693    8.563905922
    0.436894825    8.600382081    1.396429976    8.560008874
    0.444073456    8.596338178    1.396213089    8.556051866
    0.451252087    8.592233376    1.395993045    8.552035112
    0.458430718    8.588067906    1.395769862    8.547958832
    0.465609349    8.583841999    1.395543555    8.543823247
    0.472787980    8.579555891    1.395314142    8.539628581
    0.479966611    8.575209818    1.395081638    8.535375061
    0.487145242    8.570804023    1.394846061    8.531062914
    0.494323873    8.566338746    1.394607426    8.526692374
    0.501502504    8.561814234    1.394365751    8.522263674
    0.508681135    8.557230734    1.394121052    8.517777051
    0.515859766    8.552588497    1.393873346    8.513232742
    0.523038397    8.547887776    1.393622652    8.508630991
    0.530217028    8.543128824    1.393368984    8.503972040
    0.537395659    8.538311900    1.393112361    8.499256135
    0.544574290    8.533437264    1.392852800    8.494483525
    0.551752922    8.528505178    1.392590318    8.489654459
    0.558931553    8.523515905    1.392324933    8.484769192
    0.566110184    8.518469712    1.392056662    8.479827977
    0.573288815    8.513366869    1.391785522    8.474831071
    0.580467446    8.508207645    1.391511530    8.469778735
    0.587646077    8.502992313    1.391234706    8.464671228
    0.594824708    8.497721148    1.390955065    8.459508814
    0.602003339    8.492394428    1.390672626    8.454291758
    0.609181970    8.487012430    1.390387406    8.449020328
    0.616360601    8.481575437    1.390099423    8.443694792
    0.623539232    8.476083729    1.389808695    8.438315421
    0.630717863    8.470537593    1.389515240    8.432882489
    0.637896494    8.464937314    1.389219075    8.427396270
    0.645075125    8.459283180    1.388920219    8.421857040
    0.652253756    8.453575482    1.388618688    8.416265078
    0.659432387    8.447814511    1.388314501    8.410620663
    0.666611018    8.442000561    1.388007676    8.404924078
    0.673789649    8.436133926    1.387698231    8.399175605
    0.680968280    8.430214903    1.387386184    8.393375529
    0.688146912    8.424243790    1.387071552    8.387524137
    0.695325543    8.418220886    1.386754354    8.381621716
    0.702504174    8.412146494    1.386434607    8.375668557
    0.709682805    8.406020916    1.386112330    8.369664950
    0.716861436    8.399844455    1.385787540    8.363611188
    0.724040067    8.393617418    1.385460255    8.357507565
    0.731218698    8.387340111    1.385130494    8.351354375
    0.738397329    8.381012843    1.384798274    8.345151915
    0.745575960    8.374635922    1.384463614    8.338900484
    0.752754591    8.368209659    1.384126530    8.332600380
    0.759933222    8.361734368    1.383787042    8.326251904
    0.767111853    8.355210360    1.383445166    8.319855357
    0.774290484    8.348637950    1.383100922    8.313411042
    0.781469115    8.342017453    1.382754326    8.306919263
    0.788647746    8.335349187    1.382405398    8.300380326
    0.795826377    8.328633467    1.382054154    8.293794535
    0.803005008    8.321870614    1.381700612    8.287162199
    0.810183639    8.315060947    1.381344791    8.280483625
    0.817362270    8.308204785    1.380986708    8.273759123
    0.824540902    8.301302451    1.380626381    8.266989003
    0.831719533    8.294354267    1.380263828    8.260173575
    0.838898164    8.287360556    1.379899067    8.253313152
    0.846076795    8.280321642    1.379532115    8.246408046
    0.853255426    8.273237849    1.379162990    8.239458571
    0.860434057    8.266109504    1.378791710    8.232465041
    0.867612688    8.258936932    1.378418292    8.225427772
    0.874791319    8.251720461    1.378042755    8.218347078
    0.881969950    8.244460417    1.377665115    8.211223277
    0.889148581    8.237157130    1.377285391    8.204056686
    0.896327212    8.229810927    1.376903600    8.196847623
    0.903505843    8.222422139    1.376519759    8.189596405
    0.910684474    8.214991095    1.376133886    8.182303352
    0.917863105    8.207518126    1.375745999    8.174968784
    0.925041736    8.200003561    1.375356115    8.167593021
    0.932220367    8.192447734    1.374964251    8.160176382
    0.939398998    8.184850975    1.374570424    8.152719189
    0.946577629    8.177213616    1.374174653    8.145221764
    0.953756260    8.169535991    1.373776955    8.137684428
    0.960934891    8.161818430    1.373377345    8.130107503
    0.968113523    8.154061269    1.372975843    8.122491312
    0.975292154    8.146264839    1.372572465    8.114836178
    0.982470785    8.138429475    1.372167229    8.107142423
    0.989649416    8.130555510    1.371760150    8.099410371
    0.996828047    8.122643278    1.371351247    8.091640346
    1.004006678    8.114693113    1.370940537    8.083832671
    1.011185309    8.106705349    1.370528037    8.075987670
    1.018363940    8.098680321    1.370113763    8.068105668
    1.025542571    8.090618362    1.369697732    8.060186988
    1.032721202    8.082519807    1.369279962    8.052231954
    1.039899833    8.074384991    1.368860469    8.044240891
    1.047078464    8.066214248    1.368439270    8.036214124
    1.054257095    8.058007911    1.368016382    8.028151977
    1.061435726    8.049766316    1.367591821    8.020054773
    1.068614357    8.041489795    1.367165605    8.011922838
    1.075792988    8.033178684    1.366737749    8.003756495
    1.082971619    8.024833316    1.366308271    7.995556069
    1.090150250    8.016454024    1.365877187    7.987321884
    1.097328881    8.008041143    1.365444513    7.979054263
    1.104507513    7.999595004    1.365010266    7.970753530
    1.111686144    7.991115941    1.364574463    7.962420010
    1.118864775    7.982604287    1.364137119    7.954054024
    1.126043406    7.974060375    1.363698251    7.945655896
    1.133222037    7.965484535    1.363257876    7.937225949
    1.140400668    7.956877099    1.362816008    7.928764506
    1.147579299    7.948238400    1.362372666    7.920271888
    1.154757930    7.939568767    1.361927864    7.911748417
    1.161936561    7.930868532    1.361481619    7.903194415
    1.169115192    7.922138024    1.361033947    7.894610203
    1.176293823    7.913377573    1.360584864    7.885996102
    1.183472454    7.904587507    1.360134386    7.877352432
    1.190651085    7.895768156    1.359682528    7.868679512
    1.197829716    7.886919847    1.359229307    7.859977663
    1.205008347    7.878042908    1.358774738    7.851247203
    1.212186978    7.869137666    1.358318837    7.842488450
    1.219365609    7.860204446    1.357861619    7.833701723
    1.226544240    7.851243575    1.357403101    7.824887338
    1.233722871    7.842255377    1.356943297    7.816045612
    1.240901503    7.833240177    1.356482224    7.807176862
    1.248080134    7.824198299    1.356019896    7.798281403
    1.255258765    7.815130064    1.355556330    7.789359550
    1.262437396    7.806035797    1.355091540    7.780411617
    1.269616027    7.796915818    1.354625542    7.771437917
    1.276794658    7.787770447    1.354158350    7.762438764
    1.283973289    7.778600005    1.353689982    7.753414470
    1.291151920    7.769404811    1.353220450    7.744365346
    1.298330551    7.760185183    1.352749771    7.735291703
    1.305509182    7.750941439    1.352277959    7.726193851
    1.312687813    7.741673896    1.351805030    7.717072099
    1.319866444    7.732382868    1.351330998    7.707926756
    1.327045075    7.723068672    1.350855878    7.698758128
    1.334223706    7.713731620    1.350379686    7.689566524
    1.341402337    7.704372027    1.349902435    7.680352248
    1.348580968    7.694990204    1.349424140    7.671115606
    1.355759599    7.685586462    1.348944816    7.661856903
    1.362938230    7.676161112    1.348464478    7.652576440
    1.370116861    7.666714463    1.347983140    7.643274521
    1.377295492    7.657246822    1.347500817    7.633951448
    1.384474124    7.647758499    1.347017523    7.624607520
    1.391652755    7.638249797    1.346533271    7.615243037
    1.398831386    7.628721024    1.346048078    7.605858298
    1.406010017    7.619172482    1.345561956    7.596453601
    1.413188648    7.609604475    1.345074920    7.587029241
    1.420367279    7.600017305    1.344586985    7.577585516
    1.427545910    7.590411272    1.344098163    7.568122719
    1.434724541    7.580786677    1.343608469    7.558641143
    1.441903172    7.571143818    1.343117918    7.549141083
    1.449081803    7.561482992    1.342626522    7.539622828
    1.456260434    7.551804496    1.342134296    7.530086669
    1.463439065    7.542108624    1.341641253    7.520532896
    1.470617696    7.532395672    1.341147407    7.510961797
    1.477796327    7.522665931    1.340652772    7.501373659
    1.484974958    7.512919694    1.340157361    7.491768767
    1.492153589    7.503157250    1.339661188    7.482147408
    1.499332220    7.493378889    1.339164267    7.472509864
    1.506510851    7.483584899    1.338666609    7.462856417
    1.513689482    7.473775567    1.338168230    7.453187351
    1.520868114    7.463951178    1.337669141    7.443502943
    1.528046745    7.454112015    1.337169357    7.433803475
    1.535225376    7.444258363    1.336668890    7.424089223
    1.542404007    7.434390503    1.336167754    7.414360464
    1.549582638    7.424508715    1.335665961    7.404617473
    1.556761269    7.414613278    1.335163525    7.394860525
    1.563939900    7.404704471    1.334660457    7.385089893
    1.571118531    7.394782568    1.334156772    7.375305848
    1.578297162    7.384847846    1.333652482    7.365508661
    1.585475793    7.374900579    1.333147599    7.355698601
    1.592654424    7.364941038    1.332642136    7.345875936
    1.599833055    7.354969495    1.332136106    7.336040933
    1.607011686    7.344986220    1.331629521    7.326193856
    1.614190317    7.334991481    1.331122393    7.316334971
    1.621368948    7.324985545    1.330614735    7.306464540
    1.628547579    7.314968678    1.330106560    7.296582824
    1.635726210    7.304941144    1.329597879    7.286690084
    1.642904841    7.294903206    1.329088705    7.276786579
    1.650083472    7.284855125    1.328579049    7.266872565
    1.657262104    7.274797161    1.328068924    7.256948300
    1.664440735    7.264729574    1.327558342    7.247014038
    1.671619366    7.254652619    1.327047314    7.237070033
    1.678797997    7.244566555    1.326535853    7.227116537
    1.685976628    7.234471633    1.326023970    7.217153800
    1.693155259    7.224368109    1.325511677    7.207182073
    1.700333890    7.214256232    1.324998986    7.197201603
    1.707512521    7.204136255    1.324485908    7.187212638
    1.714691152    7.194008424    1.323972454    7.177215422
    1.721869783    7.183872987    1.323458637    7.167210199
    1.729048414    7.173730191    1.322944467    7.157197213
    1.736227045    7.163580278    1.322429956    7.147176704
    1.743405676    7.153423494    1.321915115    7.137148912
    1.750584307    7.143260078    1.321399955    7.127114076
    1.757762938    7.133090271    1.320884488    7.117072433
    1.764941569    7.122914311    1.320368724    7.107024219
    1.772120200    7.112732436    1.319852675    7.096969667
    1.779298831    7.102544880    1.319336351    7.086909011
    1.786477462    7.092351879    1.318819763    7.076842482
    1.793656093    7.082153664    1.318302923    7.066770310
    1.800834725    7.071950467    1.317785840    7.056692724
    1.808013356    7.061742518    1.317268525    7.046609951
    1.815191987    7.051530044    1.316750990    7.036522216
    1.822370618    7.041313273    1.316233244    7.026429745
    1.829549249    7.031092430    1.315715298    7.016332760
    1.836727880    7.020867738    1.315197162    7.006231482
    1.843906511    7.010639419    1.314678847    6.996126132
    1.851085142    7.000407695    1.314160363    6.986016929
    1.858263773    6.990172785    1.313641721    6.975904089
    1.865442404    6.979934907    1.313122930    6.965787829
    1.872621035    6.969694276    1.312604000    6.955668362
    1.879799666    6.959451109    1.312084941    6.945545903
    1.886978297    6.949205617    1.311565764    6.935420661
    1.894156928    6.938958013    1.311046478    6.925292849
    1.901335559    6.928708508    1.310527093    6.915162673
    1.908514190    6.918457310    1.310007619    6.905030342
    1.915692821    6.908204627    1.309488065    6.894896061
    1.922871452    6.897950664    1.308968442    6.884760034
    1.930050083    6.887695626    1.308448758    6.874622465
    1.937228715    6.877439717    1.307929023    6.864483555
    1.944407346    6.867183136    1.307409246    6.854343504
    1.951585977    6.856926085    1.306889438    6.844202511
    1.958764608    6.846668762    1.306369606    6.834060772
    1.965943239    6.836411364    1.305849761    6.823918485
    1.973121870    6.826154087    1.305329911    6.813775843
    1.980300501    6.815897124    1.304810066    6.803633038
    1.987479132    6.805640668    1.304290235    6.793490264
    1.994657763    6.795384910    1.303770426    6.783347709
    2.001836394    6.785130041    1.303250649    6.773205562
    2.009015025    6.774876247    1.302730912    6.763064011
    2.016193656    6.764623717    1.302211224    6.752923242
    2.023372287    6.754372634    1.301691593    6.742783438
    2.030550918    6.744123184    1.301172029    6.732644783
    2.037729549    6.733875548    1.300652541    6.722507459
    2.044908180    6.723629907    1.300133135    6.712371645
    2.052086811    6.713386440    1.299613822    6.702237521
    2.059265442    6.703145326    1.299094609    6.692105263
    2.066444073    6.692906741    1.298575504    6.681975048
    2.073622705    6.682670861    1.298056516    6.671847051
    2.080801336    6.672437858    1.297537654    6.661721444
    2.087979967    6.662207905    1.297018925    6.651598399
    2.095158598    6.651981173    1.296500337    6.641478087
    2.102337229    6.641757831    1.295981898    6.631360676
    2.109515860    6.631538048    1.295463616    6.621246335
    2.116694491    6.621321989    1.294945500    6.611135229
    2.123873122    6.611109820    1.294427557    6.601027523
    2.131051753    6.600901704    1.293909794    6.590923382
    2.138230384    6.590697803    1.293392219    6.580822965
    2.145409015    6.580498280    1.292874841    6.570726436
    2.152587646    6.570303292    1.292357666    6.560633952
    2.159766277    6.560112998    1.291840702    6.550545673
    2.166944908    6.549927555    1.291323957    6.540461753
    2.174123539    6.539747117    1.290807438    6.530382350
    2.181302170    6.529571839    1.290291151    6.520307617
    2.188480801    6.519401874    1.289775106    6.510237705
    2.195659432    6.509237372    1.289259308    6.500172768
    2.202838063    6.499078483    1.288743765    6.490112953
    2.210016694    6.488925355    1.288228483    6.480058411
    2.217195326    6.478778136    1.287713471    6.470009288
    2.224373957    6.468636972    1.287198735    6.459965731
    2.231552588    6.458502005    1.286684281    6.449927883
    2.238731219    6.448373380    1.286170117    6.439895888
    2.245909850    6.438251238    1.285656249    6.429869888
    2.253088481    6.428135719    1.285142684    6.419850024
    2.260267112    6.418026963    1.284629430    6.409836435
    2.267445743    6.407925106    1.284116491    6.399829259
    2.274624374    6.397830285    1.283603876    6.389828633
    2.281803005    6.387742636    1.283091590    6.379834692
    2.288981636    6.377662291    1.282579640    6.369847570
    2.296160267    6.367589383    1.282068032    6.359867402
    2.303338898    6.357524043    1.281556772    6.349894317
    2.310517529    6.347466401    1.281045867    6.339928446
    2.317696160    6.337416586    1.280535324    6.329969919
    2.324874791    6.327374724    1.280025147    6.320018864
    2.332053422    6.317340941    1.279515343    6.310075406
    2.339232053    6.307315362    1.279005919    6.300139672
    2.346410684    6.297298111    1.278496880    6.290211785
    2.353589316    6.287289309    1.277988232    6.280291868
    2.360767947    6.277289077    1.277479981    6.270380043
    2.367946578    6.267297536    1.276972133    6.260476430
    2.375125209    6.257314802    1.276464693    6.250581149
    2.382303840    6.247340994    1.275957668    6.240694318
    2.389482471    6.237376227    1.275451062    6.230816052
    2.396661102    6.227420616    1.274944882    6.220946468
    2.403839733    6.217474273    1.274439132    6.211085680
    2.411018364    6.207537313    1.273933819    6.201233801
    2.418196995    6.197609844    1.273428948    6.191390944
    2.425375626    6.187691978    1.272924524    6.181557218
    2.432554257    6.177783823    1.272420553    6.171732734
    2.439732888    6.167885486    1.271917039    6.161917600
    2.446911519    6.157997073    1.271413988    6.152111923
    2.454090150    6.148118690    1.270911405    6.142315810
    2.461268781    6.138250440    1.270409296    6.132529365
    2.468447412    6.128392425    1.269907664    6.122752691
    2.475626043    6.118544749    1.269406516    6.112985893
    2.482804674    6.108707510    1.268905856    6.103229071
    2.489983306    6.098880809    1.268405689    6.093482325
    2.497161937    6.089064742    1.267906020    6.083745756
    2.504340568    6.079259408    1.267406854    6.074019460
    2.511519199    6.069464902    1.266908195    6.064303536
    2.518697830    6.059681318    1.266410048    6.054598078
    2.525876461    6.049908751    1.265912417    6.044903183
    2.533055092    6.040147292    1.265415308    6.035218943
    2.540233723    6.030397034    1.264918725    6.025545451
