# energy grid [eV]     epsr_x  epsr_y  epsr_z
#
    0.200000000    7.229624019    9.724157592   11.952954312
    0.207178631    7.230952101    9.726142772   11.955443456
    0.214357262    7.232327968    9.728199249   11.958022098
    0.221535893    7.233751723    9.730327162   11.960690422
    0.228714524    7.235223472    9.732526655   11.963448620
    0.235893155    7.236743325    9.734797876   11.966296891
    0.243071786    7.238311397    9.737140980   11.969235442
    0.250250417    7.239927808    9.739556126   11.972264488
    0.257429048    7.241592680    9.742043479   11.975384250
    0.264607679    7.243306141    9.744603211   11.978594957
    0.271786311    7.245068325    9.747235497   11.981896848
    0.278964942    7.246879366    9.749940520   11.985290168
    0.286143573    7.248739408    9.752718468   11.988775170
    0.293322204    7.250648595    9.755569535   11.992352117
    0.300500835    7.252607079    9.758493921   11.996021279
    0.307679466    7.254615017    9.761491833   11.999782935
    0.314858097    7.256672568    9.764563482   12.003637374
    0.322036728    7.258779899    9.767709088   12.007584892
    0.329215359    7.260937181    9.770928875   12.011625796
    0.336393990    7.263144592    9.774223077   12.015760402
    0.343572621    7.265402314    9.777591931   12.019989034
    0.350751252    7.267710534    9.781035682   12.024312028
    0.357929883    7.270069447    9.784554585   12.028729730
    0.365108514    7.272479253    9.788148897   12.033242495
    0.372287145    7.274940158    9.791818887   12.037850689
    0.379465776    7.277452374    9.795564827   12.042554691
    0.386644407    7.280016119    9.799387002   12.047354887
    0.393823038    7.282631621    9.803285700   12.052251679
    0.401001669    7.285299111    9.807261220   12.057245479
    0.408180301    7.288018830    9.811313868   12.062336710
    0.415358932    7.290791023    9.815443958   12.067525809
    0.422537563    7.293615946    9.819651814   12.072813226
    0.429716194    7.296493862    9.823937768   12.078199424
    0.436894825    7.299425042    9.828302161   12.083684880
    0.444073456    7.302409764    9.832745346   12.089270086
    0.451252087    7.305448316    9.837267681   12.094955547
    0.458430718    7.308540995    9.841869539   12.100741786
    0.465609349    7.311688108    9.846551300   12.106629338
    0.472787980    7.314889971    9.851313355   12.112618759
    0.479966611    7.318146911    9.856156108   12.118710619
    0.487145242    7.321459263    9.861079973   12.124905507
    0.494323873    7.324827376    9.866085376   12.131204030
    0.501502504    7.328251610    9.871172756   12.137606814
    0.508681135    7.331732336    9.876342564   12.144114507
    0.515859766    7.335269938    9.881595263   12.150727775
    0.523038397    7.338864813    9.886931334   12.157447309
    0.530217028    7.342517372    9.892351267   12.164273820
    0.537395659    7.346228041    9.897855571   12.171208045
    0.544574290    7.349997258    9.903444769   12.178250746
    0.551752922    7.353825481    9.909119399   12.185402708
    0.558931553    7.357713183    9.914880020   12.192664749
    0.566110184    7.361660854    9.920727204   12.200037712
    0.573288815    7.365669002    9.926661545   12.207522471
    0.580467446    7.369738157    9.932683655   12.215119934
    0.587646077    7.373868866    9.938794168   12.222831042
    0.594824708    7.378061701    9.944993738   12.230656771
    0.602003339    7.382317256    9.951283043   12.238598136
    0.609181970    7.386636148    9.957662784   12.246656191
    0.616360601    7.391019021    9.964133689   12.254832034
    0.623539232    7.395466547    9.970696511   12.263126806
    0.630717863    7.399979427    9.977352034   12.271541699
    0.637896494    7.404558392    9.984101069   12.280077953
    0.645075125    7.409204208    9.990944462   12.288736864
    0.652253756    7.413917676    9.997883092   12.297519786
    0.659432387    7.418699634   10.004917874   12.306428134
    0.666611018    7.423550961   10.012049761   12.315463392
    0.673789649    7.428472581   10.019279751   12.324627113
    0.680968280    7.433465463   10.026608884   12.333920926
    0.688146912    7.438530628   10.034038246   12.343346545
    0.695325543    7.443669152   10.041568979   12.352905771
    0.702504174    7.448882167   10.049202277   12.362600501
    0.709682805    7.454170871   10.056939393   12.372432736
    0.716861436    7.459536530   10.064781648   12.382404587
    0.724040067    7.464980486   10.072730429   12.392518291
    0.731218698    7.470504161   10.080787201   12.402776214
    0.738397329    7.476109065   10.088953511   12.413180867
    0.745575960    7.481796807   10.097230996   12.423734919
    0.752754591    7.487569100   10.105621390   12.434441210
    0.759933222    7.493427774   10.114126536   12.445302770
    0.767111853    7.499374786   10.122748394   12.456322837
    0.774290484    7.505412235   10.131489054   12.467504875
    0.781469115    7.511542372   10.140350748   12.478852603
    0.788647746    7.517767623   10.149335868   12.490370018
    0.795826377    7.524090602   10.158446980   12.502061426
    0.803005008    7.530514137   10.167686845   12.513931478
    0.810183639    7.537041289   10.177058440   12.525985210
    0.817362270    7.543675387   10.186564988   12.538228088
    0.824540902    7.550420053   10.196209982   12.550666059
    0.831719533    7.557279246   10.205997223   12.563305614
    0.838898164    7.564257299   10.215930856   12.576153859
    0.846076795    7.571358974   10.226015421   12.589218593
    0.853255426    7.578589516   10.236255903   12.602508408
    0.860434057    7.585954727   10.246657795   12.616032796
    0.867612688    7.593461042   10.257227176   12.629802286
    0.874791319    7.601115627   10.267970795   12.643828597
    0.881969950    7.608926491   10.278896180   12.658124824
    0.889148581    7.616902627   10.290011759   12.672705664
    0.896327212    7.625054167   10.301327014   12.687587675
    0.903505843    7.633392587   10.312852665   12.702789609
    0.910684474    7.641930945   10.324600889   12.718332796
    0.917863105    7.650684173   10.336585594   12.734241631
    0.925041736    7.659669442   10.348822754   12.750544166
    0.932220367    7.668906616   10.361330832   12.767272847
    0.939398998    7.678418809   10.374131295   12.784465438
    0.946577629    7.688233103   10.387249282   12.802166184
    0.953756260    7.698381454   10.400714444   12.820427300
    0.960934891    7.708901858   10.414562025   12.839310877
    0.968113523    7.719839863   10.428834274   12.858891362
    0.975292154    7.731250562   10.443582287   12.879258812
    0.982470785    7.743201228   10.458868468   12.900523212
    0.989649416    7.755774854   10.474769813   12.922820274
    0.996828047    7.769074969   10.491382401   12.946319320
    1.004006678    7.783232258   10.508827544   12.971234121
    1.011185309    7.798413773   10.527260372   12.997837980
    1.018363940    7.814835864   10.546881866   13.026484911
    1.025542571    7.832782440   10.567955869   13.057639543
    1.032721202    7.852630600   10.590832952   13.091919090
    1.039899833    7.874885547   10.615982939   13.130150536
    1.047078464    7.900223663   10.644035027   13.173441177
    1.054257095    7.929527881   10.675810731   13.223236552
    1.061435726    7.963839793   10.712279221   13.281241992
    1.068614357    8.003916807   10.754144624   13.348697366
    1.075792988    8.048144091   10.799900157   13.422957303
    1.082971619    8.084052710   10.837923975   13.483599860
    1.090150250    8.061603680   10.821582962   13.448671952
    1.097328881    7.884149263   10.660809640   13.159886030
    1.104507513    7.634603785   10.432867066   12.753035870
    1.111686144    7.538233905   10.347673584   12.597055611
    1.118864775    7.553719701   10.366719103   12.624271887
    1.126043406    7.597715825   10.412329909   12.698183392
    1.133222037    7.642272644   10.458453699   12.773014353
    1.140400668    7.681780733   10.499855472   12.839577288
    1.147579299    7.716212740   10.536500648   12.897827170
    1.154757930    7.746590728   10.569330820   12.949438147
    1.161936561    7.773933505   10.599282374   12.996079790
    1.169115192    7.799066462   10.627108735   13.039106061
    1.176293823    7.822631126   10.653388569   13.079571569
    1.183472454    7.845130684   10.678567262   13.118307055
    1.190651085    7.866973521   10.702996254   13.155992077
    1.197829716    7.888508661   10.726964371   13.193215101
    1.205008347    7.910054535   10.750722334   13.230523587
    1.212186978    7.931923913   10.774502819   13.268468772
    1.219365609    7.954447417   10.798538003   13.307648344
    1.226544240    7.977996493   10.823075021   13.348743833
    1.233722871    8.003000811   10.848384604   13.392525290
    1.240901503    8.029932014   10.874738383   13.439700903
    1.248080134    8.059133154   10.902251983   13.490111686
    1.255258765    8.090030950   10.930202087   13.539381695
    1.262437396    8.118651029   10.954908493   13.568656948
    1.269616027    8.137515460   10.969670285   13.544364889
    1.276794658    8.156629944   10.982742323   13.505526806
    1.283973289    8.193059580   11.009337833   13.527783869
    1.291151920    8.228795268   11.039276881   13.577790036
    1.298330551    8.206294654   11.043301035   13.575153429
    1.305509182    8.037774482   10.980052327   13.423307599
    1.312687813    7.824996989   10.896322320   13.224866301
    1.319866444    7.757397739   10.879523396   13.173361270
    1.327045075    7.781794101   10.905167453   13.214763090
    1.334223706    7.827616123   10.940744396   13.277273792
    1.341402337    7.872672119   10.976057934   13.338454946
    1.348580968    7.912775460   11.009213800   13.394208746
    1.355759599    7.948124059   11.040338044   13.444878701
    1.362938230    7.979696026   11.069916346   13.491579962
    1.370116861    8.008425296   11.098415824   13.535366866
    1.377295492    8.035061994   11.126222830   13.577098051
    1.384474124    8.060189413   11.153653344   13.617460545
    1.391652755    8.084267680   11.180976304   13.657020903
    1.398831386    8.107674577   11.208436664   13.696274054
    1.406010017    8.130739431   11.236276787   13.735686541
    1.413188648    8.153771863   11.264757647   13.775736958
    1.420367279    8.177088000   11.294181531   13.816956957
    1.427545910    8.201035011   11.324915996   13.859972955
    1.434724541    8.226008179   11.357410349   13.905534953
    1.441903172    8.252429272   11.392162653   13.954465298
    1.449081803    8.280555497   11.429463937   14.007249522
    1.456260434    8.309594389   11.468225809   14.062156023
    1.463439065    8.334181997   11.501323354   14.107763861
    1.470617696    8.334298070   11.502263247   14.101570534
    1.477796327    8.279731791   11.431085596   13.979462677
    1.484974958    8.215515025   11.347291850   13.836923859
    1.492153589    8.206035185   11.335970377   13.810493715
    1.499332220    8.228061115   11.366393539   13.850868727
    1.506510851    8.257115205   11.406186917   13.906101718
    1.513689482    8.285830029   11.445593259   13.960536561
    1.520868114    8.312880696   11.482842293   14.011332179
    1.528046745    8.338391916   11.518079054   14.058719728
    1.535225376    8.362739550   11.551779075   14.103459489
    1.542404007    8.386279200   11.584388859   14.146263835
    1.549582638    8.409302458   11.616267123   14.187702718
    1.556761269    8.432045001   11.647694298   14.228218614
    1.563939900    8.454703343   11.678893135   14.268159113
    1.571118531    8.477450619   11.710047488   14.307806402
    1.578297162    8.500450232   11.741317539   14.347400744
    1.585475793    8.523868297   11.772852349   14.387159240
    1.592654424    8.547886248   11.804801073   14.427291855
    1.599833055    8.572715085   11.837324172   14.468016585
    1.607011686    8.598612682   11.870605797   14.509575388
    1.614190317    8.625904707   11.904867899   14.552251796
    1.621368948    8.655005635   11.940384055   14.596388367
    1.628547579    8.686419312   11.977480582   14.642391145
    1.635726210    8.720631513   12.016471510   14.690664997
    1.642904841    8.757540388   12.057311168   14.741251614
    1.650083472    8.794037217   12.098116783   14.792274390
    1.657262104    8.815385237   12.129902457   14.834379167
    1.664440735    8.781993466   12.128499826   14.842202877
    1.671619366    8.690233370   12.091707301   14.813678241
    1.678797997    8.645806805   12.084102177   14.817435910
    1.685976628    8.666079931   12.116273136   14.865042017
    1.693155259    8.708988537   12.162392921   14.929335110
    1.700333890    8.755145963   12.210051761   14.996027564
    1.707512521    8.795178159   12.251613514   15.050393561
    1.714691152    8.812208926   12.274947315   15.057677863
    1.721869783    8.788195583   12.283201841   14.995290028
    1.729048414    8.759186032   12.306225476   14.941781637
    1.736227045    8.770205557   12.346922314   14.962025270
    1.743405676    8.804793314   12.394293726   15.021928614
    1.750584307    8.844980447   12.443546804   15.091424790
    1.757762938    8.885519138   12.493854707   15.162050577
    1.764941569    8.925748053   12.545509800   15.232833499
    1.772120200    8.965975880   12.598804101   15.304159478
    1.779298831    9.005970527   12.652760823   15.374466978
    1.786477462    9.042518968   12.701185401   15.433182557
    1.793656093    9.065098595   12.725171024   15.447757716
    1.800834725    9.069410104   12.716652082   15.404196334
    1.808013356    9.085998632   12.728321628   15.392915320
    1.815191987    9.125137193   12.778316281   15.444255932
    1.822370618    9.172322561   12.844918291   15.517954316
    1.829549249    9.211792241   12.916305412   15.584141574
    1.836727880    9.217447422   12.985824760   15.610893492
    1.843906511    9.188760057   13.045694781   15.600782672
    1.851085142    9.181525400   13.085289128   15.625319536
    1.858263773    9.205639248   13.117185348   15.690945266
    1.865442404    9.255791502   13.183477440   15.771249428
    1.872621035    9.318552468   13.267474593   15.850357303
    1.879799666    9.373893759   13.318077246   15.914352955
    1.886978297    9.381386886   13.288025533   15.966078285
    1.894156928    9.284556646   13.137177759   16.021906131
    1.901335559    9.169977112   12.981423468   16.084153859
    1.908514190    9.160119560   12.968632548   16.133761094
    1.915692821    9.206785790   12.993883999   16.104200866
    1.922871452    9.258906812   12.994511857   16.006140999
    1.930050083    9.309134760   13.020674439   15.956933381
    1.937228715    9.367039750   13.097673398   15.994807326
    1.944407346    9.426788960   13.187597419   16.064031721
    1.951585977    9.482045117   13.268418549   16.133071497
    1.958764608    9.522864074   13.336418090   16.211690748
    1.965943239    9.501345062   13.319755100   16.280186014
    1.973121870    9.402323468   13.182326562   16.302644562
    1.980300501    9.351105822   13.094535544   16.290910888
    1.987479132    9.380832628   13.127100142   16.317478513
    1.994657763    9.441061572   13.214887231   16.388282671
    2.001836394    9.506204536   13.313003180   16.472975372
    2.009015025    9.567223134   13.407649774   16.558847310
    2.016193656    9.611985827   13.493190677   16.642852047
    2.023372287    9.618405084   13.562733243   16.724117063
    2.030550918    9.605642625   13.624206689   16.804392680
    2.037729549    9.627812800   13.697762678   16.887258666
    2.044908180    9.676559534   13.781575864   16.973196779
    2.052086811    9.732615788   13.869594625   17.062127032
    2.059265442    9.789355357   13.958384825   17.154353437
    2.066444073    9.843872981   14.038554846   17.249072755
    2.073622705    9.890090890   14.079605495   17.341246572
    2.080801336    9.922155860   14.053747368   17.423952463
    2.087979967    9.953801582   14.033161931   17.504884442
    2.095158598    9.998106300   14.072890279   17.599582154
    2.102337229   10.054355879   14.154454703   17.708858818
    2.109515860   10.112577517   14.244772666   17.780608866
    2.116694491   10.158493161   14.310745268   17.708290253
    2.123873122   10.189065342   14.324499843   17.505834229
    2.131051753   10.229614903   14.312687098   17.378629875
    2.138230384   10.292696011   14.349867747   17.408322019
    2.145409015   10.354091023   14.431129238   17.523143886
    2.152587646   10.369967913   14.519660789   17.650789235
    2.159766277   10.309730989   14.598003435   17.771414031
    2.166944908   10.235024897   14.673780816   17.892442880
    2.174123539   10.212469713   14.759243953   18.010854768
    2.181302170   10.231102879   14.854363624   18.094363537
    2.188480801   10.263169980   14.955648543   18.143512158
    2.195659432   10.320548033   15.062203319   18.229987888
    2.202838063   10.386754007   15.165514091   18.341878197
    2.210016694   10.424987137   15.244964912   18.413875263
    2.217195326   10.450168897   15.286598502   18.437900983
    2.224373957   10.501104768   15.251608684   18.405482639
    2.231552588   10.568823215   15.150578551   18.318756076
    2.238731219   10.652264532   15.146642992   18.339544228
    2.245909850   10.741666078   15.239570321   18.461687990
    2.253088481   10.806281172   15.362554938   18.603779647
    2.260267112   10.781995126   15.488983651   18.713959700
    2.267445743   10.673505915   15.612977664   18.788059022
    2.274624374   10.641083429   15.733336500   18.886039403
    2.281803005   10.690244841   15.836912136   18.998297041
    2.288981636   10.753726772   15.916780583   19.093123400
    2.296160267   10.831509713   16.015424493   19.208691244
    2.303338898   10.928145003   16.149604083   19.362013052
    2.310517529   11.032352502   16.300778174   19.534041385
    2.317696160   11.134458445   16.447359003   19.709695982
    2.324874791   11.213078959   16.537131955   19.858018963
    2.332053422   11.226283423   16.483387164   19.894437071
    2.339232053   11.173560160   16.344519595   19.752482549
    2.346410684   11.140431138   16.317036506   19.618145746
    2.353589316   11.166631833   16.420075704   19.666250632
    2.360767947   11.201716341   16.573602773   19.819824002
    2.367946578   11.254594805   16.744063739   19.998758233
    2.375125209   11.314808142   16.896423357   20.135158004
    2.382303840   11.354656388   16.973266091   20.151953579
    2.389482471   11.403432412   17.008841227   20.126637228
    2.396661102   11.453614405   17.094141184   20.215518552
    2.403839733   11.496653520   17.219210504   20.380741024
    2.411018364   11.577893018   17.380359739   20.543120004
    2.418196995   11.688490075   17.535476384   20.662665858
    2.425375626   11.797155400   17.642634760   20.788022238
    2.432554257   11.866392969   17.575974435   20.938463281
    2.439732888   11.881900909   17.338322770   21.085455557
    2.446911519   11.867865746   17.267547184   21.236551290
    2.454090150   11.813970088   17.374781516   21.352670243
    2.461268781   11.810258791   17.551022928   21.415785944
    2.468447412   11.889347276   17.751531437   21.484168937
    2.475626043   12.007405780   17.950952327   21.581468473
    2.482804674   12.132589430   18.141753640   21.733898570
    2.489983306   12.254566755   18.322875791   21.922556165
    2.497161937   12.372845102   18.519865168   22.120532553
    2.504340568   12.474936298   18.720476368   22.284904487
    2.511519199   12.564738149   18.906337447   22.413761246
    2.518697830   12.679346258   19.118925794   22.592705478
    2.525876461   12.821277773   19.372529787   22.830746235
    2.533055092   12.966753233   19.632866841   23.072369105
    2.540233723   13.086913253   19.852413658   23.256269171
