# energy grid [eV]     ieps_x  ieps_y  ieps_z
#
    0.200000000    4.340177243    5.775716005    7.382788782
    0.207178631    4.339412546    5.774557765    7.381291065
    0.214357262    4.338621433    5.773359445    7.379741551
    0.221535893    4.337803959    5.772121123    7.378140343
    0.228714524    4.336960182    5.770842879    7.376487546
    0.235893155    4.336090160    5.769524794    7.374783269
    0.243071786    4.335193953    5.768166953    7.373027624
    0.250250417    4.334271624    5.766769442    7.371220725
    0.257429048    4.333323234    5.765332351    7.369362691
    0.264607679    4.332348849    5.763855771    7.367453642
    0.271786311    4.331348536    5.762339796    7.365493700
    0.278964942    4.330322361    5.760784520    7.363482993
    0.286143573    4.329270395    5.759190042    7.361421650
    0.293322204    4.328192707    5.757556461    7.359309801
    0.300500835    4.327089370    5.755883881    7.357147582
    0.307679466    4.325960457    5.754172404    7.354935129
    0.314858097    4.324806042    5.752422137    7.352672582
    0.322036728    4.323626202    5.750633189    7.350360082
    0.329215359    4.322421014    5.748805669    7.347997775
    0.336393990    4.321190555    5.746939689    7.345585808
    0.343572621    4.319934907    5.745035364    7.343124329
    0.350751252    4.318654150    5.743092810    7.340613491
    0.357929883    4.317348367    5.741112145    7.338053448
    0.365108514    4.316017639    5.739093489    7.335444357
    0.372287145    4.314662053    5.737036962    7.332786376
    0.379465776    4.313281693    5.734942690    7.330079666
    0.386644407    4.311876646    5.732810796    7.327324391
    0.393823038    4.310447000    5.730641407    7.324520715
    0.401001669    4.308992844    5.728434654    7.321668806
    0.408180301    4.307514268    5.726190665    7.318768834
    0.415358932    4.306011361    5.723909573    7.315820969
    0.422537563    4.304484217    5.721591511    7.312825386
    0.429716194    4.302932927    5.719236616    7.309782259
    0.436894825    4.301357586    5.716845023    7.306691766
    0.444073456    4.299758288    5.714416872    7.303554086
    0.451252087    4.298135128    5.711952302    7.300369400
    0.458430718    4.296488203    5.709451454    7.297137890
    0.465609349    4.294817609    5.706914472    7.293859742
    0.472787980    4.293123446    5.704341500    7.290535140
    0.479966611    4.291405811    5.701732684    7.287164273
    0.487145242    4.289664804    5.699088172    7.283747331
    0.494323873    4.287900525    5.696408111    7.280284505
    0.501502504    4.286113076    5.693692652    7.276775986
    0.508681135    4.284302558    5.690941946    7.273221970
    0.515859766    4.282469074    5.688156146    7.269622652
    0.523038397    4.280612726    5.685335405    7.265978229
    0.530217028    4.278733619    5.682479879    7.262288900
    0.537395659    4.276831857    5.679589724    7.258554864
    0.544574290    4.274907546    5.676665098    7.254776324
    0.551752922    4.272960790    5.673706159    7.250953482
    0.558931553    4.270991697    5.670713068    7.247086541
    0.566110184    4.269000372    5.667685985    7.243175708
    0.573288815    4.266986924    5.664625072    7.239221188
    0.580467446    4.264951461    5.661530493    7.235223190
    0.587646077    4.262894091    5.658402412    7.231181923
    0.594824708    4.260814923    5.655240995    7.227097596
    0.602003339    4.258714066    5.652046407    7.222970421
    0.609181970    4.256591631    5.648818817    7.218800610
    0.616360601    4.254447728    5.645558392    7.214588377
    0.623539232    4.252282468    5.642265301    7.210333936
    0.630717863    4.250095963    5.638939716    7.206037504
    0.637896494    4.247888324    5.635581807    7.201699295
    0.645075125    4.245659664    5.632191745    7.197319529
    0.652253756    4.243410094    5.628769705    7.192898423
    0.659432387    4.241139730    5.625315860    7.188436198
    0.666611018    4.238848682    5.621830384    7.183933072
    0.673789649    4.236537066    5.618313453    7.179389268
    0.680968280    4.234204996    5.614765243    7.174805008
    0.688146912    4.231852586    5.611185931    7.170180514
    0.695325543    4.229479951    5.607575695    7.165516011
    0.702504174    4.227087205    5.603934712    7.160811723
    0.709682805    4.224674465    5.600263163    7.156067874
    0.716861436    4.222241847    5.596561227    7.151284692
    0.724040067    4.219789465    5.592829085    7.146462403
    0.731218698    4.217317437    5.589066917    7.141601234
    0.738397329    4.214825879    5.585274906    7.136701414
    0.745575960    4.212314908    5.581453234    7.131763172
    0.752754591    4.209784641    5.577602084    7.126786736
    0.759933222    4.207235195    5.573721640    7.121772338
    0.767111853    4.204666688    5.569812085    7.116720208
    0.774290484    4.202079237    5.565873605    7.111630576
    0.781469115    4.199472961    5.561906385    7.106503676
    0.788647746    4.196847978    5.557910610    7.101339739
    0.795826377    4.194204405    5.553886468    7.096138999
    0.803005008    4.191542362    5.549834143    7.090901688
    0.810183639    4.188861967    5.545753825    7.085628042
    0.817362270    4.186163340    5.541645700    7.080318293
    0.824540902    4.183446598    5.537509956    7.074972678
    0.831719533    4.180711862    5.533346783    7.069591431
    0.838898164    4.177959250    5.529156368    7.064174788
    0.846076795    4.175188882    5.524938901    7.058722986
    0.853255426    4.172400878    5.520694572    7.053236260
    0.860434057    4.169595356    5.516423570    7.047714848
    0.867612688    4.166772438    5.512126086    7.042158987
    0.874791319    4.163932243    5.507802311    7.036568915
    0.881969950    4.161074891    5.503452435    7.030944869
    0.889148581    4.158200501    5.499076649    7.025287088
    0.896327212    4.155309195    5.494675145    7.019595810
    0.903505843    4.152401091    5.490248115    7.013871273
    0.910684474    4.149476312    5.485795750    7.008113718
    0.917863105    4.146534976    5.481318243    7.002323383
    0.925041736    4.143577204    5.476815786    6.996500507
    0.932220367    4.140603117    5.472288571    6.990645330
    0.939398998    4.137612835    5.467736791    6.984758093
    0.946577629    4.134606478    5.463160639    6.978839035
    0.953756260    4.131584168    5.458560309    6.972888396
    0.960934891    4.128546024    5.453935992    6.966906416
    0.968113523    4.125492167    5.449287882    6.960893337
    0.975292154    4.122422717    5.444616173    6.954849398
    0.982470785    4.119337796    5.439921058    6.948774840
    0.989649416    4.116237523    5.435202731    6.942669904
    0.996828047    4.113122019    5.430461384    6.936534831
    1.004006678    4.109991405    5.425697212    6.930369862
    1.011185309    4.106845801    5.420910409    6.924175237
    1.018363940    4.103685327    5.416101167    6.917951197
    1.025542571    4.100510103    5.411269680    6.911697984
    1.032721202    4.097320251    5.406416143    6.905415838
    1.039899833    4.094115889    5.401540748    6.899105000
    1.047078464    4.090897139    5.396643690    6.892765711
    1.054257095    4.087664121    5.391725161    6.886398212
    1.061435726    4.084416954    5.386785355    6.880002743
    1.068614357    4.081155758    5.381824465    6.873579545
    1.075792988    4.077880653    5.376842686    6.867128859
    1.082971619    4.074591760    5.371840209    6.860650925
    1.090150250    4.071289197    5.366817228    6.854145983
    1.097328881    4.067973084    5.361773935    6.847614274
    1.104507513    4.064643542    5.356710524    6.841056038
    1.111686144    4.061300688    5.351627187    6.834471514
    1.118864775    4.057944642    5.346524117    6.827860942
    1.126043406    4.054575523    5.341401505    6.821224563
    1.133222037    4.051193451    5.336259544    6.814562614
    1.140400668    4.047798544    5.331098426    6.807875336
    1.147579299    4.044390921    5.325918342    6.801162967
    1.154757930    4.040970699    5.320719484    6.794425745
    1.161936561    4.037537999    5.315502042    6.787663910
    1.169115192    4.034092937    5.310266208    6.780877699
    1.176293823    4.030635632    5.305012172    6.774067350
    1.183472454    4.027166202    5.299740125    6.767233101
    1.190651085    4.023684764    5.294450257    6.760375189
    1.197829716    4.020191435    5.289142758    6.753493850
    1.205008347    4.016686334    5.283817816    6.746589323
    1.212186978    4.013169577    5.278475622    6.739661841
    1.219365609    4.009641282    5.273116363    6.732711643
    1.226544240    4.006101564    5.267740229    6.725738962
    1.233722871    4.002550540    5.262347407    6.718744035
    1.240901503    3.998988328    5.256938086    6.711727096
    1.248080134    3.995415042    5.251512453    6.704688379
    1.255258765    3.991830798    5.246070694    6.697628119
    1.262437396    3.988235713    5.240612997    6.690546549
    1.269616027    3.984629901    5.235139547    6.683443902
    1.276794658    3.981013478    5.229650530    6.676320411
    1.283973289    3.977386558    5.224146133    6.669176307
    1.291151920    3.973749257    5.218626538    6.662011823
    1.298330551    3.970101689    5.213091932    6.654827190
    1.305509182    3.966443967    5.207542498    6.647622639
    1.312687813    3.962776206    5.201978420    6.640398400
    1.319866444    3.959098519    5.196399881    6.633154702
    1.327045075    3.955411020    5.190807063    6.625891775
    1.334223706    3.951713821    5.185200149    6.618609847
    1.341402337    3.948007036    5.179579320    6.611309148
    1.348580968    3.944290776    5.173944758    6.603989903
    1.355759599    3.940565155    5.168296643    6.596652341
    1.362938230    3.936830284    5.162635155    6.589296687
    1.370116861    3.933086275    5.156960473    6.581923168
    1.377295492    3.929333238    5.151272778    6.574532009
    1.384474124    3.925571286    5.145572247    6.567123434
    1.391652755    3.921800528    5.139859057    6.559697668
    1.398831386    3.918021075    5.134133388    6.552254934
    1.406010017    3.914233037    5.128395415    6.544795454
    1.413188648    3.910436524    5.122645314    6.537319451
    1.420367279    3.906631645    5.116883262    6.529827147
    1.427545910    3.902818510    5.111109433    6.522318762
    1.434724541    3.898997226    5.105324002    6.514794516
    1.441903172    3.895167903    5.099527142    6.507254629
    1.449081803    3.891330648    5.093719027    6.499699319
    1.456260434    3.887485570    5.087899829    6.492128806
    1.463439065    3.883632775    5.082069721    6.484543305
    1.470617696    3.879772371    5.076228874    6.476943034
    1.477796327    3.875904464    5.070377457    6.469328209
    1.484974958    3.872029160    5.064515643    6.461699045
    1.492153589    3.868146566    5.058643599    6.454055757
    1.499332220    3.864256787    5.052761494    6.446398558
    1.506510851    3.860359928    5.046869498    6.438727661
    1.513689482    3.856456094    5.040967776    6.431043279
    1.520868114    3.852545390    5.035056496    6.423345623
    1.528046745    3.848627919    5.029135824    6.415634903
    1.535225376    3.844703785    5.023205924    6.407911330
    1.542404007    3.840773092    5.017266963    6.400175113
    1.549582638    3.836835942    5.011319103    6.392426461
    1.556761269    3.832892438    5.005362509    6.384665580
    1.563939900    3.828942682    4.999397342    6.376892677
    1.571118531    3.824986776    4.993423764    6.369107959
    1.578297162    3.821024821    4.987441937    6.361311630
    1.585475793    3.817056918    4.981452020    6.353503895
    1.592654424    3.813083167    4.975454174    6.345684958
    1.599833055    3.809103669    4.969448558    6.337855020
    1.607011686    3.805118522    4.963435329    6.330014284
    1.614190317    3.801127828    4.957414645    6.322162950
    1.621368948    3.797131684    4.951386662    6.314301219
    1.628547579    3.793130188    4.945351538    6.306429289
    1.635726210    3.789123439    4.939309426    6.298547360
    1.642904841    3.785111535    4.933260482    6.290655628
    1.650083472    3.781094572    4.927204858    6.282754290
    1.657262104    3.777072648    4.921142709    6.274843542
    1.664440735    3.773045858    4.915074185    6.266923578
    1.671619366    3.769014298    4.908999439    6.258994593
    1.678797997    3.764978064    4.902918621    6.251056780
    1.685976628    3.760937251    4.896831881    6.243110329
    1.693155259    3.756891954    4.890739367    6.235155434
    1.700333890    3.752842266    4.884641229    6.227192284
    1.707512521    3.748788281    4.878537613    6.219221068
    1.714691152    3.744730092    4.872428666    6.211241975
    1.721869783    3.740667793    4.866314534    6.203255193
    1.729048414    3.736601476    4.860195363    6.195260907
    1.736227045    3.732531231    4.854071296    6.187259304
    1.743405676    3.728457152    4.847942477    6.179250569
    1.750584307    3.724379329    4.841809049    6.171234885
    1.757762938    3.720297851    4.835671153    6.163212435
    1.764941569    3.716212811    4.829528931    6.155183400
    1.772120200    3.712124296    4.823382522    6.147147963
    1.779298831    3.708032396    4.817232067    6.139106303
    1.786477462    3.703937201    4.811077704    6.131058598
    1.793656093    3.699838797    4.804919571    6.123005028
    1.800834725    3.695737274    4.798757805    6.114945769
    1.808013356    3.691632717    4.792592541    6.106880997
    1.815191987    3.687525215    4.786423916    6.098810888
    1.822370618    3.683414853    4.780252064    6.090735616
    1.829549249    3.679301717    4.774077119    6.082655354
    1.836727880    3.675185893    4.767899213    6.074570274
    1.843906511    3.671067466    4.761718479    6.066480548
    1.851085142    3.666946520    4.755535049    6.058386346
    1.858263773    3.662823140    4.749349051    6.050287837
    1.865442404    3.658697408    4.743160617    6.042185191
    1.872621035    3.654569408    4.736969874    6.034078573
    1.879799666    3.650439223    4.730776952    6.025968151
    1.886978297    3.646306934    4.724581976    6.017854090
    1.894156928    3.642172624    4.718385074    6.009736555
    1.901335559    3.638036373    4.712186371    6.001615709
    1.908514190    3.633898262    4.705985991    5.993491714
    1.915692821    3.629758372    4.699784059    5.985364732
    1.922871452    3.625616782    4.693580697    5.977234924
    1.930050083    3.621473572    4.687376027    5.969102449
    1.937228715    3.617328820    4.681170172    5.960967465
    1.944407346    3.613182605    4.674963251    5.952830130
    1.951585977    3.609035004    4.668755384    5.944690600
    1.958764608    3.604886095    4.662546690    5.936549032
    1.965943239    3.600735955    4.656337287    5.928405579
    1.973121870    3.596584661    4.650127292    5.920260395
    1.980300501    3.592432287    4.643916822    5.912113633
    1.987479132    3.588278910    4.637705992    5.903965444
    1.994657763    3.584124605    4.631494918    5.895815978
    2.001836394    3.579969446    4.625283712    5.887665386
    2.009015025    3.575813507    4.619072488    5.879513816
    2.016193656    3.571656862    4.612861358    5.871361415
    2.023372287    3.567499583    4.606650434    5.863208330
    2.030550918    3.563341744    4.600439826    5.855054707
    2.037729549    3.559183416    4.594229645    5.846900690
    2.044908180    3.555024672    4.588019998    5.838746422
    2.052086811    3.550865582    4.581810995    5.830592046
    2.059265442    3.546706217    4.575602743    5.822437705
    2.066444073    3.542546647    4.569395347    5.814283538
    2.073622705    3.538386942    4.563188915    5.806129684
    2.080801336    3.534227171    4.556983550    5.797976284
    2.087979967    3.530067403    4.550779357    5.789823473
    2.095158598    3.525907706    4.544576439    5.781671390
    2.102337229    3.521748148    4.538374899    5.773520169
    2.109515860    3.517588797    4.532174838    5.765369945
    2.116694491    3.513429719    4.525976358    5.757220853
    2.123873122    3.509270981    4.519779557    5.749073023
    2.131051753    3.505112649    4.513584537    5.740926589
    2.138230384    3.500954787    4.507391394    5.732781681
    2.145409015    3.496797462    4.501200226    5.724638429
    2.152587646    3.492640737    4.495011132    5.716496961
    2.159766277    3.488484677    4.488824205    5.708357406
    2.166944908    3.484329345    4.482639543    5.700219889
    2.174123539    3.480174804    4.476457239    5.692084538
    2.181302170    3.476021118    4.470277387    5.683951476
    2.188480801    3.471868348    4.464100080    5.675820828
    2.195659432    3.467716555    4.457925410    5.667692717
    2.202838063    3.463565802    4.451753468    5.659567264
    2.210016694    3.459416148    4.445584345    5.651444590
    2.217195326    3.455267655    4.439418131    5.643324817
    2.224373957    3.451120381    4.433254915    5.635208062
    2.231552588    3.446974388    4.427094784    5.627094443
    2.238731219    3.442829732    4.420937827    5.618984079
    2.245909850    3.438686474    4.414784131    5.610877085
    2.253088481    3.434544670    4.408633780    5.602773576
    2.260267112    3.430404379    4.402486861    5.594673667
    2.267445743    3.426265657    4.396343457    5.586577471
    2.274624374    3.422128562    4.390203653    5.578485101
    2.281803005    3.417993149    4.384067530    5.570396667
    2.288981636    3.413859474    4.377935172    5.562312281
    2.296160267    3.409727592    4.371806660    5.554232052
    2.303338898    3.405597559    4.365682075    5.546156089
    2.310517529    3.401469428    4.359561495    5.538084499
    2.317696160    3.397343254    4.353445001    5.530017390
    2.324874791    3.393219090    4.347332671    5.521954867
    2.332053422    3.389096989    4.341224582    5.513897035
    2.339232053    3.384977004    4.335120812    5.505843998
    2.346410684    3.380859187    4.329021437    5.497795859
    2.353589316    3.376743590    4.322926531    5.489752722
    2.360767947    3.372630263    4.316836171    5.481714685
    2.367946578    3.368519259    4.310750429    5.473681852
    2.375125209    3.364410626    4.304669380    5.465654320
    2.382303840    3.360304416    4.298593096    5.457632188
    2.389482471    3.356200677    4.292521649    5.449615554
    2.396661102    3.352099459    4.286455109    5.441604515
    2.403839733    3.348000811    4.280393549    5.433599167
    2.411018364    3.343904781    4.274337036    5.425599605
    2.418196995    3.339811416    4.268285640    5.417605922
    2.425375626    3.335720764    4.262239431    5.409618213
    2.432554257    3.331632872    4.256198474    5.401636569
    2.439732888    3.327547787    4.250162838    5.393661082
    2.446911519    3.323465554    4.244132589    5.385691843
    2.454090150    3.319386220    4.238107792    5.377728941
    2.461268781    3.315309829    4.232088512    5.369772465
    2.468447412    3.311236427    4.226074813    5.361822504
    2.475626043    3.307166057    4.220066760    5.353879145
    2.482804674    3.303098765    4.214064414    5.345942473
    2.489983306    3.299034594    4.208067839    5.338012574
    2.497161937    3.294973586    4.202077095    5.330089534
    2.504340568    3.290915785    4.196092244    5.322173435
    2.511519199    3.286861233    4.190113346    5.314264361
    2.518697830    3.282809972    4.184140460    5.306362394
    2.525876461    3.278762043    4.178173645    5.298467615
    2.533055092    3.274717489    4.172212961    5.290580104
    2.540233723    3.270676349    4.166258463    5.282699941
