# energy grid [eV]     ieps_x  ieps_y  ieps_z
#
    0.200000000    9.000074462    8.466950531    2.238548346
    0.207178631    8.998185527    8.465031627    2.238270533
    0.214357262    8.996231121    8.463046335    2.237983146
    0.221535893    8.994211361    8.460994783    2.237686206
    0.228714524    8.992126364    8.458877107    2.237379735
    0.235893155    8.989976256    8.456693445    2.237063759
    0.243071786    8.987761161    8.454443939    2.236738300
    0.250250417    8.985481211    8.452128735    2.236403384
    0.257429048    8.983136538    8.449747983    2.236059035
    0.264607679    8.980727281    8.447301838    2.235705279
    0.271786311    8.978253579    8.444790457    2.235342143
    0.278964942    8.975715578    8.442214003    2.234969654
    0.286143573    8.973113423    8.439572640    2.234587839
    0.293322204    8.970447267    8.436866538    2.234196726
    0.300500835    8.967717262    8.434095870    2.233796344
    0.307679466    8.964923566    8.431260813    2.233386721
    0.314858097    8.962066340    8.428361547    2.232967887
    0.322036728    8.959145747    8.425398256    2.232539873
    0.329215359    8.956161955    8.422371128    2.232102708
    0.336393990    8.953115132    8.419280354    2.231656423
    0.343572621    8.950005454    8.416126127    2.231201051
    0.350751252    8.946833094    8.412908646    2.230736622
    0.357929883    8.943598234    8.409628113    2.230263169
    0.365108514    8.940301054    8.406284731    2.229780724
    0.372287145    8.936941740    8.402878710    2.229289321
    0.379465776    8.933520480    8.399410259    2.228788993
    0.386644407    8.930037465    8.395879594    2.228279774
    0.393823038    8.926492889    8.392286933    2.227761697
    0.401001669    8.922886948    8.388632495    2.227234799
    0.408180301    8.919219842    8.384916504    2.226699112
    0.415358932    8.915491772    8.381139189    2.226154673
    0.422537563    8.911702943    8.377300778    2.225601517
    0.429716194    8.907853564    8.373401504    2.225039680
    0.436894825    8.903943842    8.369441603    2.224469198
    0.444073456    8.899973993    8.365421314    2.223890108
    0.451252087    8.895944229    8.361340878    2.223302446
    0.458430718    8.891854770    8.357200539    2.222706250
    0.465609349    8.887705835    8.353000545    2.222101556
    0.472787980    8.883497647    8.348741145    2.221488403
    0.479966611    8.879230431    8.344422591    2.220866828
    0.487145242    8.874904414    8.340045138    2.220236869
    0.494323873    8.870519825    8.335609044    2.219598564
    0.501502504    8.866076898    8.331114568    2.218951952
    0.508681135    8.861575865    8.326561974    2.218297073
    0.515859766    8.857016964    8.321951526    2.217633963
    0.523038397    8.852400433    8.317283491    2.216962664
    0.530217028    8.847726513    8.312558140    2.216283214
    0.537395659    8.842995446    8.307775743    2.215595653
    0.544574290    8.838207479    8.302936575    2.214900020
    0.551752922    8.833362857    8.298040913    2.214196355
    0.558931553    8.828461830    8.293089036    2.213484699
    0.566110184    8.823504649    8.288081223    2.212765092
    0.573288815    8.818491566    8.283017757    2.212037574
    0.580467446    8.813422838    8.277898924    2.211302185
    0.587646077    8.808298720    8.272725011    2.210558967
    0.594824708    8.803119471    8.267496305    2.209807960
    0.602003339    8.797885352    8.262213099    2.209049205
    0.609181970    8.792596624    8.256875684    2.208282743
    0.616360601    8.787253552    8.251484355    2.207508615
    0.623539232    8.781856401    8.246039407    2.206726864
    0.630717863    8.776405439    8.240541140    2.205937529
    0.637896494    8.770900935    8.234989853    2.205140653
    0.645075125    8.765343159    8.229385847    2.204336277
    0.652253756    8.759732383    8.223729424    2.203524443
    0.659432387    8.754068881    8.218020891    2.202705193
    0.666611018    8.748352929    8.212260552    2.201878569
    0.673789649    8.742584802    8.206448715    2.201044612
    0.680968280    8.736764780    8.200585690    2.200203366
    0.688146912    8.730893141    8.194671787    2.199354871
    0.695325543    8.724970168    8.188707318    2.198499170
    0.702504174    8.718996141    8.182692596    2.197636306
    0.709682805    8.712971345    8.176627935    2.196766320
    0.716861436    8.706896064    8.170513652    2.195889255
    0.724040067    8.700770586    8.164350063    2.195005155
    0.731218698    8.694595197    8.158137488    2.194114060
    0.738397329    8.688370186    8.151876244    2.193216014
    0.745575960    8.682095843    8.145566654    2.192311059
    0.752754591    8.675772459    8.139209037    2.191399238
    0.759933222    8.669400326    8.132803718    2.190480593
    0.767111853    8.662979737    8.126351020    2.189555168
    0.774290484    8.656510986    8.119851267    2.188623005
    0.781469115    8.649994369    8.113304785    2.187684147
    0.788647746    8.643430183    8.106711900    2.186738636
    0.795826377    8.636818723    8.100072941    2.185786516
    0.803005008    8.630160289    8.093388234    2.184827829
    0.810183639    8.623455180    8.086658109    2.183862619
    0.817362270    8.616703695    8.079882897    2.182890927
    0.824540902    8.609906135    8.073062926    2.181912798
    0.831719533    8.603062803    8.066198528    2.180928274
    0.838898164    8.596174000    8.059290036    2.179937397
    0.846076795    8.589240030    8.052337781    2.178940212
    0.853255426    8.582261197    8.045342097    2.177936760
    0.860434057    8.575237805    8.038303316    2.176927085
    0.867612688    8.568170161    8.031221774    2.175911230
    0.874791319    8.561058569    8.024097804    2.174889237
    0.881969950    8.553903337    8.016931742    2.173861150
    0.889148581    8.546704772    8.009723923    2.172827012
    0.896327212    8.539463182    8.002474683    2.171786865
    0.903505843    8.532178875    7.995184358    2.170740752
    0.910684474    8.524852161    7.987853285    2.169688717
    0.917863105    8.517483349    7.980481799    2.168630802
    0.925041736    8.510072748    7.973070239    2.167567050
    0.932220367    8.502620670    7.965618942    2.166497504
    0.939398998    8.495127424    7.958128244    2.165422207
    0.946577629    8.487593324    7.950598485    2.164341202
    0.953756260    8.480018679    7.943030000    2.163254531
    0.960934891    8.472403801    7.935423129    2.162162238
    0.968113523    8.464749004    7.927778209    2.161064364
    0.975292154    8.457054600    7.920095579    2.159960953
    0.982470785    8.449320902    7.912375576    2.158852048
    0.989649416    8.441548222    7.904618538    2.157737690
    0.996828047    8.433736875    7.896824803    2.156617924
    1.004006678    8.425887173    7.888994710    2.155492791
    1.011185309    8.417999430    7.881128596    2.154362333
    1.018363940    8.410073961    7.873226798    2.153226594
    1.025542571    8.402111079    7.865289655    2.152085616
    1.032721202    8.394111099    7.857317503    2.150939442
    1.039899833    8.386074334    7.849310681    2.149788113
    1.047078464    8.378001099    7.841269524    2.148631672
    1.054257095    8.369891708    7.833194369    2.147470161
    1.061435726    8.361746476    7.825085554    2.146303623
    1.068614357    8.353565717    7.816943413    2.145132100
    1.075792988    8.345349744    7.808768284    2.143955634
    1.082971619    8.337098873    7.800560500    2.142774267
    1.090150250    8.328813417    7.792320398    2.141588041
    1.097328881    8.320493691    7.784048312    2.140396998
    1.104507513    8.312140008    7.775744575    2.139201180
    1.111686144    8.303752682    7.767409523    2.138000629
    1.118864775    8.295332027    7.759043488    2.136795387
    1.126043406    8.286878356    7.750646802    2.135585495
    1.133222037    8.278391983    7.742219799    2.134370995
    1.140400668    8.269873220    7.733762810    2.133151929
    1.147579299    8.261322381    7.725276165    2.131928338
    1.154757930    8.252739777    7.716760196    2.130700264
    1.161936561    8.244125721    7.708215233    2.129467748
    1.169115192    8.235480525    7.699641604    2.128230832
    1.176293823    8.226804500    7.691039638    2.126989556
    1.183472454    8.218097958    7.682409664    2.125743962
    1.190651085    8.209361210    7.673752008    2.124494091
    1.197829716    8.200594565    7.665066997    2.123239984
    1.205008347    8.191798334    7.656354957    2.121981683
    1.212186978    8.182972827    7.647616213    2.120719227
    1.219365609    8.174118353    7.638851090    2.119452657
    1.226544240    8.165235221    7.630059910    2.118182015
    1.233722871    8.156323738    7.621242996    2.116907341
    1.240901503    8.147384213    7.612400670    2.115628676
    1.248080134    8.138416952    7.603533253    2.114346059
    1.255258765    8.129422264    7.594641066    2.113059532
    1.262437396    8.120400453    7.585724426    2.111769134
    1.269616027    8.111351825    7.576783654    2.110474906
    1.276794658    8.102276685    7.567819065    2.109176888
    1.283973289    8.093175339    7.558830977    2.107875120
    1.291151920    8.084048088    7.549819704    2.106569641
    1.298330551    8.074895237    7.540785562    2.105260492
    1.305509182    8.065717089    7.531728864    2.103947711
    1.312687813    8.056513944    7.522649922    2.102631340
    1.319866444    8.047286104    7.513549048    2.101311417
    1.327045075    8.038033870    7.504426552    2.099987981
    1.334223706    8.028757540    7.495282744    2.098661073
    1.341402337    8.019457415    7.486117931    2.097330730
    1.348580968    8.010133792    7.476932422    2.095996993
    1.355759599    8.000786969    7.467726522    2.094659899
    1.362938230    7.991417243    7.458500536    2.093319489
    1.370116861    7.982024908    7.449254769    2.091975801
    1.377295492    7.972610262    7.439989522    2.090628872
    1.384474124    7.963173597    7.430705098    2.089278743
    1.391652755    7.953715207    7.421401797    2.087925451
    1.398831386    7.944235385    7.412079918    2.086569035
    1.406010017    7.934734423    7.402739759    2.085209532
    1.413188648    7.925212611    7.393381618    2.083846981
    1.420367279    7.915670239    7.384005790    2.082481420
    1.427545910    7.906107597    7.374612569    2.081112886
    1.434724541    7.896524972    7.365202248    2.079741418
    1.441903172    7.886922652    7.355775120    2.078367053
    1.449081803    7.877300923    7.346331475    2.076989828
    1.456260434    7.867660070    7.336871603    2.075609781
    1.463439065    7.858000378    7.327395792    2.074226948
    1.470617696    7.848322130    7.317904328    2.072841368
    1.477796327    7.838625609    7.308397498    2.071453076
    1.484974958    7.828911096    7.298875585    2.070062111
    1.492153589    7.819178871    7.289338873    2.068668507
    1.499332220    7.809429213    7.279787643    2.067272303
    1.506510851    7.799662402    7.270222175    2.065873535
    1.513689482    7.789878714    7.260642749    2.064472238
    1.520868114    7.780078426    7.251049641    2.063068449
    1.528046745    7.770261813    7.241443130    2.061662204
    1.535225376    7.760429148    7.231823488    2.060253539
    1.542404007    7.750580706    7.222190990    2.058842490
    1.549582638    7.740716758    7.212545907    2.057429093
    1.556761269    7.730837575    7.202888512    2.056013382
    1.563939900    7.720943426    7.193219072    2.054595394
    1.571118531    7.711034580    7.183537856    2.053175163
    1.578297162    7.701111305    7.173845131    2.051752724
    1.585475793    7.691173868    7.164141161    2.050328113
    1.592654424    7.681222532    7.154426210    2.048901365
    1.599833055    7.671257564    7.144700541    2.047472514
    1.607011686    7.661279224    7.134964414    2.046041594
    1.614190317    7.651287776    7.125218090    2.044608640
    1.621368948    7.641283479    7.115461825    2.043173686
    1.628547579    7.631266593    7.105695876    2.041736767
    1.635726210    7.621237377    7.095920499    2.040297916
    1.642904841    7.611196087    7.086135947    2.038857167
    1.650083472    7.601142979    7.076342472    2.037414553
    1.657262104    7.591078308    7.066540325    2.035970109
    1.664440735    7.581002327    7.056729755    2.034523868
    1.671619366    7.570915288    7.046911010    2.033075862
    1.678797997    7.560817442    7.037084336    2.031626125
    1.685976628    7.550709039    7.027249979    2.030174690
    1.693155259    7.540590327    7.017408181    2.028721590
    1.700333890    7.530461554    7.007559184    2.027266856
    1.707512521    7.520322966    6.997703229    2.025810523
    1.714691152    7.510174807    6.987840554    2.024352621
    1.721869783    7.500017320    6.977971398    2.022893184
    1.729048414    7.489850748    6.968095995    2.021432243
    1.736227045    7.479675332    6.958214580    2.019969830
    1.743405676    7.469491311    6.948327387    2.018505976
    1.750584307    7.459298924    6.938434646    2.017040714
    1.757762938    7.449098407    6.928536588    2.015574075
    1.764941569    7.438889997    6.918633440    2.014106089
    1.772120200    7.428673928    6.908725431    2.012636789
    1.779298831    7.418450433    6.898812784    2.011166205
    1.786477462    7.408219744    6.888895725    2.009694367
    1.793656093    7.397982092    6.878974475    2.008221307
    1.800834725    7.387737706    6.869049256    2.006747054
    1.808013356    7.377486813    6.859120287    2.005271640
    1.815191987    7.367229641    6.849187785    2.003795094
    1.822370618    7.356966415    6.839251968    2.002317446
    1.829549249    7.346697358    6.829313049    2.000838727
    1.836727880    7.336422694    6.819371243    1.999358965
    1.843906511    7.326142644    6.809426761    1.997878190
    1.851085142    7.315857428    6.799479814    1.996396433
    1.858263773    7.305567264    6.789530610    1.994913721
    1.865442404    7.295272371    6.779579357    1.993430084
    1.872621035    7.284972964    6.769626261    1.991945551
    1.879799666    7.274669257    6.759671526    1.990460150
    1.886978297    7.264361464    6.749715356    1.988973911
    1.894156928    7.254049798    6.739757950    1.987486861
    1.901335559    7.243734469    6.729799510    1.985999029
    1.908514190    7.233415686    6.719840233    1.984510443
    1.915692821    7.223093657    6.709880317    1.983021130
    1.922871452    7.212768590    6.699919957    1.981531119
    1.930050083    7.202440688    6.689959347    1.980040438
    1.937228715    7.192110158    6.679998680    1.978549112
    1.944407346    7.181777200    6.670038145    1.977057171
    1.951585977    7.171442017    6.660077934    1.975564641
    1.958764608    7.161104808    6.650118233    1.974071549
    1.965943239    7.150765772    6.640159229    1.972577921
    1.973121870    7.140425106    6.630201108    1.971083785
    1.980300501    7.130083007    6.620244053    1.969589166
    1.987479132    7.119739668    6.610288246    1.968094092
    1.994657763    7.109395284    6.600333868    1.966598589
    2.001836394    7.099050046    6.590381098    1.965102681
    2.009015025    7.088704145    6.580430113    1.963606396
    2.016193656    7.078357769    6.570481091    1.962109759
    2.023372287    7.068011108    6.560534205    1.960612795
    2.030550918    7.057664347    6.550589630    1.959115530
    2.037729549    7.047317671    6.540647537    1.957617988
    2.044908180    7.036971265    6.530708096    1.956120196
    2.052086811    7.026625312    6.520771478    1.954622177
    2.059265442    7.016279991    6.510837848    1.953123957
    2.066444073    7.005935484    6.500907375    1.951625561
    2.073622705    6.995591969    6.490980222    1.950127011
    2.080801336    6.985249623    6.481056553    1.948628334
    2.087979967    6.974908622    6.471136529    1.947129552
    2.095158598    6.964569141    6.461220312    1.945630690
    2.102337229    6.954231352    6.451308061    1.944131771
    2.109515860    6.943895429    6.441399932    1.942632819
    2.116694491    6.933561541    6.431496084    1.941133858
    2.123873122    6.923229857    6.421596670    1.939634911
    2.131051753    6.912900547    6.411701844    1.938136001
    2.138230384    6.902573776    6.401811759    1.936637150
    2.145409015    6.892249710    6.391926565    1.935138382
    2.152587646    6.881928513    6.382046411    1.933639719
    2.159766277    6.871610347    6.372171446    1.932141184
    2.166944908    6.861295375    6.362301817    1.930642800
    2.174123539    6.850983756    6.352437668    1.929144587
    2.181302170    6.840675650    6.342579145    1.927646569
    2.188480801    6.830371213    6.332726388    1.926148767
    2.195659432    6.820070602    6.322879541    1.924651202
    2.202838063    6.809773973    6.313038742    1.923153897
    2.210016694    6.799481478    6.303204131    1.921656873
    2.217195326    6.789193271    6.293375844    1.920160151
    2.224373957    6.778909502    6.283554018    1.918663752
    2.231552588    6.768630322    6.273738788    1.917167697
    2.238731219    6.758355878    6.263930286    1.915672006
    2.245909850    6.748086319    6.254128646    1.914176701
    2.253088481    6.737821791    6.244333997    1.912681802
    2.260267112    6.727562438    6.234546469    1.911187329
    2.267445743    6.717308403    6.224766190    1.909693302
    2.274624374    6.707059830    6.214993288    1.908199742
    2.281803005    6.696816860    6.205227887    1.906706668
    2.288981636    6.686579631    6.195470113    1.905214099
    2.296160267    6.676348284    6.185720088    1.903722056
    2.303338898    6.666122954    6.175977935    1.902230558
    2.310517529    6.655903779    6.166243773    1.900739623
    2.317696160    6.645690893    6.156517723    1.899249272
    2.324874791    6.635484430    6.146799901    1.897759523
    2.332053422    6.625284523    6.137090427    1.896270394
    2.339232053    6.615091302    6.127389413    1.894781905
    2.346410684    6.604904898    6.117696977    1.893294074
    2.353589316    6.594725440    6.108013229    1.891806919
    2.360767947    6.584553054    6.098338284    1.890320459
    2.367946578    6.574387869    6.088672250    1.888834711
    2.375125209    6.564230008    6.079015239    1.887349694
    2.382303840    6.554079597    6.069367357    1.885865425
    2.389482471    6.543936757    6.059728714    1.884381922
    2.396661102    6.533801611    6.050099414    1.882899201
    2.403839733    6.523674279    6.040479563    1.881417282
    2.411018364    6.513554881    6.030869264    1.879936180
    2.418196995    6.503443534    6.021268620    1.878455913
    2.425375626    6.493340357    6.011677732    1.876976498
    2.432554257    6.483245464    6.002096700    1.875497951
    2.439732888    6.473158970    5.992525624    1.874020289
    2.446911519    6.463080990    5.982964602    1.872543528
    2.454090150    6.453011635    5.973413730    1.871067685
    2.461268781    6.442951017    5.963873105    1.869592776
    2.468447412    6.432899246    5.954342820    1.868118817
    2.475626043    6.422856431    5.944822970    1.866645824
    2.482804674    6.412822681    5.935313647    1.865173813
    2.489983306    6.402798101    5.925814942    1.863702798
    2.497161937    6.392782798    5.916326945    1.862232797
    2.504340568    6.382776876    5.906849745    1.860763823
    2.511519199    6.372780440    5.897383432    1.859295893
    2.518697830    6.362793590    5.887928091    1.857829020
    2.525876461    6.352816429    5.878483808    1.856363222
    2.533055092    6.342849058    5.869050669    1.854898511
    2.540233723    6.332891574    5.859628757    1.853434902
