# energy grid [eV]     epsr_x  epsr_y  epsr_z
#
    0.200000000    6.385677357    9.590413256    7.201052134
    0.207178631    6.386815636    9.591994093    7.202446970
    0.214357262    6.387994694    9.593631404    7.203891821
    0.221535893    6.389214596    9.595325266    7.205386774
    0.228714524    6.390475413    9.597075758    7.206931921
    0.235893155    6.391777218    9.598882964    7.208527354
    0.243071786    6.393120084    9.600746969    7.210173172
    0.250250417    6.394504091    9.602667861    7.211869475
    0.257429048    6.395929316    9.604645731    7.213616366
    0.264607679    6.397395844    9.606680674    7.215413952
    0.271786311    6.398903758    9.608772786    7.217262342
    0.278964942    6.400453146    9.610922167    7.219161652
    0.286143573    6.402044098    9.613128921    7.221111996
    0.293322204    6.403676708    9.615393152    7.223113496
    0.300500835    6.405351069    9.617714970    7.225166275
    0.307679466    6.407067281    9.620094486    7.227270459
    0.314858097    6.408825444    9.622531815    7.229426179
    0.322036728    6.410625660    9.625027075    7.231633569
    0.329215359    6.412468037    9.627580388    7.233892766
    0.336393990    6.414352683    9.630191876    7.236203910
    0.343572621    6.416279709    9.632861668    7.238567146
    0.350751252    6.418249229    9.635589893    7.240982622
    0.357929883    6.420261361    9.638376686    7.243450490
    0.365108514    6.422316225    9.641222183    7.245970904
    0.372287145    6.424413944    9.644126524    7.248544023
    0.379465776    6.426554643    9.647089852    7.251170009
    0.386644407    6.428738451    9.650112315    7.253849030
    0.393823038    6.430965499    9.653194063    7.256581255
    0.401001669    6.433235923    9.656335249    7.259366858
    0.408180301    6.435549860    9.659536030    7.262206016
    0.415358932    6.437907450    9.662796567    7.265098912
    0.422537563    6.440308839    9.666117023    7.268045731
    0.429716194    6.442754172    9.669497568    7.271046662
    0.436894825    6.445243600    9.672938371    7.274101899
    0.444073456    6.447777276    9.676439608    7.277211640
    0.451252087    6.450355357    9.680001457    7.280376087
    0.458430718    6.452978004    9.683624102    7.283595445
    0.465609349    6.455645379    9.687307728    7.286869925
    0.472787980    6.458357649    9.691052527    7.290199742
    0.479966611    6.461114985    9.694858691    7.293585113
    0.487145242    6.463917560    9.698726419    7.297026263
    0.494323873    6.466765551    9.702655914    7.300523419
    0.501502504    6.469659140    9.706647381    7.304076813
    0.508681135    6.472598511    9.710701032    7.307686682
    0.515859766    6.475583852    9.714817082    7.311353267
    0.523038397    6.478615356    9.718995749    7.315076814
    0.530217028    6.481693218    9.723237258    7.318857574
    0.537395659    6.484817637    9.727541836    7.322695802
    0.544574290    6.487988818    9.731909717    7.326591759
    0.551752922    6.491206969    9.736341136    7.330545710
    0.558931553    6.494472301    9.740836338    7.334557926
    0.566110184    6.497785030    9.745395568    7.338628681
    0.573288815    6.501145377    9.750019079    7.342758257
    0.580467446    6.504553566    9.754707127    7.346946940
    0.587646077    6.508009826    9.759459975    7.351195019
    0.594824708    6.511514391    9.764277889    7.355502793
    0.602003339    6.515067498    9.769161142    7.359870564
    0.609181970    6.518669391    9.774110013    7.364298638
    0.616360601    6.522320317    9.779124784    7.368787329
    0.623539232    6.526020528    9.784205746    7.373336957
    0.630717863    6.529770281    9.789353193    7.377947845
    0.637896494    6.533569839    9.794567426    7.382620327
    0.645075125    6.537419470    9.799848752    7.387354737
    0.652253756    6.541319445    9.805197486    7.392151420
    0.659432387    6.545270044    9.810613946    7.397010724
    0.666611018    6.549271549    9.816098459    7.401933007
    0.673789649    6.553324251    9.821651359    7.406918629
    0.680968280    6.557428445    9.827272985    7.411967961
    0.688146912    6.561584431    9.832963685    7.417081378
    0.695325543    6.565792516    9.838723812    7.422259262
    0.702504174    6.570053015    9.844553730    7.427502003
    0.709682805    6.574366246    9.850453808    7.432809999
    0.716861436    6.578732537    9.856424423    7.438183652
    0.724040067    6.583152220    9.862465961    7.443623376
    0.731218698    6.587625635    9.868578817    7.449129589
    0.738397329    6.592153130    9.874763394    7.454702718
    0.745575960    6.596735058    9.881020103    7.460343198
    0.752754591    6.601371783    9.887349366    7.466051473
    0.759933222    6.606063672    9.893751614    7.471827992
    0.767111853    6.610811106    9.900227287    7.477673218
    0.774290484    6.615614468    9.906776837    7.483587617
    0.781469115    6.620474154    9.913400725    7.489571667
    0.788647746    6.625390567    9.920099424    7.495625855
    0.795826377    6.630364119    9.926873418    7.501750676
    0.803005008    6.635395233    9.933723204    7.507946635
    0.810183639    6.640484339    9.940649288    7.514214249
    0.817362270    6.645631879    9.947652194    7.520554041
    0.824540902    6.650838305    9.954732454    7.526966546
    0.831719533    6.656104080    9.961890617    7.533452312
    0.838898164    6.661429677    9.969127247    7.540011893
    0.846076795    6.666815583    9.976442921    7.546645858
    0.853255426    6.672262295    9.983838233    7.553354786
    0.860434057    6.677770323    9.991313792    7.560139268
    0.867612688    6.683340192    9.998870227    7.566999907
    0.874791319    6.688972437   10.006508183    7.573937317
    0.881969950    6.694667611   10.014228324    7.580952127
    0.889148581    6.700426280   10.022031334    7.588044978
    0.896327212    6.706249026   10.029917919    7.595216525
    0.903505843    6.712136447   10.037888806    7.602467436
    0.910684474    6.718089160   10.045944744    7.609798395
    0.917863105    6.724107797   10.054086508    7.617210100
    0.925041736    6.730193012   10.062314899    7.624703264
    0.932220367    6.736345475   10.070630743    7.632278618
    0.939398998    6.742565881   10.079034896    7.639936906
    0.946577629    6.748854945   10.087528244    7.647678892
    0.953756260    6.755213406   10.096111706    7.655505356
    0.960934891    6.761642025   10.104786234    7.663417099
    0.968113523    6.768141593   10.113552816    7.671414939
    0.975292154    6.774712926   10.122412481    7.679499713
    0.982470785    6.781356871   10.131366295    7.687672281
    0.989649416    6.788074303   10.140415372    7.695933523
    0.996828047    6.794866134   10.149560871    7.704284342
    1.004006678    6.801733308   10.158803999    7.712725664
    1.011185309    6.808676809   10.168146021    7.721258440
    1.018363940    6.815697660   10.177588257    7.729883647
    1.025542571    6.822796928   10.187132088    7.738602286
    1.032721202    6.829975725   10.196778963    7.747415391
    1.039899833    6.837235215   10.206530405    7.756324020
    1.047078464    6.844576612   10.216388009    7.765329267
    1.054257095    6.852001192   10.226353460    7.774432255
    1.061435726    6.859510291   10.236428531    7.783634143
    1.068614357    6.867105312   10.246615092    7.792936126
    1.075792988    6.874787734   10.256915125    7.802339438
    1.082971619    6.882559115   10.267330725    7.811845352
    1.090150250    6.890421097   10.277864117    7.821455186
    1.097328881    6.898375422   10.288517665    7.831170303
    1.104507513    6.906423934   10.299293888    7.840992115
    1.111686144    6.914568589   10.310195472    7.850922087
    1.118864775    6.922811472   10.321225289    7.860961739
    1.126043406    6.931154805   10.332386417    7.871112651
    1.133222037    6.939600964   10.343682160    7.881376467
    1.140400668    6.948152494   10.355116074    7.891754901
    1.147579299    6.956812130   10.366691997    7.902249742
    1.154757930    6.965582817   10.378414078    7.912862859
    1.161936561    6.974467737   10.390286816    7.923596210
    1.169115192    6.983470334   10.402315103    7.934451849
    1.176293823    6.992594352   10.414504272    7.945431934
    1.183472454    7.001843872   10.426860156    7.956538740
    1.190651085    7.011223355   10.439389154    7.967774665
    1.197829716    7.020737697   10.452098305    7.979142250
    1.205008347    7.030392290   10.464995387    7.990644190
    1.212186978    7.040193097   10.478089015    8.002283353
    1.219365609    7.050146735   10.491388774    8.014062799
    1.226544240    7.060260584   10.504905368    8.025985808
    1.233722871    7.070542905   10.518650800    8.038055903
    1.240901503    7.081002998   10.532638590    8.050276887
    1.248080134    7.091651376   10.546884040    8.062652881
    1.255258765    7.102499992   10.561404547    8.075188374
    1.262437396    7.113562512   10.576220003    8.087888278
    1.269616027    7.124854653   10.591353273    8.100758001
    1.276794658    7.136394609   10.606830803    8.113803529
    1.283973289    7.148203584   10.622683370    8.127031538
    1.291151920    7.160306467   10.638947043    8.140449525
    1.298330551    7.172732711   10.655664404    8.154065977
    1.305509182    7.185517451   10.672886122    8.167890586
    1.312687813    7.198702994   10.690673013    8.181934532
    1.319866444    7.212340771   10.709098747    8.196210842
    1.327045075    7.226493974   10.728253471    8.210734877
    1.334223706    7.241241122   10.748248693    8.225524981
    1.341402337    7.256680966   10.769223962    8.240603357
    1.348580968    7.272939302   10.791356094    8.255997284
    1.355759599    7.290178492   10.814872030    8.271740796
    1.362938230    7.308610782   10.840066747    8.287877015
    1.370116861    7.328516596   10.867327863    8.304461347
    1.377295492    7.350268045   10.897167493    8.321565600
    1.384474124    7.374352784   10.930255758    8.339282274
    1.391652755    7.401371699   10.967424072    8.357724786
    1.398831386    7.431897882   11.009501262    8.377005561
    1.406010017    7.465741323   11.056426115    8.397118570
    1.413188648    7.498852463   11.103475465    8.417441442
    1.420367279    7.512783936   11.128390355    8.435037570
    1.427545910    7.463936161   11.078218796    8.442921876
    1.434724541    7.367255090   10.971579840    8.443549456
    1.441903172    7.333820751   10.944117433    8.454835304
    1.449081803    7.358652217   10.986798783    8.475761346
    1.456260434    7.381717574   11.012916974    8.495598529
    1.463439065    7.341563334   10.913417373    8.501724401
    1.470617696    7.237427367   10.689444191    8.494222188
    1.477796327    7.187416373   10.573993270    8.499353224
    1.484974958    7.203087498   10.589534657    8.519711464
    1.492153589    7.238617784   10.645406828    8.545172321
    1.499332220    7.275179209   10.704232507    8.571622192
    1.506510851    7.308692004   10.757782510    8.598247500
    1.513689482    7.338998326   10.805623307    8.625139719
    1.520868114    7.366715599   10.848904306    8.652607292
    1.528046745    7.392492436   10.888886075    8.681025124
    1.535225376    7.416868436   10.926663818    8.710823336
    1.542404007    7.440275433   10.963172079    8.742510383
    1.549582638    7.463066076   10.999235465    8.776689810
    1.556761269    7.485542616   11.035571518    8.813997102
    1.563939900    7.507978851   11.072571733    8.854680677
    1.571118531    7.530625164   11.109209486    8.896734138
    1.578297162    7.553659328   11.138790325    8.928743282
    1.585475793    7.577033402   11.138871063    8.912956932
    1.592654424    7.600745658   11.089261372    8.815463917
    1.599833055    7.625938676   11.049871324    8.736718520
    1.607011686    7.652412095   11.059931228    8.742159432
    1.614190317    7.674630918   11.091381748    8.782841936
    1.621368948    7.674661537   11.125252822    8.820557323
    1.628547579    7.632200323   11.155508401    8.837902765
    1.635726210    7.592043828   11.184549615    8.855251574
    1.642904841    7.594450053   11.215409110    8.892451793
    1.650083472    7.617571327   11.247099261    8.940183242
    1.657262104    7.644806659   11.278990196    8.991738976
    1.664440735    7.671532781   11.311252854    9.046234136
    1.671619366    7.697008036   11.344320540    9.104760257
    1.678797997    7.721390257   11.378620962    9.168669834
    1.685976628    7.744966530   11.414123890    9.237601268
    1.693155259    7.767937496   11.448603773    9.302552759
    1.700333890    7.790225995   11.471557207    9.321811033
    1.707512521    7.811253994   11.455798348    9.187708846
    1.714691152    7.831187953   11.402302500    8.903921585
    1.721869783    7.852115167   11.382578817    8.752994338
    1.729048414    7.874359144   11.404254440    8.764868106
    1.736227045    7.897266327   11.439365073    8.828724044
    1.743405676    7.920641762   11.476259302    8.898189980
    1.750584307    7.944559400   11.512371528    8.962745906
    1.757762938    7.969186583   11.547609459    9.021562889
    1.764941569    7.994720727   11.582412155    9.075843605
    1.772120200    8.021292930   11.617237893    9.126982039
    1.779298831    8.048579391   11.652241790    9.176164624
    1.786477462    8.074289004   11.686356934    9.224197464
    1.793656093    8.090257677   11.714932769    9.271130628
    1.800834725    8.087163113   11.732609543    9.316796867
    1.808013356    8.086190905   11.752530278    9.364122562
    1.815191987    8.105997705   11.785781143    9.414342852
    1.822370618    8.134829620   11.822670604    9.459427818
    1.829549249    8.159261898   11.845417352    9.472841103
    1.836727880    8.169267364   11.834545247    9.418672659
    1.843906511    8.178235183   11.821464416    9.358228300
    1.851085142    8.202362085   11.843634262    9.365759113
    1.858263773    8.231839375   11.879805748    9.408338884
    1.865442404    8.249945142   11.896680274    9.450594357
    1.872621035    8.242722840   11.868293381    9.476481610
    1.879799666    8.236056566   11.840497604    9.500910892
    1.886978297    8.254294778   11.856619257    9.539262623
    1.894156928    8.284756757   11.894057381    9.583988766
    1.901335559    8.317634140   11.935331392    9.629310960
    1.908514190    8.350244212   11.975649791    9.673838786
    1.915692821    8.382214430   12.014329596    9.717564566
    1.922871452    8.413700920   12.051622536    9.760764594
    1.930050083    8.444937394   12.087911456    9.803731129
    1.937228715    8.476137848   12.123536570    9.846722744
    1.944407346    8.507485031   12.158774065    9.889965943
    1.951585977    8.539137845   12.193847848    9.933667129
    1.958764608    8.571241497   12.228945588    9.978025671
    1.965943239    8.603937113   12.264232983   10.023246846
    1.973121870    8.637370712   12.299865863   10.069555412
    1.980300501    8.671702306   12.336001065   10.117211255
    1.987479132    8.707116084   12.372807210   10.166528618
    1.994657763    8.743832828   12.410476433   10.217899965
    2.001836394    8.782125777   12.449237476   10.271822191
    2.009015025    8.822340777   12.489367968   10.328908804
    2.016193656    8.864918819   12.531193011   10.389815408
    2.023372287    8.910406316   12.575013950   10.454781741
    2.030550918    8.959386154   12.620740740   10.521614665
    2.037729549    9.012092359   12.666462258   10.578170632
    2.044908180    9.067508581   12.705532527   10.587356286
    2.052086811    9.125205006   12.734612310   10.530348983
    2.059265442    9.188453202   12.772059133   10.508438086
    2.066444073    9.244007867   12.817515570   10.556304728
    2.073622705    9.232791782   12.833929751   10.614871740
    2.080801336    9.071544337   12.775069211   10.632742992
    2.087979967    8.886259458   12.702935142   10.621207660
    2.095158598    8.842754507   12.702818011   10.637532099
    2.102337229    8.870745239   12.740688782   10.674480678
    2.109515860    8.919199669   12.790037766   10.725804229
    2.116694491    8.984359218   12.848483334   10.801846170
    2.123873122    9.054497054   12.910434715   10.890666394
    2.131051753    9.123298331   12.973110907   10.984430155
    2.138230384    9.189850299   13.036172722   11.080941207
    2.145409015    9.253914018   13.098408227   11.175054750
    2.152587646    9.311939107   13.152244810   11.242894054
    2.159766277    9.352289985   13.175566835   11.221507667
    2.166944908    9.372173288   13.163385035   11.111128947
    2.174123539    9.405433724   13.176705945   11.079120134
    2.181302170    9.461598846   13.230729063   11.147568112
    2.188480801    9.526624380   13.297074706   11.247977687
    2.195659432    9.591568386   13.351589312   11.342802616
    2.202838063    9.653129716   13.381455179   11.418162331
    2.210016694    9.719563198   13.420723851   11.499779535
    2.217195326    9.794400375   13.487025182   11.601787048
    2.224373957    9.865494868   13.550595611   11.702418628
    2.231552588    9.905635115   13.568836706   11.770487264
    2.238731219    9.908158224   13.551121435   11.816130832
    2.245909850    9.938262212   13.580521045   11.903351374
    2.253088481    9.996374683   13.651948423   12.027767048
    2.260267112   10.007417030   13.706520660   12.137548818
    2.267445743    9.949854492   13.712838632   12.147636030
    2.274624374    9.911919923   13.697136109   12.016331069
    2.281803005    9.947726578   13.699986838   11.931920518
    2.288981636   10.040531490   13.676973234   11.933201150
    2.296160267   10.153049667   13.603908115   11.938131475
    2.303338898   10.273323422   13.607407093   12.014315464
    2.310517529   10.377383352   13.687420325   12.148017963
    2.317696160   10.388776869   13.773077907   12.263297996
    2.324874791   10.220202579   13.804634671   12.290912728
    2.332053422   10.050723346   13.771884181   12.262093140
    2.339232053   10.058375544   13.773257297   12.302602833
    2.346410684   10.166016029   13.842013750   12.423827971
    2.353589316   10.297643088   13.934327846   12.573291585
    2.360767947   10.419478660   14.017604512   12.724026465
    2.367946578   10.505178094   14.065779601   12.856854160
    2.375125209   10.548731529   14.078422624   12.940547995
    2.382303840   10.572930681   14.085911503   12.981659556
    2.389482471   10.605967085   14.129888725   13.055435973
    2.396661102   10.628938290   14.202472731   13.161576341
    2.403839733   10.691538520   14.286203159   13.293210265
    2.411018364   10.811140272   14.374719184   13.447278582
    2.418196995   10.946492472   14.462978863   13.610024259
    2.425375626   11.051432077   14.543859099   13.770469598
    2.432554257   11.070229178   14.606291305   13.915800091
    2.439732888   11.063360520   14.662521504   14.050788335
    2.446911519   11.146002299   14.736224024   14.188280832
    2.454090150   11.274021705   14.820450399   14.321512148
    2.461268781   11.349710892   14.891939221   14.408157553
    2.468447412   11.269256039   14.917923344   14.461070128
    2.475626043   11.073702243   14.907544148   14.586535562
    2.482804674   11.025161381   14.945655726   14.784560977
    2.489983306   11.137671526   15.038810191   15.012681165
    2.497161937   11.297770853   15.146921701   15.243778320
    2.504340568   11.456203963   15.241891267   15.474274009
    2.511519199   11.596446219   15.299522378   15.707117567
    2.518697830   11.717478358   15.334307418   15.892722318
    2.525876461   11.805116493   15.366814727   15.905725987
    2.533055092   11.829426589   15.372741888   15.734322815
    2.540233723   11.854381729   15.398015877   15.658433615
