# energy grid [eV]     epsr_x  epsr_y  epsr_z
#
    0.200000000   11.289949513   11.149109931    3.422304229
    0.207178631   11.292378544   11.151310160    3.422708932
    0.214357262   11.294894881   11.153589181    3.423128159
    0.221535893   11.297498701   11.155947122    3.423561937
    0.228714524   11.300190189   11.158384116    3.424010295
    0.235893155   11.302969535   11.160900299    3.424473261
    0.243071786   11.305836937   11.163495815    3.424950867
    0.250250417   11.308792601   11.166170810    3.425443145
    0.257429048   11.311836739   11.168925437    3.425950127
    0.264607679   11.314969573   11.171759852    3.426471847
    0.271786311   11.318191329   11.174674218    3.427008342
    0.278964942   11.321502243   11.177668702    3.427559647
    0.286143573   11.324902559   11.180743476    3.428125801
    0.293322204   11.328392529   11.183898718    3.428706843
    0.300500835   11.331972412   11.187134610    3.429302813
    0.307679466   11.335642476   11.190451342    3.429913754
    0.314858097   11.339402999   11.193849105    3.430539709
    0.322036728   11.343254266   11.197328100    3.431180723
    0.329215359   11.347196571   11.200888531    3.431836842
    0.336393990   11.351230220   11.204530608    3.432508115
    0.343572621   11.355355525   11.208254547    3.433194590
    0.350751252   11.359572809   11.212060571    3.433896320
    0.357929883   11.363882406   11.215948906    3.434613356
    0.365108514   11.368284659   11.219919788    3.435345754
    0.372287145   11.372779923   11.223973456    3.436093570
    0.379465776   11.377368562   11.228110156    3.436856862
    0.386644407   11.382050953   11.232330142    3.437635691
    0.393823038   11.386827485   11.236633672    3.438430119
    0.401001669   11.391698557   11.241021013    3.439240210
    0.408180301   11.396664582   11.245492438    3.440066031
    0.415358932   11.401725987   11.250048226    3.440907650
    0.422537563   11.406883209   11.254688666    3.441765139
    0.429716194   11.412136703   11.259414050    3.442638572
    0.436894825   11.417486937   11.264224683    3.443528024
    0.444073456   11.422934392   11.269120872    3.444433575
    0.451252087   11.428479569   11.274102937    3.445355306
    0.458430718   11.434122982   11.279171204    3.446293302
    0.465609349   11.439865165   11.284326006    3.447247650
    0.472787980   11.445706667   11.289567689    3.448218443
    0.479966611   11.451648060   11.294896603    3.449205774
    0.487145242   11.457689932   11.300313112    3.450209741
    0.494323873   11.463832896   11.305817587    3.451230446
    0.501502504   11.470077583   11.311410410    3.452267996
    0.508681135   11.476424652   11.317091973    3.453322500
    0.515859766   11.482874782   11.322862679    3.454394073
    0.523038397   11.489428682   11.328722944    3.455482836
    0.530217028   11.496087087   11.334673195    3.456588911
    0.537395659   11.502850763   11.340713870    3.457712431
    0.544574290   11.509720505   11.346845423    3.458853531
    0.551752922   11.516697144   11.353068318    3.460012352
    0.558931553   11.523781547   11.359383039    3.461189045
    0.566110184   11.530974617   11.365790080    3.462383765
    0.573288815   11.538277301   11.372289954    3.463596675
    0.580467446   11.545690590   11.378883190    3.464827949
    0.587646077   11.553215520   11.385570338    3.466077766
    0.594824708   11.560853182   11.392351963    3.467346319
    0.602003339   11.568604722   11.399228654    3.468633807
    0.609181970   11.576471345   11.406201023    3.469940443
    0.616360601   11.584454324   11.413269701    3.471266453
    0.623539232   11.592555001   11.420435351    3.472612074
    0.630717863   11.600774799   11.427698658    3.473977560
    0.637896494   11.609115224   11.435060342    3.475363180
    0.645075125   11.617577878   11.442521150    3.476769220
    0.652253756   11.626164464   11.450081869    3.478195988
    0.659432387   11.634876801   11.457743323    3.479643810
    0.666611018   11.643716832   11.465506376    3.481113038
    0.673789649   11.652686641   11.473371941    3.482604049
    0.680968280   11.661788466   11.481340982    3.484117252
    0.688146912   11.671024717   11.489414517    3.485653085
    0.695325543   11.680398001   11.497593630    3.487212024
    0.702504174   11.689911137   11.505879472    3.488794586
    0.709682805   11.699567192   11.514273272    3.490401335
    0.716861436   11.709369507   11.522776348    3.492032884
    0.724040067   11.719321737   11.531390116    3.493689907
    0.731218698   11.729427893   11.540116103    3.495373146
    0.738397329   11.739692390   11.548955962    3.497083417
    0.745575960   11.750120111   11.557911493    3.498821624
    0.752754591   11.760716477   11.566984659    3.500588773
    0.759933222   11.771487525   11.576177614    3.502385985
    0.767111853   11.782440019   11.585492735    3.504214519
    0.774290484   11.793581562   11.594932655    3.506075788
    0.781469115   11.804920745   11.604500306    3.507971392
    0.788647746   11.816467327   11.614198976    3.509903151
    0.795826377   11.828232451   11.624032372    3.511873143
    0.803005008   11.840228914   11.634004699    3.513883752
    0.810183639   11.852471501   11.644120763    3.515937739
    0.817362270   11.864977399   11.654386093    3.518038311
    0.824540902   11.877766732   11.664807098    3.520189223
    0.831719533   11.890863224   11.675391270    3.522394902
    0.838898164   11.904295066   11.686147438    3.524660610
    0.846076795   11.918096030   11.697086104    3.526992649
    0.853255426   11.932306939   11.708219877    3.529398633
    0.860434057   11.946977602   11.719564055    3.531887854
    0.867612688   11.962169421   11.731137398    3.534471761
    0.874791319   11.977958915   11.742963183    3.537164621
    0.881969950   11.994442571   11.755070646    3.539984415
    0.889148581   12.011743563   11.767496990    3.542954097
    0.896327212   12.030021197   11.780290195    3.546103340
    0.903505843   12.049484219   11.793512993    3.549471022
    0.910684474   12.070409566   11.807248452    3.553108708
    0.917863105   12.093168172   11.821607672    3.557085448
    0.925041736   12.118257836   11.836739587    3.561493898
    0.932220367   12.146334758   11.852840360    3.566456179
    0.939398998   12.178200340   11.870149457    3.572121426
    0.946577629   12.214561785   11.888878267    3.578621262
    0.953756260   12.254835810   11.908853468    3.585847315
    0.960934891   12.292155997   11.928028588    3.592522676
    0.968113523   12.296169992   11.937355433    3.593002491
    0.975292154   12.192558977   11.914678331    3.573464957
    0.982470785   11.995462044   11.864213107    3.536539846
    0.989649416   11.896033488   11.842948200    3.517778548
    0.996828047   11.902371419   11.853298496    3.518687353
    1.004006678   11.940870930   11.873321209    3.525577305
    1.011185309   11.982230001   11.894281350    3.532998995
    1.018363940   12.019902901   11.914228158    3.539735293
    1.025542571   12.053379706   11.933010307    3.545691649
    1.032721202   12.083379049   11.950842752    3.551002031
    1.039899833   12.110700150   11.967964488    3.555815426
    1.047078464   12.135995136   11.984570673    3.560253505
    1.054257095   12.159758439   12.000809473    3.564408652
    1.061435726   12.182358666   12.016791557    3.568349897
    1.068614357   12.204071330   12.032599860    3.572129012
    1.075792988   12.225104447   12.048297213    3.575785274
    1.082971619   12.245617117   12.063931886    3.579348935
    1.090150250   12.265732717   12.079541516    3.582843679
    1.097328881   12.285548258   12.095155903    3.586288379
    1.104507513   12.305141058   12.110798997    3.589698350
    1.111686144   12.324573555   12.126490334    3.593086258
    1.118864775   12.343896817   12.142246083    3.596462793
    1.126043406   12.363153140   12.158079820    3.599837176
    1.133222037   12.382377988   12.174003108    3.603217545
    1.140400668   12.401601469   12.190025936    3.606611263
    1.147579299   12.420849471   12.206157057    3.610025173
    1.154757930   12.440144547   12.222404251    3.613465803
    1.161936561   12.459506624   12.238774533    3.616939568
    1.169115192   12.478953568   12.255274323    3.620452945
    1.176293823   12.498501659   12.271909577    3.624012657
    1.183472454   12.518166000   12.288685909    3.627625870
    1.190651085   12.537960873   12.305608682    3.631300410
    1.197829716   12.557900076   12.322683103    3.635045025
    1.205008347   12.577997254   12.339914295    3.638869704
    1.212186978   12.598266247   12.357307383    3.642786079
    1.219365609   12.618721477   12.374867567    3.646807949
    1.226544240   12.639378403   12.392600213    3.650951978
    1.233722871   12.660254096   12.410510942    3.655238632
    1.240901503   12.681367977   12.428605749    3.659693476
    1.248080134   12.702742808   12.446891145    3.664348965
    1.255258765   12.724406046   12.465374338    3.669246967
    1.262437396   12.746391718   12.484063470    3.674442297
    1.269616027   12.768742957   12.502967937    3.680007571
    1.276794658   12.791515244   12.522098777    3.686039401
    1.283973289   12.814779561   12.541469075    3.692664426
    1.291151920   12.838621545   12.561094007    3.700037384
    1.298330551   12.863120005   12.580988906    3.708298434
    1.305509182   12.888237934   12.601158917    3.717357758
    1.312687813   12.913365605   12.621555027    3.725993708
    1.319866444   12.935736394   12.641921111    3.728726935
    1.327045075   12.948449153   12.661602997    3.711918111
    1.334223706   12.952521771   12.680715433    3.677545457
    1.341402337   12.965899309   12.701014578    3.660973885
    1.348580968   12.989714438   12.722634285    3.664392585
    1.355759599   13.017088800   12.744939289    3.674174664
    1.362938230   13.045294450   12.767703991    3.684864398
    1.370116861   13.073797553   12.790925338    3.695313317
    1.377295492   13.102666439   12.814669648    3.705538911
    1.384474124   13.132088805   12.839018752    3.715793068
    1.391652755   13.162139174   12.864005236    3.726217719
    1.398831386   13.192231478   12.889374887    3.736256188
    1.406010017   13.219188866   12.913718999    3.742649116
    1.413188648   13.233612959   12.932839439    3.735669538
    1.420367279   13.231670316   12.945064489    3.711356580
    1.427545910   13.238936673   12.962001860    3.696260976
    1.434724541   13.263619166   12.987459338    3.698905028
    1.441903172   13.295008978   13.016756676    3.708177971
    1.449081803   13.327819503   13.047706767    3.718592479
    1.456260434   13.360828781   13.080004763    3.728875935
    1.463439065   13.393972628   13.113868129    3.738952450
    1.470617696   13.427361375   13.149324860    3.748915556
    1.477796327   13.460718563   13.184810319    3.758418017
    1.484974958   13.492090978   13.212387257    3.765234837
    1.492153589   13.515585940   13.209104567    3.762737378
    1.499332220   13.529251685   13.167080801    3.748675972
    1.506510851   13.549504303   13.148598187    3.741261670
    1.513689482   13.581146361   13.171519439    3.745732128
    1.520868114   13.617572858   13.210110770    3.754594912
    1.528046745   13.655575895   13.251890248    3.764222062
    1.535225376   13.693857088   13.293201635    3.773574317
    1.542404007   13.729395790   13.330204608    3.781629019
    1.549582638   13.752285269   13.351294890    3.785309133
    1.556761269   13.752170966   13.344384514    3.781408027
    1.563939900   13.754976233   13.340385460    3.778160156
    1.571118531   13.781242586   13.363793581    3.782088565
    1.578297162   13.818663898   13.400121356    3.789337094
    1.585475793   13.858551626   13.439156328    3.797183639
    1.592654424   13.898573968   13.478218766    3.804906770
    1.599833055   13.938423599   13.517031921    3.812419616
    1.607011686   13.978269634   13.555894702    3.819782185
    1.614190317   14.018370499   13.595232143    3.827079819
    1.621368948   14.058994317   13.635511114    3.834398458
    1.628547579   14.100411983   13.677237726    3.841822539
    1.635726210   14.142892047   13.720929468    3.849432880
    1.642904841   14.186630520   13.766888987    3.857282125
    1.650083472   14.231401364   13.814151551    3.865275064
    1.657262104   14.275157544   13.856331271    3.872692364
    1.664440735   14.310232550   13.870377698    3.876899439
    1.671619366   14.326653930   13.826333275    3.874468634
    1.678797997   14.343781046   13.780747042    3.871914909
    1.685976628   14.382720953   13.795246370    3.876338317
    1.693155259   14.434122722   13.841717119    3.884524544
    1.700333890   14.489383374   13.895817587    3.893675863
    1.707512521   14.543141857   13.949581943    3.902797730
    1.714691152   14.584649303   13.998154434    3.911029235
    1.721869783   14.605329306   14.038751012    3.917804476
    1.729048414   14.634702099   14.083083098    3.925401087
    1.736227045   14.691327925   14.138742216    3.935285535
    1.743405676   14.762040042   14.201037280    3.946511438
    1.750584307   14.834431946   14.263542242    3.957834527
    1.757762938   14.885547643   14.308010383    3.965837232
    1.764941569   14.853718082   14.282555798    3.960845119
    1.772120200   14.711437099   14.163981871    3.938532051
    1.779298831   14.624770806   14.092789316    3.925070489
    1.786477462   14.650548585   14.117107958    3.929424185
    1.793656093   14.718377543   14.177500062    3.940516411
    1.800834725   14.792628042   14.243975695    3.952755941
    1.808013356   14.864585023   14.309354846    3.964800355
    1.815191987   14.933255789   14.372997737    3.976526840
    1.822370618   14.999312004   14.435480783    3.988050389
    1.829549249   15.063528346   14.496415382    3.999360315
    1.836727880   15.126171683   14.550774489    4.009792523
    1.843906511   15.186411408   14.582529950    4.017134944
    1.851085142   15.244242053   14.585852783    4.020609783
    1.858263773   15.304196610   14.606346122    4.026672531
    1.865442404   15.368008000   14.658382586    4.037398861
    1.872621035   15.434458712   14.723561645    4.050279232
    1.879799666   15.502914685   14.792256221    4.064090883
    1.886978297   15.572214571   14.858434293    4.078269799
    1.894156928   15.639269961   14.909674808    4.091687652
    1.901335559   15.705428453   14.931537748    4.103032727
    1.908514190   15.777187548   14.922249944    4.111726873
    1.915692821   15.843181210   14.920743275    4.118238905
    1.922871452   15.862084533   14.938120827    4.113006965
    1.930050083   15.801826454   14.934297585    4.083850794
    1.937228715   15.766135448   14.947058323    4.062794286
    1.944407346   15.813829538   15.002687234    4.068386691
    1.951585977   15.898024268   15.076095428    4.085409946
    1.958764608   15.990753326   15.151426336    4.104750824
    1.965943239   16.084827124   15.218318173    4.123771176
    1.973121870   16.178826304   15.257696716    4.141198871
    1.980300501   16.274059609   15.267687529    4.157261890
    1.987479132   16.375630970   15.299773183    4.175513082
    1.994657763   16.485386871   15.363721877    4.197047370
    2.001836394   16.599685806   15.439071728    4.221080492
    2.009015025   16.700302367   15.513700274    4.246776681
    2.016193656   16.721996004   15.573164776    4.271093491
    2.023372287   16.577472250   15.600115486    4.288340688
    2.030550918   16.424606958   15.622630120    4.297849672
    2.037729549   16.440361500   15.665607979    4.278163689
    2.044908180   16.539462166   15.700759487    4.186844395
    2.052086811   16.658821861   15.739639429    4.095235591
    2.059265442   16.771303109   15.801017316    4.079319615
    2.066444073   16.808298466   15.857247651    4.097274585
    2.073622705   16.712622545   15.885168387    4.114161141
    2.080801336   16.641913530   15.920282424    4.132723812
    2.087979967   16.699411658   15.987327894    4.159155081
    2.095158598   16.812911017   16.069365902    4.188702909
    2.102337229   16.936484798   16.155922563    4.218830579
    2.109515860   17.058325189   16.244498420    4.249222121
    2.116694491   17.176495133   16.333460070    4.278910131
    2.123873122   17.288775690   16.414796943    4.301469010
    2.131051753   17.385759026   16.460762929    4.294588928
    2.138230384   17.458185760   16.444225770    4.236396260
    2.145409015   17.535330102   16.439936204    4.186401174
    2.152587646   17.638719731   16.502444452    4.187880923
    2.159766277   17.756029116   16.597330592    4.212831196
    2.166944908   17.878586390   16.700800739    4.241349705
    2.174123539   18.001821088   16.803463276    4.264110748
    2.181302170   18.120184011   16.897143810    4.272866994
    2.188480801   18.238407736   16.983173488    4.276234408
    2.195659432   18.364591477   17.069368128    4.291037802
    2.202838063   18.482658550   17.156166279    4.312170863
    2.210016694   18.521435706   17.197240148    4.328311551
    2.217195326   18.395367754   17.127135016    4.331157584
    2.224373957   18.279198114   17.069476575    4.334900799
    2.231552588   18.333232989   17.129091210    4.351979083
    2.238731219   18.460689580   17.212879931    4.374185111
    2.245909850   18.569828904   17.203433039    4.393134223
    2.253088481   18.651302974   17.113855713    4.408982948
    2.260267112   18.764547730   17.119522686    4.430202486
    2.267445743   18.904691254   17.214241797    4.454245348
    2.274624374   19.033975293   17.322981668    4.467651959
    2.281803005   19.120527294   17.413135263    4.447591123
    2.288981636   19.190758978   17.501998241    4.406441934
    2.296160267   19.301248345   17.605891336    4.397456618
    2.303338898   19.441240474   17.715881820    4.416195437
    2.310517529   19.589506355   17.825786510    4.442872572
    2.317696160   19.739239358   17.934510944    4.470479933
    2.324874791   19.889544777   18.042532237    4.497720183
    2.332053422   20.040996004   18.150633973    4.524798560
    2.339232053   20.194449251   18.259622619    4.552272590
    2.346410684   20.350792110   18.370292768    4.580801105
    2.353589316   20.510908699   18.483406668    4.611103845
    2.360767947   20.675625942   18.599488819    4.643892424
    2.367946578   20.845372521   18.717850319    4.679457115
    2.375125209   21.018931416   18.833486428    4.715888347
    2.382303840   21.191973446   18.936268428    4.743049570
    2.389482471   21.359856969   19.031323808    4.728444551
    2.396661102   21.513288145   19.125353431    4.631821728
    2.403839733   21.645827926   19.200848835    4.533693473
    2.411018364   21.741725621   19.226273550    4.513769789
    2.418196995   21.841838535   19.238953684    4.532273376
    2.425375626   22.003931214   19.311334885    4.561455663
    2.432554257   22.200318055   19.422830373    4.589721915
    2.439732888   22.415546109   19.552230748    4.617672793
    2.446911519   22.653585493   19.699967853    4.649690841
    2.454090150   22.908350296   19.857566625    4.683288752
    2.461268781   23.176562201   20.019394637    4.716671187
    2.468447412   23.455658469   20.178546537    4.748980581
    2.475626043   23.730210326   20.310604116    4.777593997
    2.482804674   23.944320125   20.367764876    4.797653451
    2.489983306   24.012968816   20.364694761    4.813029756
    2.497161937   23.980268697   20.408691770    4.832566192
    2.504340568   24.077091908   20.533010549    4.854220432
    2.511519199   24.360339530   20.702639382    4.874749688
    2.518697830   24.726014274   20.890314885    4.891762779
    2.525876461   25.122797623   21.085295621    4.895809912
    2.533055092   25.536608573   21.283537339    4.905041241
    2.540233723   25.947852602   21.473575203    4.932635913
