# energy grid [eV]     ieps_x  ieps_y  ieps_z
#
    0.200000000    7.432432923    6.955017719    4.366252966
    0.207178631    7.430905462    6.953583456    4.365548258
    0.214357262    7.429325020    6.952099455    4.364819090
    0.221535893    7.427691685    6.950565802    4.364065501
    0.228714524    7.426005551    6.948982586    4.363287531
    0.235893155    7.424266714    6.947349897    4.362485223
    0.243071786    7.422475272    6.945667829    4.361658620
    0.250250417    7.420631325    6.943936480    4.360807766
    0.257429048    7.418734979    6.942155946    4.359932708
    0.264607679    7.416786338    6.940326331    4.359033491
    0.271786311    7.414785514    6.938447739    4.358110165
    0.278964942    7.412732618    6.936520276    4.357162779
    0.286143573    7.410627765    6.934544052    4.356191382
    0.293322204    7.408471072    6.932519178    4.355196027
    0.300500835    7.406262659    6.930445770    4.354176766
    0.307679466    7.404002649    6.928323943    4.353133653
    0.314858097    7.401691168    6.926153819    4.352066743
    0.322036728    7.399328343    6.923935517    4.350976092
    0.329215359    7.396914305    6.921669163    4.349861758
    0.336393990    7.394449186    6.919354883    4.348723798
    0.343572621    7.391933122    6.916992807    4.347562271
    0.350751252    7.389366250    6.914583066    4.346377239
    0.357929883    7.386748712    6.912125793    4.345168762
    0.365108514    7.384080650    6.909621124    4.343936903
    0.372287145    7.381362209    6.907069199    4.342681726
    0.379465776    7.378593536    6.904470158    4.341403294
    0.386644407    7.375774781    6.901824143    4.340101674
    0.393823038    7.372906098    6.899131299    4.338776932
    0.401001669    7.369987639    6.896391775    4.337429134
    0.408180301    7.367019562    6.893605719    4.336058350
    0.415358932    7.364002025    6.890773283    4.334664649
    0.422537563    7.360935191    6.887894621    4.333248101
    0.429716194    7.357819222    6.884969888    4.331808778
    0.436894825    7.354654284    6.881999242    4.330346751
    0.444073456    7.351440545    6.878982844    4.328862093
    0.451252087    7.348178174    6.875920855    4.327354878
    0.458430718    7.344867343    6.872813439    4.325825181
    0.465609349    7.341508227    6.869660762    4.324273078
    0.472787980    7.338101001    6.866462992    4.322698645
    0.479966611    7.334645843    6.863220299    4.321101960
    0.487145242    7.331142934    6.859932854    4.319483100
    0.494323873    7.327592455    6.856600831    4.317842144
    0.501502504    7.323994591    6.853224405    4.316179173
    0.508681135    7.320349526    6.849803753    4.314494266
    0.515859766    7.316657449    6.846339055    4.312787506
    0.523038397    7.312918550    6.842830491    4.311058973
    0.530217028    7.309133019    6.839278243    4.309308752
    0.537395659    7.305301050    6.835682496    4.307536926
    0.544574290    7.301422838    6.832043436    4.305743578
    0.551752922    7.297498580    6.828361250    4.303928794
    0.558931553    7.293528473    6.824636127    4.302092660
    0.566110184    7.289512719    6.820868259    4.300235263
    0.573288815    7.285451518    6.817057837    4.298356689
    0.580467446    7.281345075    6.813205056    4.296457026
    0.587646077    7.277193594    6.809310110    4.294536362
    0.594824708    7.272997282    6.805373198    4.292594788
    0.602003339    7.268756347    6.801394517    4.290632392
    0.609181970    7.264470999    6.797374268    4.288649265
    0.616360601    7.260141450    6.793312651    4.286645498
    0.623539232    7.255767912    6.789209870    4.284621183
    0.630717863    7.251350599    6.785066129    4.282576412
    0.637896494    7.246889727    6.780881634    4.280511278
    0.645075125    7.242385513    6.776656590    4.278425873
    0.652253756    7.237838176    6.772391207    4.276320293
    0.659432387    7.233247935    6.768085695    4.274194631
    0.666611018    7.228615012    6.763740262    4.272048983
    0.673789649    7.223939629    6.759355123    4.269883445
    0.680968280    7.219222009    6.754930489    4.267698112
    0.688146912    7.214462379    6.750466576    4.265493080
    0.695325543    7.209660964    6.745963598    4.263268448
    0.702504174    7.204817992    6.741421772    4.261024313
    0.709682805    7.199933691    6.736841317    4.258760772
    0.716861436    7.195008291    6.732222451    4.256477925
    0.724040067    7.190042023    6.727565394    4.254175870
    0.731218698    7.185035119    6.722870367    4.251854707
    0.738397329    7.179987813    6.718137591    4.249514536
    0.745575960    7.174900338    6.713367291    4.247155458
    0.752754591    7.169772930    6.708559690    4.244777572
    0.759933222    7.164605825    6.703715012    4.242380980
    0.767111853    7.159399260    6.698833483    4.239965783
    0.774290484    7.154153474    6.693915331    4.237532085
    0.781469115    7.148868705    6.688960783    4.235079986
    0.788647746    7.143545194    6.683970066    4.232609590
    0.795826377    7.138183181    6.678943411    4.230121000
    0.803005008    7.132782909    6.673881047    4.227614319
    0.810183639    7.127344620    6.668783206    4.225089650
    0.817362270    7.121868557    6.663650117    4.222547099
    0.824540902    7.116354964    6.658482015    4.219986769
    0.831719533    7.110804088    6.653279132    4.217408765
    0.838898164    7.105216172    6.648041701    4.214813192
    0.846076795    7.099591464    6.642769957    4.212200156
    0.853255426    7.093930212    6.637464135    4.209569762
    0.860434057    7.088232662    6.632124470    4.206922115
    0.867612688    7.082499063    6.626751198    4.204257323
    0.874791319    7.076729664    6.621344556    4.201575491
    0.881969950    7.070924716    6.615904782    4.198876727
    0.889148581    7.065084467    6.610432112    4.196161136
    0.896327212    7.059209170    6.604926787    4.193428827
    0.903505843    7.053299075    6.599389043    4.190679906
    0.910684474    7.047354434    6.593819120    4.187914481
    0.917863105    7.041375500    6.588217258    4.185132660
    0.925041736    7.035362525    6.582583697    4.182334551
    0.932220367    7.029315763    6.576918677    4.179520261
    0.939398998    7.023235467    6.571222440    4.176689900
    0.946577629    7.017121891    6.565495225    4.173843576
    0.953756260    7.010975290    6.559737275    4.170981397
    0.960934891    7.004795919    6.553948832    4.168103472
    0.968113523    6.998584032    6.548130137    4.165209910
    0.975292154    6.992339885    6.542281432    4.162300821
    0.982470785    6.986063734    6.536402961    4.159376313
    0.989649416    6.979755835    6.530494966    4.156436496
    0.996828047    6.973416443    6.524557689    4.153481479
    1.004006678    6.967045816    6.518591375    4.150511372
    1.011185309    6.960644210    6.512596266    4.147526285
    1.018363940    6.954211881    6.506572605    4.144526326
    1.025542571    6.947749088    6.500520637    4.141511607
    1.032721202    6.941256086    6.494440605    4.138482237
    1.039899833    6.934733133    6.488332752    4.135438326
    1.047078464    6.928180486    6.482197322    4.132379983
    1.054257095    6.921598403    6.476034560    4.129307320
    1.061435726    6.914987141    6.469844709    4.126220446
    1.068614357    6.908346958    6.463628012    4.123119471
    1.075792988    6.901678111    6.457384715    4.120004505
    1.082971619    6.894980858    6.451115059    4.116875660
    1.090150250    6.888255456    6.444819290    4.113733044
    1.097328881    6.881502163    6.438497650    4.110576768
    1.104507513    6.874721235    6.432150384    4.107406943
    1.111686144    6.867912931    6.425777734    4.104223678
    1.118864775    6.861077507    6.419379945    4.101027084
    1.126043406    6.854215221    6.412957259    4.097817271
    1.133222037    6.847326330    6.406509919    4.094594349
    1.140400668    6.840411089    6.400038168    4.091358428
    1.147579299    6.833469757    6.393542249    4.088109618
    1.154757930    6.826502589    6.387022404    4.084848030
    1.161936561    6.819509841    6.380478875    4.081573773
    1.169115192    6.812491770    6.373911904    4.078286957
    1.176293823    6.805448632    6.367321734    4.074987692
    1.183472454    6.798380681    6.360708605    4.071676087
    1.190651085    6.791288173    6.354072758    4.068352254
    1.197829716    6.784171363    6.347414434    4.065016300
    1.205008347    6.777030506    6.340733874    4.061668335
    1.212186978    6.769865855    6.334031318    4.058308470
    1.219365609    6.762677666    6.327307005    4.054936812
    1.226544240    6.755466190    6.320561176    4.051553472
    1.233722871    6.748231683    6.313794068    4.048158559
    1.240901503    6.740974395    6.307005920    4.044752180
    1.248080134    6.733694580    6.300196971    4.041334446
    1.255258765    6.726392491    6.293367459    4.037905464
    1.262437396    6.719068377    6.286517620    4.034465344
    1.269616027    6.711722491    6.279647692    4.031014193
    1.276794658    6.704355082    6.272757910    4.027552120
    1.283973289    6.696966402    6.265848511    4.024079233
    1.291151920    6.689556699    6.258919730    4.020595640
    1.298330551    6.682126224    6.251971801    4.017101448
    1.305509182    6.674675224    6.245004960    4.013596765
    1.312687813    6.667203947    6.238019439    4.010081698
    1.319866444    6.659712641    6.231015473    4.006556355
    1.327045075    6.652201553    6.223993293    4.003020843
    1.334223706    6.644670929    6.216953132    3.999475267
    1.341402337    6.637121015    6.209895221    3.995919736
    1.348580968    6.629552056    6.202819790    3.992354354
    1.355759599    6.621964297    6.195727071    3.988779229
    1.362938230    6.614357981    6.188617292    3.985194466
    1.370116861    6.606733352    6.181490684    3.981600172
    1.377295492    6.599090652    6.174347473    3.977996450
    1.384474124    6.591430123    6.167187887    3.974383407
    1.391652755    6.583752007    6.160012154    3.970761148
    1.398831386    6.576056543    6.152820500    3.967129778
    1.406010017    6.568343972    6.145613149    3.963489400
    1.413188648    6.560614533    6.138390328    3.959840119
    1.420367279    6.552868463    6.131152260    3.956182040
    1.427545910    6.545106002    6.123899169    3.952515266
    1.434724541    6.537327384    6.116631277    3.948839900
    1.441903172    6.529532848    6.109348806    3.945156045
    1.449081803    6.521722627    6.102051977    3.941463806
    1.456260434    6.513896956    6.094741011    3.937763283
    1.463439065    6.506056070    6.087416126    3.934054581
    1.470617696    6.498200200    6.080077543    3.930337800
    1.477796327    6.490329580    6.072725479    3.926613042
    1.484974958    6.482444440    6.065360151    3.922880410
    1.492153589    6.474545011    6.057981775    3.919140004
    1.499332220    6.466631523    6.050590567    3.915391925
    1.506510851    6.458704203    6.043186742    3.911636274
    1.513689482    6.450763281    6.035770514    3.907873151
    1.520868114    6.442808983    6.028342095    3.904102656
    1.528046745    6.434841535    6.020901698    3.900324889
    1.535225376    6.426861162    6.013449535    3.896539949
    1.542404007    6.418868089    6.005985814    3.892747935
    1.549582638    6.410862539    5.998510747    3.888948945
    1.556761269    6.402844735    5.991024541    3.885143080
    1.563939900    6.394814899    5.983527405    3.881330435
    1.571118531    6.386773250    5.976019545    3.877511109
    1.578297162    6.378720009    5.968501168    3.873685199
    1.585475793    6.370655395    5.960972478    3.869852803
    1.592654424    6.362579624    5.953433679    3.866014017
    1.599833055    6.354492915    5.945884975    3.862168937
    1.607011686    6.346395484    5.938326568    3.858317659
    1.614190317    6.338287544    5.930758659    3.854460280
    1.621368948    6.330169310    5.923181448    3.850596893
    1.628547579    6.322040996    5.915595136    3.846727595
    1.635726210    6.313902812    5.907999920    3.842852479
    1.642904841    6.305754971    5.900395998    3.838971639
    1.650083472    6.297597681    5.892783567    3.835085171
    1.657262104    6.289431153    5.885162821    3.831193166
    1.664440735    6.281255593    5.877533957    3.827295719
    1.671619366    6.273071209    5.869897167    3.823392921
    1.678797997    6.264878208    5.862252643    3.819484865
    1.685976628    6.256676793    5.854600578    3.815571643
    1.693155259    6.248467168    5.846941163    3.811653347
    1.700333890    6.240249537    5.839274586    3.807730067
    1.707512521    6.232024102    5.831601037    3.803801895
    1.714691152    6.223791062    5.823920702    3.799868920
    1.721869783    6.215550618    5.816233770    3.795931233
    1.729048414    6.207302968    5.808540425    3.791988924
    1.736227045    6.199048310    5.800840851    3.788042081
    1.743405676    6.190786841    5.793135234    3.784090794
    1.750584307    6.182518755    5.785423754    3.780135150
    1.757762938    6.174244248    5.777706594    3.776175239
    1.764941569    6.165963512    5.769983934    3.772211146
    1.772120200    6.157676740    5.762255953    3.768242960
    1.779298831    6.149384122    5.754522830    3.764270768
    1.786477462    6.141085850    5.746784743    3.760294655
    1.793656093    6.132782111    5.739041867    3.756314708
    1.800834725    6.124473094    5.731294378    3.752331012
    1.808013356    6.116158986    5.723542450    3.748343653
    1.815191987    6.107839972    5.715786257    3.744352715
    1.822370618    6.099516237    5.708025970    3.740358282
    1.829549249    6.091187964    5.700261761    3.736360438
    1.836727880    6.082855335    5.692493799    3.732359268
    1.843906511    6.074518533    5.684722255    3.728354853
    1.851085142    6.066177737    5.676947295    3.724347277
    1.858263773    6.057833126    5.669169086    3.720336621
    1.865442404    6.049484879    5.661387795    3.716322968
    1.872621035    6.041133171    5.653603586    3.712306399
    1.879799666    6.032778179    5.645816623    3.708286995
    1.886978297    6.024420078    5.638027068    3.704264837
    1.894156928    6.016059041    5.630235083    3.700240003
    1.901335559    6.007695240    5.622440829    3.696212575
    1.908514190    5.999328848    5.614644466    3.692182631
    1.915692821    5.990960032    5.606846150    3.688150251
    1.922871452    5.982588964    5.599046041    3.684115512
    1.930050083    5.974215811    5.591244293    3.680078493
    1.937228715    5.965840740    5.583441063    3.676039270
    1.944407346    5.957463916    5.575636505    3.671997922
    1.951585977    5.949085504    5.567830771    3.667954525
    1.958764608    5.940705668    5.560024014    3.663909154
    1.965943239    5.932324570    5.552216384    3.659861887
    1.973121870    5.923942370    5.544408032    3.655812797
    1.980300501    5.915559231    5.536599106    3.651761961
    1.987479132    5.907175309    5.528789754    3.647709452
    1.994657763    5.898790764    5.520980123    3.643655345
    2.001836394    5.890405751    5.513170358    3.639599713
    2.009015025    5.882020427    5.505360605    3.635542629
    2.016193656    5.873634947    5.497551006    3.631484166
    2.023372287    5.865249463    5.489741704    3.627424397
    2.030550918    5.856864128    5.481932840    3.623363393
    2.037729549    5.848479093    5.474124556    3.619301226
    2.044908180    5.840094508    5.466316989    3.615237967
    2.052086811    5.831710523    5.458510279    3.611173686
    2.059265442    5.823327284    5.450704563    3.607108453
    2.066444073    5.814944940    5.442899976    3.603042338
    2.073622705    5.806563635    5.435096655    3.598975411
    2.080801336    5.798183514    5.427294732    3.594907740
    2.087979967    5.789804720    5.419494342    3.590839393
    2.095158598    5.781427397    5.411695615    3.586770439
    2.102337229    5.773051685    5.403898683    3.582700944
    2.109515860    5.764677724    5.396103677    3.578630977
    2.116694491    5.756305653    5.388310723    3.574560603
    2.123873122    5.747935611    5.380519952    3.570489889
    2.131051753    5.739567734    5.372731489    3.566418900
    2.138230384    5.731202158    5.364945459    3.562347703
    2.145409015    5.722839018    5.357161989    3.558276361
    2.152587646    5.714478447    5.349381201    3.554204939
    2.159766277    5.706120579    5.341603218    3.550133502
    2.166944908    5.697765543    5.333828163    3.546062112
    2.174123539    5.689413471    5.326056155    3.541990833
    2.181302170    5.681064492    5.318287314    3.537919728
    2.188480801    5.672718735    5.310521758    3.533848859
    2.195659432    5.664376326    5.302759607    3.529778288
    2.202838063    5.656037391    5.295000975    3.525708076
    2.210016694    5.647702056    5.287245979    3.521638284
    2.217195326    5.639370445    5.279494733    3.517568973
    2.224373957    5.631042680    5.271747351    3.513500202
    2.231552588    5.622718883    5.264003945    3.509432033
    2.238731219    5.614399175    5.256264627    3.505364523
    2.245909850    5.606083676    5.248529508    3.501297732
    2.253088481    5.597772505    5.240798697    3.497231718
    2.260267112    5.589465779    5.233072303    3.493166540
    2.267445743    5.581163614    5.225350434    3.489102254
    2.274624374    5.572866127    5.217633196    3.485038918
    2.281803005    5.564573432    5.209920695    3.480976588
    2.288981636    5.556285643    5.202213036    3.476915322
    2.296160267    5.548002871    5.194510322    3.472855174
    2.303338898    5.539725229    5.186812656    3.468796200
    2.310517529    5.531452827    5.179120141    3.464738456
    2.317696160    5.523185774    5.171432877    3.460681995
    2.324874791    5.514924179    5.163750964    3.456626873
    2.332053422    5.506668149    5.156074501    3.452573143
    2.339232053    5.498417791    5.148403586    3.448520858
    2.346410684    5.490173210    5.140738316    3.444470071
    2.353589316    5.481934510    5.133078788    3.440420835
    2.360767947    5.473701795    5.125425097    3.436373201
    2.367946578    5.465475167    5.117777336    3.432327223
    2.375125209    5.457254728    5.110135600    3.428282950
    2.382303840    5.449040579    5.102499980    3.424240434
    2.389482471    5.440832818    5.094870569    3.420199726
    2.396661102    5.432631544    5.087247457    3.416160875
    2.403839733    5.424436855    5.079630733    3.412123931
    2.411018364    5.416248847    5.072020487    3.408088944
    2.418196995    5.408067616    5.064416807    3.404055962
    2.425375626    5.399893257    5.056819779    3.400025033
    2.432554257    5.391725864    5.049229489    3.395996206
    2.439732888    5.383565528    5.041646024    3.391969529
    2.446911519    5.375412342    5.034069466    3.387945049
    2.454090150    5.367266397    5.026499900    3.383922812
    2.461268781    5.359127782    5.018937408    3.379902865
    2.468447412    5.350996588    5.011382072    3.375885255
    2.475626043    5.342872901    5.003833972    3.371870026
    2.482804674    5.334756809    4.996293190    3.367857225
    2.489983306    5.326648398    4.988759803    3.363846896
    2.497161937    5.318547754    4.981233890    3.359839083
    2.504340568    5.310454960    4.973715528    3.355833832
    2.511519199    5.302370101    4.966204794    3.351831184
    2.518697830    5.294293259    4.958701764    3.347831185
    2.525876461    5.286224516    4.951206513    3.343833877
    2.533055092    5.278163952    4.943719113    3.339839302
    2.540233723    5.270111648    4.936239640    3.335847503
