# energy grid [eV]     epsr_x  epsr_y  epsr_z
#
    0.200000000   11.868036586   11.930295558    4.439750111
    0.207178631   11.870507895   11.932781334    4.440411042
    0.214357262   11.873067696   11.935356181    4.441095902
    0.221535893   11.875716130   11.938020250    4.441804760
    0.228714524   11.878453345   11.940773697    4.442537686
    0.235893155   11.881279495   11.943616683    4.443294757
    0.243071786   11.884194735   11.946549375    4.444076050
    0.250250417   11.887199231   11.949571946    4.444881648
    0.257429048   11.890293149   11.952684575    4.445711634
    0.264607679   11.893476665   11.955887447    4.446566099
    0.271786311   11.896749956   11.959180752    4.447445134
    0.278964942   11.900113208   11.962564686    4.448348836
    0.286143573   11.903566610   11.966039451    4.449277304
    0.293322204   11.907110358   11.969605258    4.450230643
    0.300500835   11.910744653   11.973262319    4.451208962
    0.307679466   11.914469701   11.977010857    4.452212374
    0.314858097   11.918285716   11.980851098    4.453240995
    0.322036728   11.922192915   11.984783278    4.454294949
    0.329215359   11.926191521   11.988807635    4.455374363
    0.336393990   11.930281766   11.992924419    4.456479369
    0.343572621   11.934463883   11.997133881    4.457610106
    0.350751252   11.938738115   12.001436285    4.458766716
    0.357929883   11.943104710   12.005831896    4.459949350
    0.365108514   11.947563920   12.010320991    4.461158164
    0.372287145   11.952116007   12.014903852    4.462393319
    0.379465776   11.956761236   12.019580768    4.463654986
    0.386644407   11.961499880   12.024352038    4.464943340
    0.393823038   11.966332218   12.029217965    4.466258565
    0.401001669   11.971258535   12.034178864    4.467600854
    0.408180301   11.976279124   12.039235055    4.468970407
    0.415358932   11.981394284   12.044386868    4.470367434
    0.422537563   11.986604321   12.049634642    4.471792152
    0.429716194   11.991909547   12.054978722    4.473244791
    0.436894825   11.997310283   12.060419465    4.474725589
    0.444073456   12.002806856   12.065957236    4.476234798
    0.451252087   12.008399601   12.071592409    4.477772679
    0.458430718   12.014088859   12.077325369    4.479339506
    0.465609349   12.019874981   12.083156510    4.480935569
    0.472787980   12.025758324   12.089086238    4.482561169
    0.479966611   12.031739254   12.095114968    4.484216624
    0.487145242   12.037818146   12.101243128    4.485902269
    0.494323873   12.043995382   12.107471157    4.487618454
    0.501502504   12.050271353   12.113799505    4.489365550
    0.508681135   12.056646459   12.120228637    4.491143946
    0.515859766   12.063121110   12.126759029    4.492954055
    0.523038397   12.069695724   12.133391172    4.494796312
    0.530217028   12.076370731   12.140125572    4.496671175
    0.537395659   12.083146568   12.146962748    4.498579132
    0.544574290   12.090023684   12.153903239    4.500520700
    0.551752922   12.097002541   12.160947596    4.502496424
    0.558931553   12.104083608   12.168096391    4.504506887
    0.566110184   12.111267368   12.175350214    4.506552707
    0.573288815   12.118554318   12.182709675    4.508634544
    0.580467446   12.125944964   12.190175404    4.510753100
    0.587646077   12.133439828   12.197748057    4.512909127
    0.594824708   12.141039446   12.205428309    4.515103428
    0.602003339   12.148744366   12.213216866    4.517336865
    0.609181970   12.156555156   12.221114459    4.519610362
    0.616360601   12.164472397   12.229121850    4.521924912
    0.623539232   12.172496689   12.237239832    4.524281587
    0.630717863   12.180628650   12.245469235    4.526681543
    0.637896494   12.188868919   12.253810927    4.529126027
    0.645075125   12.197218156   12.262265816    4.531616395
    0.652253756   12.205677044   12.270834857    4.534154114
    0.659432387   12.214246291   12.279519054    4.536740783
    0.666611018   12.222926631   12.288319467    4.539378146
    0.673789649   12.231718829   12.297237218    4.542068108
    0.680968280   12.240623681   12.306273494    4.544812754
    0.688146912   12.249642019   12.315429559    4.547614379
    0.695325543   12.258774714   12.324706760    4.550475507
    0.702504174   12.268022680   12.334106540    4.553398927
    0.709682805   12.277386878   12.343630448    4.556387728
    0.716861436   12.286868325   12.353280153    4.559445343
    0.724040067   12.296468096   12.363057461    4.562575598
    0.731218698   12.306187337   12.372964335    4.565782772
    0.738397329   12.316027269   12.383002920    4.569071668
    0.745575960   12.325989204   12.393175563    4.572447699
    0.752754591   12.336074555   12.403484857    4.575916986
    0.759933222   12.346284856   12.413933672    4.579486483
    0.767111853   12.356621775   12.424525207    4.583164124
    0.774290484   12.367087144   12.435263048    4.586959003
    0.781469115   12.377682986   12.446151243    4.590881600
    0.788647746   12.388411551   12.457194387    4.594944052
    0.795826377   12.399275359   12.468397735    4.599160497
    0.803005008   12.410277259   12.479767344    4.603547504
    0.810183639   12.421420500   12.491310249    4.608124623
    0.817362270   12.432708822   12.503034687    4.612915074
    0.824540902   12.444146571   12.514950393    4.617946652
    0.831719533   12.455738855   12.527068975    4.623252899
    0.838898164   12.467491746   12.539404422    4.628874645
    0.846076795   12.479412544   12.551973764    4.634862065
    0.853255426   12.491510143   12.564797976    4.641277450
    0.860434057   12.503795524   12.577903201    4.648198988
    0.867612688   12.516282431   12.591322444    4.655725978
    0.874791319   12.528988324   12.605097929    4.663986110
    0.881969950   12.541935717   12.619284426    4.673145708
    0.889148581   12.555154059   12.633953941    4.683424198
    0.896327212   12.568682374   12.649202271    4.695114336
    0.903505843   12.582572808   12.665157822    4.708609372
    0.910684474   12.596894782   12.681991946    4.724434953
    0.917863105   12.611737504   12.699925182    4.743268355
    0.925041736   12.627200623   12.719204017    4.765866812
    0.932220367   12.643331435   12.739944713    4.792585894
    0.939398998   12.659842567   12.761431252    4.821214380
    0.946577629   12.675004937   12.779362263    4.838483913
    0.953756260   12.682647955   12.778390955    4.797062475
    0.960934891   12.674706472   12.738459019    4.635087860
    0.968113523   12.666149175   12.696789998    4.467352485
    0.975292154   12.673459054   12.694373268    4.420262352
    0.982470785   12.689110782   12.712492921    4.436094906
    0.989649416   12.706587190   12.734940162    4.464859327
    0.996828047   12.724005421   12.757031058    4.492106862
    1.004006678   12.741038904   12.777951909    4.515324281
    1.011185309   12.757727321   12.797799817    4.534807118
    1.018363940   12.774170208   12.816820706    4.551309750
    1.025542571   12.790458152   12.835238225    4.565517735
    1.032721202   12.806662040   12.853227010    4.577965336
    1.039899833   12.822835298   12.870918246    4.589052679
    1.047078464   12.839018048   12.888410021    4.599077661
    1.054257095   12.855240710   12.905776262    4.608263505
    1.061435726   12.871526683   12.923073425    4.616779366
    1.068614357   12.887894276   12.940345280    4.624755084
    1.075792988   12.904358071   12.957626309    4.632291638
    1.082971619   12.920929891   12.974944114    4.639468563
    1.090150250   12.937619497   12.992321154    4.646349269
    1.097328881   12.954435096   13.009776000    4.652984891
    1.104507513   12.971383705   13.027324255    4.659417109
    1.111686144   12.988471434   13.044979253    4.665680242
    1.118864775   13.005703693   13.062752570    4.671802817
    1.126043406   13.023085350   13.080654435    4.677808766
    1.133222037   13.040620859   13.098694041    4.683718333
    1.140400668   13.058314355   13.116879793    4.689548793
    1.147579299   13.076169738   13.135219518    4.695315001
    1.154757930   13.094190735   13.153720632    4.701029837
    1.161936561   13.112380960   13.172390290    4.706704555
    1.169115192   13.130743957   13.191235519    4.712349068
    1.176293823   13.149283251   13.210263342    4.717972178
    1.183472454   13.168002383   13.229480898    4.723581763
    1.190651085   13.186904954   13.248895570    4.729184942
    1.197829716   13.205994669   13.268515111    4.734788200
    1.205008347   13.225275376   13.288347798    4.740397505
    1.212186978   13.244751123   13.308402598    4.746018409
    1.219365609   13.264426211   13.328689373    4.751656131
    1.226544240   13.284305265   13.349219123    4.757315640
    1.233722871   13.304393318   13.370004291    4.763001731
    1.240901503   13.324695917   13.391059156    4.768719094
    1.248080134   13.345219256   13.412400325    4.774472397
    1.255258765   13.365970351   13.434047390    4.780266360
    1.262437396   13.386957267   13.456023790    4.786105851
    1.269616027   13.408189426   13.478357980    4.791995990
    1.276794658   13.429678022   13.501085011    4.797942286
    1.283973289   13.451436591   13.524248726    4.803950801
    1.291151920   13.473481809   13.547904818    4.810028383
    1.298330551   13.495834611   13.572125134    4.816182958
    1.305509182   13.518521759   13.597003752    4.822423955
    1.312687813   13.541578029   13.622665407    4.828762864
    1.319866444   13.565049078   13.649276591    4.835213973
    1.327045075   13.588994576   13.677057668    4.841795169
    1.334223706   13.613489049   13.706286065    4.848528198
    1.341402337   13.638609375   13.737247600    4.855435701
    1.348580968   13.664364203   13.769962120    4.862524241
    1.355759599   13.690388296   13.802995523    4.869710560
    1.362938230   13.714799828   13.829018904    4.876545674
    1.370116861   13.731792713   13.825451767    4.881633453
    1.377295492   13.737721315   13.778108082    4.884100467
    1.384474124   13.748268178   13.747912835    4.887742844
    1.391652755   13.770514964   13.762364587    4.894280564
    1.398831386   13.797567020   13.794645302    4.902059385
    1.406010017   13.825620709   13.829946545    4.910173648
    1.413188648   13.853714713   13.864502521    4.918406705
    1.420367279   13.881726671   13.897804066    4.926747686
    1.427545910   13.909721288   13.930064532    4.935234900
    1.434724541   13.937789122   13.961592321    4.943918050
    1.441903172   13.966012431   13.992656962    4.952851552
    1.449081803   13.994461754   14.023474240    4.962095851
    1.456260434   14.023199222   14.054217024    4.971721201
    1.463439065   14.052282849   14.085029238    4.981812872
    1.470617696   14.081770681   14.116038366    4.992478035
    1.477796327   14.111724860   14.147366373    5.003854995
    1.484974958   14.142215953   14.179139882    5.016125493
    1.492153589   14.173327877   14.211500210    5.029529882
    1.499332220   14.205163360   14.244612208    5.044380401
    1.506510851   14.237848127   14.278664301    5.061049036
    1.513689482   14.271525008   14.313826640    5.079832350
    1.520868114   14.306301058   14.350033328    5.100301225
    1.528046745   14.342000393   14.386073970    5.118655505
    1.535225376   14.377228047   14.416575380    5.119497199
    1.542404007   14.407500168   14.428940985    5.072701043
    1.549582638   14.430702470   14.424169048    4.996276904
    1.556761269   14.459965253   14.434376038    4.962319938
    1.563939900   14.500353562   14.465803756    4.971315717
    1.571118531   14.545575889   14.505016831    4.994017047
    1.578297162   14.587556760   14.545081590    5.016889467
    1.585475793   14.606253006   14.582043866    5.031812804
    1.592654424   14.572739585   14.612084711    5.030555867
    1.599833055   14.530941058   14.641024979    5.025727634
    1.607011686   14.542301336   14.676975537    5.034869920
    1.614190317   14.584390350   14.717263901    5.052042401
    1.621368948   14.633919997   14.759107012    5.071004687
    1.628547579   14.683599210   14.801806953    5.089895909
    1.635726210   14.730400581   14.845322081    5.107796666
    1.642904841   14.768570389   14.889531098    5.122379087
    1.650083472   14.793543303   14.934492659    5.131824417
    1.657262104   14.821644892   14.981940298    5.143523798
    1.664440735   14.862994233   15.033275937    5.162219947
    1.671619366   14.910749904   15.088737633    5.185278206
    1.678797997   14.960776828   15.148593839    5.211160498
    1.685976628   15.011947104   15.211825365    5.238847558
    1.693155259   15.062605040   15.270382967    5.263394983
    1.700333890   15.105351817   15.291267111    5.264364479
    1.707512521   15.119430851   15.207622043    5.197782718
    1.714691152   15.100366837   15.068387776    5.086757217
    1.721869783   15.104441524   15.032893218    5.038855208
    1.729048414   15.144365750   15.078863853    5.048188968
    1.736227045   15.197467384   15.147439897    5.073906882
    1.743405676   15.253450333   15.218444558    5.100682894
    1.750584307   15.310021037   15.287894178    5.125229557
    1.757762938   15.366710285   15.355270046    5.147382962
    1.764941569   15.421594684   15.417875535    5.167537001
    1.772120200   15.466191663   15.462925005    5.185892628
    1.779298831   15.484732386   15.466411977    5.202323627
    1.786477462   15.494095039   15.453920602    5.217713630
    1.793656093   15.531666357   15.482137822    5.233570780
    1.800834725   15.589545965   15.538672982    5.249843326
    1.808013356   15.654535942   15.603113248    5.266258305
    1.815191987   15.721837327   15.668600977    5.282719163
    1.822370618   15.786362247   15.731558537    5.298725945
    1.829549249   15.829769772   15.781904029    5.311945795
    1.836727880   15.809724486   15.796406362    5.316881112
    1.843906511   15.741863537   15.783941522    5.315620252
    1.851085142   15.733329047   15.804045296    5.322233447
    1.858263773   15.781960252   15.855658742    5.336485938
    1.865442404   15.847403254   15.916535806    5.353150000
    1.872621035   15.914455358   15.978347805    5.370300932
    1.879799666   15.979891636   16.039391432    5.387596512
    1.886978297   16.043612039   16.099689479    5.405123741
    1.894156928   16.106147913   16.159614479    5.423080437
    1.901335559   16.168076834   16.219569650    5.441709633
    1.908514190   16.229916066   16.279935263    5.461299602
    1.915692821   16.292127677   16.341076440    5.482197904
    1.922871452   16.355136338   16.403353112    5.504808240
    1.930050083   16.419302972   16.467081623    5.529486175
    1.937228715   16.484707396   16.532289586    5.556006705
    1.944407346   16.550184717   16.597656677    5.581335000
    1.951585977   16.609973860   16.656845578    5.591949628
    1.958764608   16.649767695   16.694179612    5.554800922
    1.965943239   16.672680496   16.713039685    5.476573022
    1.973121870   16.716182534   16.754382763    5.442318615
    1.980300501   16.781992832   16.820067249    5.455359519
    1.987479132   16.856153905   16.894798249    5.483077121
    1.994657763   16.933434739   16.972782482    5.512588195
    2.001836394   17.013101826   17.052978557    5.541110095
    2.009015025   17.095535275   17.134913997    5.568554447
    2.016193656   17.180637820   17.215183825    5.595388838
    2.023372287   17.265756804   17.281237663    5.622084068
    2.030550918   17.346022467   17.321335518    5.649029329
    2.037729549   17.417375006   17.368663793    5.676585371
    2.044908180   17.447017464   17.439103329    5.704031246
    2.052086811   17.409388753   17.509322668    5.730154263
    2.059265442   17.402607863   17.583744364    5.756189910
    2.066444073   17.453188543   17.646885543    5.774370073
    2.073622705   17.486579656   17.640986349    5.764425971
    2.080801336   17.506641413   17.605984418    5.743541908
    2.087979967   17.575866253   17.652473922    5.755203941
    2.095158598   17.679046093   17.757909228    5.787641970
    2.102337229   17.788121388   17.879752551    5.814384450
    2.109515860   17.888674799   17.996939242    5.817230594
    2.116694491   17.971663481   18.082191688    5.807837747
    2.123873122   18.013261850   18.085753432    5.786517857
    2.131051753   18.027450261   18.035969264    5.772739001
    2.138230384   18.082344450   18.056285448    5.797032580
    2.145409015   18.176504846   18.156286720    5.842060821
    2.152587646   18.253122529   18.268898882    5.887770848
    2.159766277   18.281402556   18.353137101    5.917888846
    2.166944908   18.318796218   18.409333466    5.910015455
    2.174123539   18.375882689   18.427575841    5.858365368
    2.181302170   18.425656100   18.438938588    5.828605673
    2.188480801   18.493918755   18.480140082    5.830263078
    2.195659432   18.586962460   18.527478499    5.822205689
    2.202838063   18.695785800   18.596333761    5.821669324
    2.210016694   18.819768373   18.715700944    5.854869804
    2.217195326   18.942439344   18.854771416    5.902870818
    2.224373957   19.031791369   18.979456584    5.948310841
    2.231552588   19.050702809   19.055451547    5.979694144
    2.238731219   19.044233151   19.094594918    5.999509308
    2.245909850   19.098891359   19.152489564    6.014934316
    2.253088481   19.198250019   19.196753397    6.003578496
    2.260267112   19.312040090   19.239933247    5.985344490
    2.267445743   19.440286967   19.347356218    6.007686903
    2.274624374   19.575007004   19.491567393    6.054708376
    2.281803005   19.705250909   19.628985837    6.101939161
    2.288981636   19.814158453   19.711918567    6.127261962
    2.296160267   19.894392061   19.725733290    6.120182506
    2.303338898   19.979067490   19.754033399    6.114884501
    2.310517529   20.094229026   19.853654920    6.145008128
    2.317696160   20.223678216   19.988782538    6.196752480
    2.324874791   20.360145087   20.131648115    6.253844223
    2.332053422   20.494044506   20.262556328    6.299138641
    2.339232053   20.600511144   20.365217335    6.294449394
    2.346410684   20.679569025   20.468670551    6.213562013
    2.353589316   20.765745016   20.584274238    6.134728205
    2.360767947   20.867632783   20.682152127    6.139501287
    2.367946578   20.974614243   20.767679567    6.190680232
    2.375125209   21.103656433   20.895938251    6.247604887
    2.382303840   21.236984439   21.050736596    6.298421256
    2.389482471   21.371760050   21.195658269    6.354395845
    2.396661102   21.482267891   21.291444404    6.416783267
    2.403839733   21.591072540   21.372232592    6.473224495
    2.411018364   21.744457432   21.490831076    6.503680747
    2.418196995   21.916713300   21.622544671    6.513072512
    2.425375626   22.100887479   21.771476773    6.545278638
    2.432554257   22.315728424   21.957527878    6.614890865
    2.439732888   22.555224136   22.173601206    6.705682989
    2.446911519   22.788195555   22.404471567    6.788263411
    2.454090150   22.951962767   22.635117627    6.800295900
    2.461268781   23.012383903   22.830097136    6.671388003
    2.468447412   22.983664334   22.915663680    6.486012582
    2.475626043   22.870123644   22.849191222    6.393769981
    2.482804674   22.844191685   22.762172794    6.373665669
    2.489983306   22.894919312   22.727067890    6.291848039
    2.497161937   23.030332817   22.791095300    6.220443276
    2.504340568   23.301488537   23.007528825    6.260990779
    2.511519199   23.602546294   23.262257860    6.351271079
    2.518697830   23.790921776   23.434059877    6.436487388
    2.525876461   23.741177236   23.481024494    6.495648067
    2.533055092   23.526534401   23.472022361    6.517101070
    2.540233723   23.350449544   23.486394678    6.484321033
