# energy grid [eV]     epsr_x  epsr_y  epsr_z
#
    0.200000000   12.902212766    3.009246497   12.947601692
    0.207178631   12.904971742    3.009574795   12.950462558
    0.214357262   12.907829543    3.009914889   12.953426006
    0.221535893   12.910786331    3.010266804   12.956492217
    0.228714524   12.913842275    3.010630564   12.959661375
    0.235893155   12.916997549    3.011006194   12.962933676
    0.243071786   12.920252332    3.011393721   12.966309318
    0.250250417   12.923606811    3.011793173   12.969788509
    0.257429048   12.927061177    3.012204578   12.973371462
    0.264607679   12.930615629    3.012627966   12.977058396
    0.271786311   12.934270370    3.013063368   12.980849540
    0.278964942   12.938025610    3.013510815   12.984745128
    0.286143573   12.941881567    3.013970340   12.988745400
    0.293322204   12.945838462    3.014441976   12.992850605
    0.300500835   12.949896524    3.014925760   12.997060999
    0.307679466   12.954055989    3.015421727   13.001376844
    0.314858097   12.958317098    3.015929915   13.005798411
    0.322036728   12.962680099    3.016450362   13.010325977
    0.329215359   12.967145247    3.016983109   13.014959827
    0.336393990   12.971712802    3.017528196   13.019700255
    0.343572621   12.976383033    3.018085666   13.024547559
    0.350751252   12.981156213    3.018655563   13.029502049
    0.357929883   12.986032624    3.019237932   13.034564041
    0.365108514   12.991012554    3.019832820   13.039733859
    0.372287145   12.996096298    3.020440275   13.045011835
    0.379465776   13.001284156    3.021060347   13.050398310
    0.386644407   13.006576439    3.021693087   13.055893633
    0.393823038   13.011973461    3.022338547   13.061498160
    0.401001669   13.017475547    3.022996784   13.067212260
    0.408180301   13.023083026    3.023667852   13.073036305
    0.415358932   13.028796236    3.024351810   13.078970681
    0.422537563   13.034615523    3.025048718   13.085015780
    0.429716194   13.040541240    3.025758637   13.091172005
    0.436894825   13.046573746    3.026481633   13.097439768
    0.444073456   13.052713412    3.027217769   13.103819489
    0.451252087   13.058960611    3.027967116   13.110311601
    0.458430718   13.065315730    3.028729742   13.116916545
    0.465609349   13.071779161    3.029505721   13.123634773
    0.472787980   13.078351303    3.030295128   13.130466746
    0.479966611   13.085032567    3.031098040   13.137412940
    0.487145242   13.091823370    3.031914538   13.144473837
    0.494323873   13.098724139    3.032744705   13.151649933
    0.501502504   13.105735308    3.033588627   13.158941736
    0.508681135   13.112857321    3.034446392   13.166349766
    0.515859766   13.120090634    3.035318093   13.173874553
    0.523038397   13.127435707    3.036203826   13.181516644
    0.530217028   13.134893014    3.037103690   13.189276595
    0.537395659   13.142463037    3.038017788   13.197154978
    0.544574290   13.150146268    3.038946226   13.205152379
    0.551752922   13.157943210    3.039889116   13.213269398
    0.558931553   13.165854375    3.040846573   13.221506650
    0.566110184   13.173880287    3.041818717   13.229864766
    0.573288815   13.182021480    3.042805673   13.238344393
    0.580467446   13.190278501    3.043807571   13.246946197
    0.587646077   13.198651907    3.044824548   13.255670860
    0.594824708   13.207142268    3.045856745   13.264519084
    0.602003339   13.215750166    3.046904310   13.273491588
    0.609181970   13.224476195    3.047967399   13.282589114
    0.616360601   13.233320963    3.049046174   13.291812426
    0.623539232   13.242285091    3.050140805   13.301162311
    0.630717863   13.251369215    3.051251471   13.310639578
    0.637896494   13.260573986    3.052378360   13.320245064
    0.645075125   13.269900068    3.053521670   13.329979633
    0.652253756   13.279348144    3.054681608   13.339844178
    0.659432387   13.288918911    3.055858396   13.349839623
    0.666611018   13.298613086    3.057052265   13.359966927
    0.673789649   13.308431402    3.058263462   13.370227083
    0.680968280   13.318374613    3.059492248   13.380621126
    0.688146912   13.328443492    3.060738900   13.391150131
    0.695325543   13.338638836    3.062003716   13.401815219
    0.702504174   13.348961462    3.063287009   13.412617563
    0.709682805   13.359412215    3.064589119   13.423558390
    0.716861436   13.369991964    3.065910407   13.434638987
    0.724040067   13.380701606    3.067251261   13.445860710
    0.731218698   13.391542072    3.068612102   13.457224986
    0.738397329   13.402514322    3.069993382   13.468733326
    0.745575960   13.413619355    3.071395593   13.480387334
    0.752754591   13.424858210    3.072819269   13.492188716
    0.759933222   13.436231969    3.074264992   13.504139297
    0.767111853   13.447741761    3.075733401   13.516241032
    0.774290484   13.459388772    3.077225196   13.528496031
    0.781469115   13.471174249    3.078741151   13.540906573
    0.788647746   13.483099504    3.080282124   13.553475141
    0.795826377   13.495165930    3.081849067   13.566204447
    0.803005008   13.507375011    3.083443050   13.579097475
    0.810183639   13.519728329    3.085065271   13.592157527
    0.817362270   13.532227591    3.086717088   13.605388280
    0.824540902   13.544874642    3.088400043   13.618793856
    0.831719533   13.557671493    3.090115902   13.632378916
    0.838898164   13.570620356    3.091866700   13.646148764
    0.846076795   13.583723679    3.093654798   13.660109496
    0.853255426   13.596984201    3.095482958   13.674268173
    0.860434057   13.610405020    3.097354437   13.688633059
    0.867612688   13.623989675    3.099273112   13.703213921
    0.874791319   13.637742262    3.101243639   13.718022427
    0.881969950   13.651667588    3.103271676   13.733072681
    0.889148581   13.665771367    3.105364164   13.748381933
    0.896327212   13.680060505    3.107529731   13.763971562
    0.903505843   13.694543478    3.109779237   13.779868419
    0.910684474   13.709230865    3.112126530   13.796106710
    0.917863105   13.724136103    3.114589524   13.812730644
    0.925041736   13.739276540    3.117191706   13.829798176
    0.932220367   13.754674917    3.119964250   13.847386220
    0.939398998   13.770361344    3.122948834   13.865597644
    0.946577629   13.786375595    3.126200917   13.884569374
    0.953756260   13.802768368    3.129791535   13.904476826
    0.960934891   13.819595469    3.133799021   13.925513359
    0.968113523   13.836880399    3.138255657   13.947757940
    0.975292154   13.854447482    3.142909757   13.970585038
    0.982470785   13.871272870    3.146300336   13.990369644
    0.989649416   13.883794691    3.143347720   13.994511550
    0.996828047   13.887825530    3.128080375   13.968198286
    1.004006678   13.892334038    3.113284775   13.943139833
    1.011185309   13.905682611    3.110883059   13.948902069
    1.018363940   13.923468109    3.114596318   13.969908906
    1.025542571   13.942267981    3.119543874   13.994051515
    1.032721202   13.961120729    3.124354152   14.017923518
    1.039899833   13.979867408    3.128800021   14.040956132
    1.047078464   13.998535873    3.132920880   14.063240668
    1.054257095   14.017183569    3.136798566   14.084972547
    1.061435726   14.035862545    3.140507522   14.106327486
    1.068614357   14.054614243    3.144107441   14.127442968
    1.075792988   14.073470907    3.147645371   14.148423099
    1.082971619   14.092457935    3.151159180   14.169346753
    1.090150250   14.111595902    3.154680603   14.190274541
    1.097328881   14.130902114    3.158237649   14.211254029
    1.104507513   14.150391769    3.161856517   14.232323509
    1.111686144   14.170078845    3.165563212   14.253514708
    1.118864775   14.189976824    3.169385042   14.274854777
    1.126043406   14.210099340    3.173352160   14.296367784
    1.133222037   14.230460802    3.177499326   14.318075893
    1.140400668   14.251077083    3.181868076   14.340000345
    1.147579299   14.271966334    3.186509559   14.362162351
    1.154757930   14.293150024    3.191488387   14.384583963
    1.161936561   14.314654322    3.196887943   14.407289029
    1.169115192   14.336511946    3.202817682   14.430304285
    1.176293823   14.358764582    3.209422762   14.453660691
    1.183472454   14.381465621    3.216894842   14.477394999
    1.190651085   14.404681527    3.225476589   14.501551264
    1.197829716   14.428484347    3.235427046   14.526180678
    1.205008347   14.452904907    3.246814658   14.551332827
    1.212186978   14.477725585    3.258608855   14.577010447
    1.219365609   14.501690579    3.265226906   14.602989886
    1.226544240   14.520686585    3.248583339   14.628403731
    1.233722871   14.531312961    3.193668695   14.652579109
    1.240901503   14.544690948    3.148832164   14.678259510
    1.248080134   14.567525449    3.143081661   14.707208901
    1.255258765   14.594843821    3.154386601   14.738516083
    1.262437396   14.623601740    3.169179764   14.771675423
    1.269616027   14.652893110    3.183740716   14.806228003
    1.276794658   14.681725614    3.196412494   14.839562816
    1.283973289   14.706406545    3.202596167   14.860726224
    1.291151920   14.718709503    3.191999744   14.845418145
    1.298330551   14.722741732    3.169971916   14.805464445
    1.305509182   14.739099017    3.162766856   14.800990623
    1.312687813   14.766544101    3.168868675   14.828187476
    1.319866444   14.797470357    3.178639933   14.864581404
    1.327045075   14.829161805    3.188628374   14.901992754
    1.334223706   14.861138255    3.198195782   14.938744466
    1.341402337   14.893515649    3.207436503   14.974850177
    1.348580968   14.926534293    3.216588052   15.010660739
    1.355759599   14.960359764    3.225829910   15.046478071
    1.362938230   14.994653919    3.234963769   15.082185724
    1.370116861   15.026997230    3.242275414   15.116057729
    1.377295492   15.048997025    3.241727877   15.141831041
    1.384474124   15.052146573    3.227193298   15.153129149
    1.391652755   15.058687268    3.214733197   15.166736353
    1.398831386   15.085534479    3.216555147   15.195422398
    1.406010017   15.122090806    3.224985324   15.231293432
    1.413188648   15.160217037    3.234058994   15.268686953
    1.420367279   15.194414733    3.239514058   15.305222304
    1.427545910   15.218047885    3.236050518   15.339028847
    1.434724541   15.238072991    3.229131362   15.372087576
    1.441903172   15.269232729    3.230386410   15.408516243
    1.449081803   15.308296306    3.237133894   15.447611825
    1.456260434   15.350195666    3.245200112   15.488195042
    1.463439065   15.393549561    3.253298463   15.530110131
    1.470617696   15.438450457    3.261253282   15.573648411
    1.477796327   15.485447913    3.269170896   15.619296969
    1.484974958   15.535297486    3.277222454   15.667688963
    1.492153589   15.588867783    3.285589839   15.719557000
    1.499332220   15.646826776    3.294414877   15.775442379
    1.506510851   15.708197647    3.303596542   15.834332389
    1.513689482   15.764478288    3.311962571   15.888125214
    1.520868114   15.781205459    3.314666960   15.904295106
    1.528046745   15.692695512    3.302448277   15.820965790
    1.535225376   15.558365303    3.283714144   15.693976489
    1.542404007   15.530198825    3.279942976   15.666759913
    1.549582638   15.574692732    3.286392532   15.710653753
    1.556761269   15.624477219    3.293501278   15.770804928
    1.563939900   15.655666637    3.297869853   15.828836296
    1.571118531   15.694887493    3.303376930   15.886692466
    1.578297162   15.753425079    3.311648992   15.946588049
    1.585475793   15.819598152    3.320975529   16.007306792
    1.592654424   15.887612681    3.330564810   16.068392223
    1.599833055   15.954551384    3.340340582   16.128395349
    1.607011686   16.010738592    3.350408152   16.178962776
    1.614190317   16.025566644    3.360845913   16.193307409
    1.621368948   15.979003607    3.371822884   16.153735023
    1.628547579   15.956011362    3.384021523   16.133637068
    1.635726210   15.997079070    3.397912087   16.167944636
    1.642904841   16.064192405    3.413328176   16.224266296
    1.650083472   16.130893444    3.428746301   16.283688859
    1.657262104   16.171152302    3.437996090   16.338615850
    1.664440735   16.154066974    3.431914467   16.384054851
    1.671619366   16.127943381    3.425524227   16.427355352
    1.678797997   16.156231994    3.436032946   16.477747521
    1.685976628   16.210349544    3.441673450   16.529088007
    1.693155259   16.254161928    3.396241878   16.570196714
    1.700333890   16.278316302    3.290028772   16.598696356
    1.707512521   16.313567590    3.225395014   16.635473365
    1.714691152   16.366783960    3.223603775   16.684996443
    1.721869783   16.425530207    3.243011743   16.738929969
    1.729048414   16.484398230    3.264732954   16.793553805
    1.736227045   16.542410239    3.284353153   16.848079637
    1.743405676   16.599790503    3.301459010   16.902525919
    1.750584307   16.657010269    3.316478896   16.957080656
    1.757762938   16.714563971    3.329918577   17.011948788
    1.764941569   16.772881950    3.342199726   17.067310737
    1.772120200   16.832076759    3.353617657   17.123258429
    1.779298831   16.890862910    3.364227239   17.179531185
    1.786477462   16.942672541    3.373390908   17.234559846
    1.793656093   16.969572107    3.379056684   17.283967801
    1.800834725   16.969443934    3.381059644   17.327282388
    1.808013356   16.990328399    3.385287288   17.376413592
    1.815191987   17.040643777    3.392815280   17.433495932
    1.822370618   17.101208722    3.401366892   17.493858348
    1.829549249   17.163580083    3.409957397   17.555489952
    1.836727880   17.225857103    3.418388231   17.618008119
    1.843906511   17.287949691    3.426675794   17.681495555
    1.851085142   17.350168490    3.434882118   17.746159097
    1.858263773   17.412891494    3.443075657   17.812256865
    1.865442404   17.476506263    3.451325207   17.880096999
    1.872621035   17.541419108    3.459701243   17.950057031
    1.879799666   17.608072344    3.468275594   18.022607249
    1.886978297   17.676923717    3.477106111   18.098312707
    1.894156928   17.748247235    3.486158396   18.177716970
    1.901335559   17.821232457    3.494987289   18.260734921
    1.908514190   17.891140423    3.501804426   18.344522838
    1.915692821   17.947966491    3.503741880   18.420310151
    1.922871452   17.989037096    3.504547428   18.471813942
    1.930050083   17.998380108    3.509747316   18.453876626
    1.937228715   17.976655132    3.517475246   18.373377719
    1.944407346   18.000057873    3.527238165   18.365777415
    1.951585977   18.071055954    3.538535510   18.436898155
    1.958764608   18.158276348    3.550727495   18.533501863
    1.965943239   18.249554692    3.563722969   18.634600999
    1.973121870   18.341762146    3.577546569   18.735518939
    1.980300501   18.430528740    3.591616866   18.834440894
    1.987479132   18.498237789    3.602728277   18.924444175
    1.994657763   18.506159332    3.601546402   18.985335353
    2.001836394   18.472331051    3.583634287   19.009703915
    2.009015025   18.492339557    3.573790984   19.052135973
    2.016193656   18.567222985    3.583659475   19.135759244
    2.023372287   18.660168382    3.602388106   19.237292790
    2.030550918   18.755195582    3.622419048   19.342230351
    2.037729549   18.844496200    3.635797913   19.440227128
    2.044908180   18.914385202    3.623169785   19.509450842
    2.052086811   18.957894874    3.574078741   19.538406699
    2.059265442   19.012133335    3.540382178   19.585898580
    2.066444073   19.092266298    3.542995008   19.675855552
    2.073622705   19.182828144    3.559595656   19.783481575
    2.080801336   19.275732211    3.578350955   19.895845089
    2.087979967   19.369180034    3.596343817   20.010138315
    2.095158598   19.463212853    3.613254210   20.126592791
    2.102337229   19.558299469    3.629336080   20.246242837
    2.109515860   19.654999416    3.644922147   20.370397144
    2.116694491   19.753880001    3.660322674   20.500451173
    2.123873122   19.855391082    3.675817021   20.637334500
    2.131051753   19.959303857    3.691654031   20.779033816
    2.138230384   20.062462768    3.708007222   20.910824101
    2.145409015   20.152789319    3.724811778   20.979333188
    2.152587646   20.215305085    3.741838455   20.918699266
    2.159766277   20.280716018    3.759569048   20.861283831
    2.166944908   20.376443118    3.776355292   20.928962424
    2.174123539   20.476087885    3.783873024   21.021016695
    2.181302170   20.560656472    3.776492937   21.064723965
    2.188480801   20.656095324    3.774248120   21.133369152
    2.195659432   20.779331234    3.790563704   21.268106362
    2.202838063   20.919998900    3.818056010   21.433769007
    2.210016694   21.069798332    3.850028639   21.607352774
    2.217195326   21.221619987    3.881552723   21.780464808
    2.224373957   21.350542252    3.898389009   21.940042020
    2.231552588   21.383871974    3.863866893   22.052286931
    2.238731219   21.290840139    3.777141248   22.114995097
    2.245909850   21.270596671    3.736247869   22.223171505
    2.253088481   21.391918631    3.755256145   22.395181310
    2.260267112   21.571976875    3.795976401   22.595045406
    2.267445743   21.767080052    3.841089775   22.805018981
    2.274624374   21.955563836    3.880884640   23.009002108
    2.281803005   22.090711442    3.891466550   23.158288498
    2.288981636   22.091044194    3.829794692   23.175108904
    2.296160267   22.030112552    3.733349201   23.155977260
    2.303338898   22.089178111    3.701945918   23.274275921
    2.310517529   22.210128031    3.719289542   23.468018285
    2.317696160   22.306179223    3.744549209   23.662120819
    2.324874791   22.443460703    3.775297763   23.887162742
    2.332053422   22.632063743    3.806262268   24.135824339
    2.339232053   22.793396273    3.812702086   24.324267806
    2.346410684   22.892634105    3.778159962   24.418488537
    2.353589316   23.032916570    3.750166002   24.586188831
    2.360767947   23.255193776    3.761468345   24.887827553
    2.367946578   23.492570501    3.790662174   25.213549206
    2.375125209   23.626009934    3.819683630   25.360623952
    2.382303840   23.473227848    3.839096037   25.012467729
    2.389482471   23.202433611    3.853607018   24.462500984
    2.396661102   23.220181288    3.875892804   24.419548320
    2.403839733   23.431350951    3.903023459   24.717627713
    2.411018364   23.653679753    3.928262617   25.035539393
    2.418196995   23.815218653    3.948577380   25.232603891
    2.425375626   23.948234113    3.969283103   25.352987148
    2.432554257   24.068321312    3.991600899   25.390383626
    2.439732888   24.221885727    4.012632868   25.385579254
    2.446911519   24.441720587    4.039679727   25.544529715
    2.454090150   24.703501144    4.073638968   25.876688379
    2.461268781   24.965994438    4.103755686   26.253632170
    2.468447412   25.177530378    4.105015423   26.585882161
    2.475626043   25.284938209    4.052200794   26.827126811
    2.482804674   25.372208718    3.996429475   27.067701130
    2.489983306   25.564659248    3.994055328   27.399093168
    2.497161937   25.837564555    4.027011151   27.796360240
    2.504340568   26.139127030    4.069819063   28.218804730
    2.511519199   26.445029269    4.109586885   28.638720468
    2.518697830   26.742056859    4.136594162   29.028885352
    2.525876461   27.039691755    4.153163892   29.407512631
    2.533055092   27.341954760    4.166760432   29.795885807
    2.540233723   27.622372800    4.176260038   30.189839279
