# energy grid [eV]     ieps_x  ieps_y  ieps_z
#
    0.200000000    7.972947221    1.514830765    8.041264644
    0.207178631    7.971277465    1.514698913    8.039526226
    0.214357262    7.969549771    1.514562525    8.037727545
    0.221535893    7.967764235    1.514421613    8.035868707
    0.228714524    7.965920956    1.514276189    8.033949822
    0.235893155    7.964020038    1.514126264    8.031971003
    0.243071786    7.962061586    1.513971851    8.029932366
    0.250250417    7.960045708    1.513812962    8.027834030
    0.257429048    7.957972516    1.513649611    8.025676118
    0.264607679    7.955842126    1.513481811    8.023458756
    0.271786311    7.953654653    1.513309576    8.021182074
    0.278964942    7.951410221    1.513132918    8.018846203
    0.286143573    7.949108951    1.512951854    8.016451280
    0.293322204    7.946750971    1.512766396    8.013997442
    0.300500835    7.944336410    1.512576559    8.011484834
    0.307679466    7.941865400    1.512382360    8.008913598
    0.314858097    7.939338076    1.512183812    8.006283883
    0.322036728    7.936754578    1.511980931    8.003595842
    0.329215359    7.934115044    1.511773734    8.000849626
    0.336393990    7.931419620    1.511562235    7.998045395
    0.343572621    7.928668451    1.511346452    7.995183308
    0.350751252    7.925861686    1.511126400    7.992263528
    0.357929883    7.922999478    1.510902097    7.989286221
    0.365108514    7.920081982    1.510673558    7.986251556
    0.372287145    7.917109353    1.510440802    7.983159705
    0.379465776    7.914081753    1.510203845    7.980010842
    0.386644407    7.910999343    1.509962706    7.976805145
    0.393823038    7.907862289    1.509717401    7.973542794
    0.401001669    7.904670759    1.509467948    7.970223972
    0.408180301    7.901424923    1.509214366    7.966848863
    0.415358932    7.898124953    1.508956673    7.963417657
    0.422537563    7.894771025    1.508694888    7.959930545
    0.429716194    7.891363316    1.508429028    7.956387719
    0.436894825    7.887902007    1.508159112    7.952789376
    0.444073456    7.884387280    1.507885160    7.949135715
    0.451252087    7.880819321    1.507607191    7.945426936
    0.458430718    7.877198316    1.507325223    7.941663243
    0.465609349    7.873524455    1.507039277    7.937844843
    0.472787980    7.869797930    1.506749371    7.933971943
    0.479966611    7.866018936    1.506455525    7.930044755
    0.487145242    7.862187668    1.506157759    7.926063492
    0.494323873    7.858304326    1.505856093    7.922028369
    0.501502504    7.854369110    1.505550546    7.917939604
    0.508681135    7.850382224    1.505241140    7.913797418
    0.515859766    7.846343872    1.504927894    7.909602032
    0.523038397    7.842254263    1.504610828    7.905353672
    0.530217028    7.838113605    1.504289962    7.901052564
    0.537395659    7.833922109    1.503965319    7.896698937
    0.544574290    7.829679990    1.503636917    7.892293021
    0.551752922    7.825387463    1.503304778    7.887835050
    0.558931553    7.821044745    1.502968922    7.883325260
    0.566110184    7.816652055    1.502629371    7.878763886
    0.573288815    7.812209616    1.502286145    7.874151168
    0.580467446    7.807717649    1.501939266    7.869487348
    0.587646077    7.803176380    1.501588754    7.864772667
    0.594824708    7.798586036    1.501234631    7.860007371
    0.602003339    7.793946846    1.500876918    7.855191707
    0.609181970    7.789259039    1.500515636    7.850325923
    0.616360601    7.784522848    1.500150807    7.845410268
    0.623539232    7.779738507    1.499782451    7.840444996
    0.630717863    7.774906251    1.499410592    7.835430360
    0.637896494    7.770026318    1.499035249    7.830366615
    0.645075125    7.765098945    1.498656445    7.825254018
    0.652253756    7.760124374    1.498274202    7.820092828
    0.659432387    7.755102847    1.497888540    7.814883305
    0.666611018    7.750034606    1.497499482    7.809625711
    0.673789649    7.744919897    1.497107050    7.804320309
    0.680968280    7.739758965    1.496711265    7.798967365
    0.688146912    7.734552060    1.496312149    7.793567144
    0.695325543    7.729299430    1.495909724    7.788119914
    0.702504174    7.724001326    1.495504011    7.782625945
    0.709682805    7.718658000    1.495095034    7.777085506
    0.716861436    7.713269705    1.494682813    7.771498870
    0.724040067    7.707836695    1.494267370    7.765866309
    0.731218698    7.702359228    1.493848728    7.760188099
    0.738397329    7.696837558    1.493426909    7.754464515
    0.745575960    7.691271947    1.493001934    7.748695833
    0.752754591    7.685662651    1.492573826    7.742882332
    0.759933222    7.680009933    1.492142606    7.737024290
    0.767111853    7.674314054    1.491708297    7.731121989
    0.774290484    7.668575277    1.491270921    7.725175710
    0.781469115    7.662793866    1.490830499    7.719185734
    0.788647746    7.656970086    1.490387054    7.713152346
    0.795826377    7.651104202    1.489940608    7.707075830
    0.803005008    7.645196483    1.489491183    7.700956471
    0.810183639    7.639247195    1.489038801    7.694794555
    0.817362270    7.633256608    1.488583484    7.688590371
    0.824540902    7.627224991    1.488125254    7.682344205
    0.831719533    7.621152616    1.487664133    7.676056348
    0.838898164    7.615039752    1.487200143    7.669727089
    0.846076795    7.608886674    1.486733306    7.663356717
    0.853255426    7.602693654    1.486263644    7.656945526
    0.860434057    7.596460965    1.485791180    7.650493806
    0.867612688    7.590188883    1.485315935    7.644001851
    0.874791319    7.583877682    1.484837931    7.637469953
    0.881969950    7.577527639    1.484357190    7.630898408
    0.889148581    7.571139030    1.483873735    7.624287508
    0.896327212    7.564712132    1.483387586    7.617637551
    0.903505843    7.558247223    1.482898767    7.610948831
    0.910684474    7.551744582    1.482407298    7.604221646
    0.917863105    7.545204488    1.481913202    7.597456290
    0.925041736    7.538627220    1.481416501    7.590653063
    0.932220367    7.532013057    1.480917216    7.583812261
    0.939398998    7.525362281    1.480415369    7.576934183
    0.946577629    7.518675173    1.479910983    7.570019127
    0.953756260    7.511952013    1.479404078    7.563067392
    0.960934891    7.505193083    1.478894676    7.556079277
    0.968113523    7.498398666    1.478382800    7.549055081
    0.975292154    7.491569043    1.477868471    7.541995105
    0.982470785    7.484704498    1.477351711    7.534899649
    0.989649416    7.477805313    1.476832540    7.527769012
    0.996828047    7.470871771    1.476310981    7.520603495
    1.004006678    7.463904157    1.475787056    7.513403398
    1.011185309    7.456902754    1.475260785    7.506169022
    1.018363940    7.449867846    1.474732191    7.498900669
    1.025542571    7.442799717    1.474201294    7.491598638
    1.032721202    7.435698650    1.473668117    7.484263232
    1.039899833    7.428564932    1.473132680    7.476894750
    1.047078464    7.421398845    1.472595004    7.469493494
    1.054257095    7.414200675    1.472055112    7.462059766
    1.061435726    7.406970706    1.471513024    7.454593865
    1.068614357    7.399709222    1.470968762    7.447096093
    1.075792988    7.392416509    1.470422346    7.439566751
    1.082971619    7.385092851    1.469873798    7.432006139
    1.090150250    7.377738532    1.469323139    7.424414559
    1.097328881    7.370353838    1.468770390    7.416792310
    1.104507513    7.362939052    1.468215572    7.409139693
    1.111686144    7.355494459    1.467658706    7.401457008
    1.118864775    7.348020342    1.467099813    7.393744555
    1.126043406    7.340516987    1.466538913    7.386002633
    1.133222037    7.332984677    1.465976027    7.378231542
    1.140400668    7.325423696    1.465411177    7.370431580
    1.147579299    7.317834326    1.464844383    7.362603048
    1.154757930    7.310216853    1.464275665    7.354746242
    1.161936561    7.302571557    1.463705044    7.346861461
    1.169115192    7.294898724    1.463132541    7.338949003
    1.176293823    7.287198633    1.462558176    7.331009165
    1.183472454    7.279471569    1.461981969    7.323042245
    1.190651085    7.271717813    1.461403942    7.315048537
    1.197829716    7.263937645    1.460824114    7.307028339
    1.205008347    7.256131348    1.460242505    7.298981946
    1.212186978    7.248299203    1.459659136    7.290909652
    1.219365609    7.240441488    1.459074028    7.282811753
    1.226544240    7.232558486    1.458487199    7.274688543
    1.233722871    7.224650474    1.457898670    7.266540314
    1.240901503    7.216717731    1.457308462    7.258367360
    1.248080134    7.208760538    1.456716594    7.250169972
    1.255258765    7.200779171    1.456123085    7.241948443
    1.262437396    7.192773908    1.455527957    7.233703064
    1.269616027    7.184745026    1.454931228    7.225434124
    1.276794658    7.176692801    1.454332918    7.217141914
    1.283973289    7.168617510    1.453733047    7.208826723
    1.291151920    7.160519428    1.453131634    7.200488838
    1.298330551    7.152398830    1.452528699    7.192128548
    1.305509182    7.144255989    1.451924262    7.183746139
    1.312687813    7.136091180    1.451318341    7.175341898
    1.319866444    7.127904674    1.450710957    7.166916110
    1.327045075    7.119696745    1.450102128    7.158469059
    1.334223706    7.111467664    1.449491873    7.150001030
    1.341402337    7.103217702    1.448880212    7.141512305
    1.348580968    7.094947129    1.448267163    7.133003166
    1.355759599    7.086656214    1.447652746    7.124473895
    1.362938230    7.078345226    1.447036980    7.115924773
    1.370116861    7.070014433    1.446419883    7.107356078
    1.377295492    7.061664103    1.445801474    7.098768090
    1.384474124    7.053294502    1.445181773    7.090161087
    1.391652755    7.044905895    1.444560796    7.081535345
    1.398831386    7.036498547    1.443938564    7.072891140
    1.406010017    7.028072723    1.443315094    7.064228748
    1.413188648    7.019628686    1.442690406    7.055548442
    1.420367279    7.011166698    1.442064517    7.046850496
    1.427545910    7.002687020    1.441437445    7.038135182
    1.434724541    6.994189914    1.440809209    7.029402771
    1.441903172    6.985675639    1.440179828    7.020653533
    1.449081803    6.977144454    1.439549318    7.011887738
    1.456260434    6.968596618    1.438917698    7.003105653
    1.463439065    6.960032386    1.438284987    6.994307546
    1.470617696    6.951452017    1.437651201    6.985493683
    1.477796327    6.942855764    1.437016359    6.976664329
    1.484974958    6.934243883    1.436380478    6.967819748
    1.492153589    6.925616626    1.435743576    6.958960203
    1.499332220    6.916974247    1.435105670    6.950085955
    1.506510851    6.908316996    1.434466779    6.941197266
    1.513689482    6.899645125    1.433826919    6.932294395
    1.520868114    6.890958882    1.433186107    6.923377600
    1.528046745    6.882258517    1.432544361    6.914447138
    1.535225376    6.873544276    1.431901698    6.905503267
    1.542404007    6.864816407    1.431258135    6.896546242
    1.549582638    6.856075154    1.430613690    6.887576315
    1.556761269    6.847320763    1.429968378    6.878593740
    1.563939900    6.838553476    1.429322217    6.869598769
    1.571118531    6.829773536    1.428675224    6.860591652
    1.578297162    6.820981185    1.428027415    6.851572638
    1.585475793    6.812176662    1.427378807    6.842541975
    1.592654424    6.803360207    1.426729416    6.833499911
    1.599833055    6.794532057    1.426079260    6.824446691
    1.607011686    6.785692450    1.425428353    6.815382559
    1.614190317    6.776841622    1.424776713    6.806307759
    1.621368948    6.767979807    1.424124356    6.797222532
    1.628547579    6.759107240    1.423471298    6.788127121
    1.635726210    6.750224151    1.422817554    6.779021763
    1.642904841    6.741330774    1.422163141    6.769906698
    1.650083472    6.732427339    1.421508075    6.760782162
    1.657262104    6.723514074    1.420852372    6.751648392
    1.664440735    6.714591208    1.420196046    6.742505621
    1.671619366    6.705658967    1.419539115    6.733354084
    1.678797997    6.696717577    1.418881593    6.724194012
    1.685976628    6.687767263    1.418223496    6.715025636
    1.693155259    6.678808249    1.417564838    6.705849186
    1.700333890    6.669840756    1.416905637    6.696664890
    1.707512521    6.660865005    1.416245906    6.687472974
    1.714691152    6.651881217    1.415585661    6.678273664
    1.721869783    6.642889610    1.414924917    6.669067186
    1.729048414    6.633890402    1.414263689    6.659853761
    1.736227045    6.624883809    1.413601991    6.650633611
    1.743405676    6.615870046    1.412939840    6.641406957
    1.750584307    6.606849328    1.412277248    6.632174018
    1.757762938    6.597821866    1.411614231    6.622935012
    1.764941569    6.588787873    1.410950804    6.613690156
    1.772120200    6.579747559    1.410286980    6.604439664
    1.779298831    6.570701133    1.409622775    6.595183750
    1.786477462    6.561648802    1.408958202    6.585922628
    1.793656093    6.552590775    1.408293276    6.576656507
    1.800834725    6.543527255    1.407628010    6.567385599
    1.808013356    6.534458448    1.406962420    6.558110112
    1.815191987    6.525384556    1.406296518    6.548830252
    1.822370618    6.516305781    1.405630319    6.539546226
    1.829549249    6.507222324    1.404963837    6.530258239
    1.836727880    6.498134384    1.404297084    6.520966494
    1.843906511    6.489042160    1.403630076    6.511671192
    1.851085142    6.479945847    1.402962824    6.502372534
    1.858263773    6.470845643    1.402295344    6.493070720
    1.865442404    6.461741741    1.401627647    6.483765948
    1.872621035    6.452634334    1.400959747    6.474458414
    1.879799666    6.443523614    1.400291659    6.465148312
    1.886978297    6.434409772    1.399623393    6.455835839
    1.894156928    6.425292998    1.398954964    6.446521185
    1.901335559    6.416173480    1.398286385    6.437204542
    1.908514190    6.407051404    1.397617668    6.427886100
    1.915692821    6.397926956    1.396948826    6.418566048
    1.922871452    6.388800321    1.396279872    6.409244572
    1.930050083    6.379671683    1.395610819    6.399921859
    1.937228715    6.370541222    1.394941678    6.390598094
    1.944407346    6.361409120    1.394272462    6.381273459
    1.951585977    6.352275557    1.393603184    6.371948136
    1.958764608    6.343140710    1.392933856    6.362622307
    1.965943239    6.334004756    1.392264490    6.353296150
    1.973121870    6.324867872    1.391595098    6.343969842
    1.980300501    6.315730232    1.390925692    6.334643562
    1.987479132    6.306592009    1.390256283    6.325317484
    1.994657763    6.297453375    1.389586885    6.315991782
    2.001836394    6.288314501    1.388917508    6.306666628
    2.009015025    6.279175557    1.388248165    6.297342195
    2.016193656    6.270036710    1.387578866    6.288018651
    2.023372287    6.260898128    1.386909623    6.278696166
    2.030550918    6.251759978    1.386240448    6.269374906
    2.037729549    6.242622422    1.385571352    6.260055039
    2.044908180    6.233485626    1.384902346    6.250736728
    2.052086811    6.224349750    1.384233441    6.241420138
    2.059265442    6.215214956    1.383564648    6.232105429
    2.066444073    6.206081404    1.382895979    6.222792764
    2.073622705    6.196949252    1.382227445    6.213482301
    2.080801336    6.187818656    1.381559055    6.204174199
    2.087979967    6.178689775    1.380890821    6.194868614
    2.095158598    6.169562761    1.380222754    6.185565703
    2.102337229    6.160437769    1.379554864    6.176265619
    2.109515860    6.151314951    1.378887161    6.166968517
    2.116694491    6.142194458    1.378219656    6.157674546
    2.123873122    6.133076440    1.377552359    6.148383859
    2.131051753    6.123961046    1.376885281    6.139096603
    2.138230384    6.114848423    1.376218431    6.129812928
    2.145409015    6.105738718    1.375551820    6.120532980
    2.152587646    6.096632076    1.374885458    6.111256904
    2.159766277    6.087528640    1.374219355    6.101984844
    2.166944908    6.078428554    1.373553520    6.092716944
    2.174123539    6.069331959    1.372887963    6.083453345
    2.181302170    6.060238995    1.372222694    6.074194187
    2.188480801    6.051149801    1.371557722    6.064939609
    2.195659432    6.042064516    1.370893058    6.055689750
    2.202838063    6.032983277    1.370228710    6.046444746
    2.210016694    6.023906218    1.369564688    6.037204732
    2.217195326    6.014833474    1.368901001    6.027969843
    2.224373957    6.005765179    1.368237658    6.018740212
    2.231552588    5.996701464    1.367574668    6.009515971
    2.238731219    5.987642462    1.366912041    6.000297249
    2.245909850    5.978588301    1.366249785    5.991084177
    2.253088481    5.969539109    1.365587910    5.981876882
    2.260267112    5.960495016    1.364926423    5.972675492
    2.267445743    5.951456146    1.364265335    5.963480132
    2.274624374    5.942422626    1.363604653    5.954290926
    2.281803005    5.933394578    1.362944386    5.945107999
    2.288981636    5.924372127    1.362284542    5.935931472
    2.296160267    5.915355394    1.361625130    5.926761466
    2.303338898    5.906344499    1.360966159    5.917598101
    2.310517529    5.897339562    1.360307636    5.908441496
    2.317696160    5.888340702    1.359649570    5.899291768
    2.324874791    5.879348036    1.358991969    5.890149033
    2.332053422    5.870361680    1.358334840    5.881013407
    2.339232053    5.861381748    1.357678193    5.871885003
    2.346410684    5.852408356    1.357022034    5.862763935
    2.353589316    5.843441617    1.356366372    5.853650314
    2.360767947    5.834481640    1.355711214    5.844544251
    2.367946578    5.825528539    1.355056568    5.835445855
    2.375125209    5.816582421    1.354402442    5.826355235
    2.382303840    5.807643397    1.353748843    5.817272497
    2.389482471    5.798711572    1.353095779    5.808197749
    2.396661102    5.789787054    1.352443256    5.799131094
    2.403839733    5.780869948    1.351791283    5.790072637
    2.411018364    5.771960358    1.351139866    5.781022480
    2.418196995    5.763058387    1.350489013    5.771980726
    2.425375626    5.754164139    1.349838730    5.762947475
    2.432554257    5.745277712    1.349189026    5.753922826
    2.439732888    5.736399209    1.348539906    5.744906878
    2.446911519    5.727528727    1.347891378    5.735899729
    2.454090150    5.718666365    1.347243448    5.726901473
    2.461268781    5.709812220    1.346596123    5.717912208
    2.468447412    5.700966388    1.345949410    5.708932027
    2.475626043    5.692128963    1.345303315    5.699961023
    2.482804674    5.683300040    1.344657846    5.690999288
    2.489983306    5.674479711    1.344013008    5.682046914
    2.497161937    5.665668069    1.343368807    5.673103990
    2.504340568    5.656865204    1.342725251    5.664170605
    2.511519199    5.648071207    1.342082345    5.655246848
    2.518697830    5.639286165    1.341440096    5.646332805
    2.525876461    5.630510168    1.340798510    5.637428562
    2.533055092    5.621743302    1.340157592    5.628534205
    2.540233723    5.612985653    1.339517349    5.619649817
