# energy grid [eV]     epsr_x  epsr_y  epsr_z
#
    0.200000000   15.159315123   14.172055227   10.055608929
    0.207178631   15.162988783   14.175469128   10.057794572
    0.214357262   15.166794651   14.179006281   10.060059490
    0.221535893   15.170733013   14.182666997   10.062403928
    0.228714524   15.174804164   14.186451598   10.064828141
    0.235893155   15.179008413   14.190360421   10.067332396
    0.243071786   15.183346076   14.194393815   10.069916972
    0.250250417   15.187817484   14.198552142   10.072582160
    0.257429048   15.192422979   14.202835779   10.075328263
    0.264607679   15.197162912   14.207245115   10.078155598
    0.271786311   15.202037650   14.211780555   10.081064495
    0.278964942   15.207047569   14.216442518   10.084055299
    0.286143573   15.212193059   14.221231439   10.087128368
    0.293322204   15.217474523   14.226147769   10.090284077
    0.300500835   15.222892374   14.231191971   10.093522815
    0.307679466   15.228447042   14.236364529   10.096844990
    0.314858097   15.234138968   14.241665942   10.100251026
    0.322036728   15.239968606   14.247096726   10.103741364
    0.329215359   15.245936427   14.252657416   10.107316466
    0.336393990   15.252042912   14.258348563   10.110976813
    0.343572621   15.258288561   14.264170741   10.114722907
    0.350751252   15.264673885   14.270124541   10.118555273
    0.357929883   15.271199413   14.276210575   10.122474458
    0.365108514   15.277865690   14.282429478   10.126481034
    0.372287145   15.284673274   14.288781903   10.130575600
    0.379465776   15.291622743   14.295268532   10.134758779
    0.386644407   15.298714690   14.301890066   10.139031228
    0.393823038   15.305949728   14.308647233   10.143393632
    0.401001669   15.313328485   14.315540787   10.147846708
    0.408180301   15.320851611   14.322571510   10.152391211
    0.415358932   15.328519773   14.329740212   10.157027931
    0.422537563   15.336333661   14.337047734   10.161757699
    0.429716194   15.344293983   14.344494946   10.166581388
    0.436894825   15.352401471   14.352082755   10.171499918
    0.444073456   15.360656879   14.359812100   10.176514256
    0.451252087   15.369060984   14.367683961   10.181625424
    0.458430718   15.377614589   14.375699352   10.186834501
    0.465609349   15.386318523   14.383859334   10.192142626
    0.472787980   15.395173640   14.392165010   10.197551006
    0.479966611   15.404180826   14.400617529   10.203060920
    0.487145242   15.413340993   14.409218093   10.208673727
    0.494323873   15.422655090   14.417967956   10.214390868
    0.501502504   15.432124094   14.426868432   10.220213881
    0.508681135   15.441749021   14.435920895   10.226144403
    0.515859766   15.451530924   14.445126786   10.232184185
    0.523038397   15.461470897   14.454487621   10.238335100
    0.530217028   15.471570076   14.464004990   10.244599155
    0.537395659   15.481829643   14.473680573   10.250978508
    0.544574290   15.492250832   14.483516137   10.257475479
    0.551752922   15.502834928   14.493513554   10.264092574
    0.558931553   15.513583274   14.503674805   10.270832500
    0.566110184   15.524497279   14.514001993   10.277698192
    0.573288815   15.535578416   14.524497353   10.284692837
    0.580467446   15.546828237   14.535163271   10.291819908
    0.587646077   15.558248374   14.546002294   10.299083198
    0.594824708   15.569840550   14.557017153   10.306486858
    0.602003339   15.581606590   14.568210783   10.314035452
    0.609181970   15.593548428   14.579586348   10.321734007
    0.616360601   15.605668126   14.591147270   10.329588079
    0.623539232   15.617967884   14.602897263   10.337603833
    0.630717863   15.630450061   14.614840373   10.345788132
    0.637896494   15.643117194   14.626981025   10.354148643
    0.645075125   15.655972026   14.639324079   10.362693970
    0.652253756   15.669017534   14.651874897   10.371433806
    0.659432387   15.682256965   14.664639422   10.380379120
    0.666611018   15.695693881   14.677624279   10.389542381
    0.673789649   15.709332210   14.690836886   10.398937839
    0.680968280   15.723176311   14.704285606   10.408581860
    0.688146912   15.737231058   14.717979921   10.418493346
    0.695325543   15.751501933   14.731930653   10.428694261
    0.702504174   15.765995156   14.746150246   10.439210289
    0.709682805   15.780717838   14.760653113   10.450071664
    0.716861436   15.795678185   14.775456084   10.461314242
    0.724040067   15.810885759   14.790578988   10.472980874
    0.731218698   15.826351807   14.806045397   10.485123200
    0.738397329   15.842089716   14.821883623   10.497804020
    0.745575960   15.858115592   14.838128028   10.511100448
    0.752754591   15.874449068   14.854820802   10.525108167
    0.759933222   15.891114380   14.872014381   10.539947237
    0.767111853   15.908141872   14.889774784   10.555770129
    0.774290484   15.925570086   14.908186276   10.572772925
    0.781469115   15.943448709   14.927357922   10.591211112
    0.788647746   15.961842726   14.947432843   10.611421860
    0.795826377   15.980838218   14.968601126   10.633855130
    0.803005008   16.000550107   14.991117053   10.659115191
    0.810183639   16.021131045   15.015318906   10.688008347
    0.817362270   16.042775918   15.041638996   10.721567060
    0.824540902   16.065697377   15.070549200   10.760918502
    0.831719533   16.089972442   15.102219585   10.806460833
    0.838898164   16.114862180   15.135004248   10.854210048
    0.846076795   16.136181780   15.159588055   10.881678187
    0.853255426   16.139656056   15.144198334   10.812194695
    0.860434057   16.109820212   15.054414885   10.562700244
    0.867612688   16.083340731   14.971843475   10.330060254
    0.874791319   16.090646908   14.964208261   10.277647495
    0.881969950   16.114045332   14.992129406   10.310432000
    0.889148581   16.140691104   15.027018388   10.359417014
    0.896327212   16.167036563   15.060979336   10.405526838
    0.903505843   16.192507785   15.092735202   10.445651749
    0.910684474   16.217217128   15.122536763   10.480364962
    0.917863105   16.241382434   15.150870049   10.510803694
    0.925041736   16.265198472   15.178170316   10.537978540
    0.932220367   16.288818350   15.204780800   10.562673292
    0.939398998   16.312359208   15.230965536   10.585475079
    0.946577629   16.335911211   15.256929546   10.606822113
    0.953756260   16.359545186   15.282836070   10.627044105
    0.960934891   16.383318361   15.308819614   10.646392315
    0.968113523   16.407278537   15.334995581   10.665061050
    0.975292154   16.431467129   15.361467490   10.683202908
    0.982470785   16.455921439   15.388332591   10.700939634
    0.989649416   16.480676424   15.415686515   10.718369927
    0.996828047   16.505766140   15.443627422   10.735575139
    1.004006678   16.531225016   15.472260040   10.752623479
    1.011185309   16.557089060   15.501699945   10.769573196
    1.018363940   16.583397109   15.532078447   10.786475010
    1.025542571   16.610192212   15.563548511   10.803374034
    1.032721202   16.637523266   15.596292246   10.820311325
    1.039899833   16.665447048   15.630530703   10.837325182
    1.047078464   16.694030826   15.666537041   10.854452297
    1.054257095   16.723355821   15.704654520   10.871728803
    1.061435726   16.753521884   15.745321532   10.889191314
    1.068614357   16.784653930   15.789106706   10.906878003
    1.075792988   16.816910837   15.836758242   10.924829807
    1.082971619   16.850497681   15.889272060   10.943091824
    1.090150250   16.885681901   15.947980162   10.961715030
    1.097328881   16.922811831   16.014642203   10.980758421
    1.104507513   16.962326438   16.091445822   11.000291745
    1.111686144   17.004706390   16.180514275   11.020398809
    1.118864775   17.050161689   16.281300493   11.041180721
    1.126043406   17.097247102   16.379501016   11.062755490
    1.133222037   17.137807088   16.407086799   11.085241448
    1.140400668   17.148442527   16.175279127   11.108724520
    1.147579299   17.124270396   15.642339801   11.133428412
    1.154757930   17.128649030   15.313961282   11.159929237
    1.161936561   17.169034585   15.300412550   11.188365860
    1.169115192   17.192407573   15.389687789   11.217808784
    1.176293823   17.136683508   15.476455822   11.246375132
    1.183472454   17.046786280   15.548264527   11.277066740
    1.190651085   17.037654474   15.626833440   11.315479129
    1.197829716   17.084736829   15.708283448   11.356291454
    1.205008347   17.143190564   15.782544461   11.377590677
    1.212186978   17.192117116   15.838764178   11.323158336
    1.219365609   17.227242115   15.875646790   11.178755334
    1.226544240   17.268335576   15.921955451   11.093787327
    1.233722871   17.320912163   15.985737957   11.103937811
    1.240901503   17.377873289   16.057058388   11.148089557
    1.248080134   17.435952167   16.130016765   11.197307002
    1.255258765   17.493095519   16.194683348   11.242093917
    1.262437396   17.542801490   16.215904350   11.271366110
    1.269616027   17.573782204   16.133601675   11.268006130
    1.276794658   17.601248355   16.019464141   11.253477032
    1.283973289   17.653193651   16.008777309   11.267703653
    1.291151920   17.722828102   16.064868601   11.300345966
    1.298330551   17.798209333   16.136905222   11.336989429
    1.305509182   17.863364535   16.204116819   11.372568949
    1.312687813   17.870422890   16.245158112   11.403841650
    1.319866444   17.751367246   16.233731164   11.427316978
    1.327045075   17.616167014   16.213213391   11.449316618
    1.334223706   17.608156762   16.239911374   11.477957478
    1.341402337   17.671417832   16.292567081   11.510487124
    1.348580968   17.751203440   16.350256036   11.544188865
    1.355759599   17.831499902   16.407010027   11.578439626
    1.362938230   17.909765020   16.462022581   11.613353413
    1.370116861   17.986730380   16.515702324   11.649244095
    1.377295492   18.063779451   16.568664728   11.686502061
    1.384474124   18.142392391   16.621522171   11.725587462
    1.391652755   18.224111176   16.674871509   11.767058705
    1.398831386   18.310640692   16.729328065   11.811618173
    1.406010017   18.403990635   16.785561699   11.860171196
    1.413188648   18.506611364   16.844289973   11.913887006
    1.420367279   18.621386589   16.906073745   11.974203491
    1.427545910   18.750916180   16.970298506   12.042526431
    1.434724541   18.893872240   17.031053548   12.118639293
    1.441903172   19.031404271   17.065210978   12.194537760
    1.449081803   19.095075685   17.036277770   12.237780692
    1.456260434   18.920763255   16.986976330   12.162003350
    1.463439065   18.341392837   16.975473454   11.879639381
    1.470617696   17.822123845   16.994430398   11.627567411
    1.477796327   17.732541990   17.041144296   11.581625148
    1.484974958   17.832194736   17.089367572   11.609805984
    1.492153589   17.972326077   17.140963417   11.658465891
    1.499332220   18.125213078   17.208179786   11.735135199
    1.506510851   18.274859191   17.281527051   11.819761634
    1.513689482   18.410625268   17.346184814   11.889862956
    1.520868114   18.519379392   17.380498355   11.919304600
    1.528046745   18.593783919   17.381030410   11.913445974
    1.535225376   18.637233496   17.363171798   11.903363963
    1.542404007   18.698349161   17.367034513   11.919566807
    1.549582638   18.811736535   17.418655232   11.976174617
    1.556761269   18.945536788   17.490981719   12.039482850
    1.563939900   19.059192529   17.565293620   12.065820178
    1.571118531   19.126037269   17.635958983   12.037993859
    1.578297162   19.146665727   17.704519389   12.026206281
    1.585475793   18.993112953   17.764542261   12.033665843
    1.592654424   18.662880987   17.814008892   12.028763610
    1.599833055   18.494017655   17.866505936   12.040969589
    1.607011686   18.482380760   17.919134523   12.062600256
    1.614190317   18.552376989   17.985166532   12.100597760
    1.621368948   18.676645717   18.070699953   12.159213702
    1.628547579   18.812731904   18.164333915   12.224435159
    1.635726210   18.940436757   18.248861980   12.287246593
    1.642904841   19.045300169   18.279771954   12.336934996
    1.650083472   19.118073460   18.207855030   12.363373561
    1.657262104   19.186968692   18.137719787   12.390520914
    1.664440735   19.252259125   18.152412335   12.432140886
    1.671619366   19.276500235   18.182800371   12.452713568
    1.678797997   19.294005493   18.226592075   12.429890615
    1.685976628   19.355723944   18.308110327   12.426518769
    1.693155259   19.449494287   18.411284783   12.470907905
    1.700333890   19.552720859   18.521470757   12.535168307
    1.707512521   19.657213350   18.634307993   12.603946254
    1.714691152   19.760464001   18.746025190   12.671217154
    1.721869783   19.856657284   18.839935402   12.725848068
    1.729048414   19.928698209   18.872607153   12.742006495
    1.736227045   19.964285514   18.832998739   12.717759566
    1.743405676   20.001169691   18.818059938   12.711656451
    1.750584307   20.079071475   18.887735352   12.752827967
    1.757762938   20.174014177   18.979982154   12.813129458
    1.764941569   20.248303047   19.008844337   12.862655161
    1.772120200   20.297470782   18.985021648   12.898770611
    1.779298831   20.346679828   19.023807399   12.941100347
    1.786477462   20.392680802   19.108050949   12.985524727
    1.793656093   20.446682069   19.174211036   13.025561995
    1.800834725   20.482948547   19.169562185   13.045314256
    1.808013356   20.510919461   19.137245631   13.058891515
    1.815191987   20.587497381   19.192080878   13.107680847
    1.822370618   20.699686502   19.310302864   13.180363398
    1.829549249   20.821270072   19.439144209   13.248523621
    1.836727880   20.940599100   19.547551314   13.278605434
    1.843906511   21.057651188   19.634563600   13.271610193
    1.851085142   21.184502419   19.743501120   13.301265632
    1.858263773   21.318086673   19.876375277   13.371221546
    1.865442404   21.431917138   20.002485200   13.436671762
    1.872621035   21.477397700   20.088250794   13.457335759
    1.879799666   21.450824906   20.156608971   13.458793034
    1.886978297   21.371411227   20.253460859   13.492420915
    1.894156928   21.329763596   20.380659864   13.547697180
    1.901335559   21.403830016   20.522306113   13.603919243
    1.908514190   21.525404495   20.621807680   13.653359534
    1.915692821   21.650064914   20.564928302   13.708109406
    1.922871452   21.763797465   20.345726654   13.766952474
    1.930050083   21.863813918   20.243254085   13.809193325
    1.937228715   21.966083623   20.278811577   13.845968617
    1.944407346   22.083145962   20.248386052   13.897448029
    1.951585977   22.183355989   20.187156724   13.925669787
    1.958764608   22.229736269   20.251147212   13.909752750
    1.965943239   22.211816364   20.388079719   13.907531464
    1.973121870   22.178438724   20.545553929   13.939219526
    1.980300501   22.244490837   20.712618749   14.011278055
    1.987479132   22.368554279   20.876736163   14.105685244
    1.994657763   22.484976138   21.031051604   14.213839924
    2.001836394   22.604053347   21.171701613   14.309222712
    2.009015025   22.759128717   21.310588753   14.386986597
    2.016193656   22.912792144   21.456362924   14.480100300
    2.023372287   23.021644117   21.564514065   14.562262445
    2.030550918   23.134473181   21.623416738   14.632938892
    2.037729549   23.298292386   21.732638857   14.729768009
    2.044908180   23.449554935   21.913283808   14.758815043
    2.052086811   23.484435284   22.106528813   14.566854510
    2.059265442   23.424196066   22.303301586   14.347333977
    2.066444073   23.434216287   22.505389238   14.338350274
    2.073622705   23.513209172   22.600190606   14.375072784
    2.080801336   23.520312950   22.376177523   14.296153846
    2.087979967   23.513110700   22.027075439   14.219697471
    2.095158598   23.582765799   21.985346155   14.236013817
    2.102337229   23.726147197   22.139467218   14.310764049
    2.109515860   23.931294820   22.289564154   14.409805151
    2.116694491   24.161224654   22.433394034   14.518033256
    2.123873122   24.395091257   22.652025121   14.657527910
    2.131051753   24.592262093   22.859990935   14.806188432
    2.138230384   24.715048158   22.963627622   14.935173781
    2.145409015   24.774780081   22.965012893   15.015560677
    2.152587646   24.716904685   22.795183862   15.025072111
    2.159766277   24.647596374   22.631012096   15.050269300
    2.166944908   24.760535806   22.721318157   15.156275012
    2.174123539   24.991270930   22.967134808   15.299905227
    2.181302170   25.225082605   23.243332519   15.426264117
    2.188480801   25.415316095   23.505546469   15.520247299
    2.195659432   25.587358808   23.746194968   15.635759390
    2.202838063   25.763758394   23.971185196   15.783292487
    2.210016694   26.003439587   24.219472702   15.956917340
    2.217195326   26.300843209   24.498249552   16.149269186
    2.224373957   26.568833792   24.759485262   16.297771109
    2.231552588   26.625175073   24.917705444   16.289873985
    2.238731219   26.344787451   24.965502793   16.122006783
    2.245909850   26.111940628   25.071658488   15.968989857
    2.253088481   26.147140879   25.243756246   15.887048510
    2.260267112   26.259946916   25.385160945   15.813972842
    2.267445743   26.428668372   25.544116110   15.854387110
    2.274624374   26.673112364   25.711837102   15.979853114
    2.281803005   26.955778163   25.866145295   16.126878021
    2.288981636   27.296940980   26.144647288   16.340600986
    2.296160267   27.677661335   26.555871097   16.599926479
    2.303338898   28.065226195   27.020011845   16.821744759
    2.310517529   28.412270380   27.452975259   16.886134809
    2.317696160   28.657728901   27.725590550   16.803529153
    2.324874791   28.682531781   27.522130889   16.623489202
    2.332053422   28.406179205   26.764805391   16.290302018
    2.339232053   28.311604691   26.330642867   16.142765988
    2.346410684   28.535847123   26.462930620   16.242134138
    2.353589316   28.795407537   26.852500111   16.352077319
    2.360767947   29.024915268   27.262990082   16.415597282
    2.367946578   29.233716408   27.616516677   16.456661509
    2.375125209   29.289804249   27.815070275   16.484914056
    2.382303840   29.157966472   27.813260943   16.582406624
    2.389482471   29.187257295   27.953596097   16.779124778
    2.396661102   29.241921638   28.174465977   17.005273253
    2.403839733   29.127521705   28.274226642   17.187567265
    2.411018364   29.246084540   28.576425131   17.354525686
    2.418196995   29.544636772   28.889973455   17.430673605
    2.425375626   29.738406236   28.617455495   17.375715284
    2.432554257   29.868605335   27.910777580   17.303770226
    2.439732888   30.086467719   27.734608884   17.279319815
    2.446911519   30.395512740   28.162052364   17.432345928
    2.454090150   30.723593962   28.785311382   17.677381702
    2.461268781   31.028159590   29.366935201   17.887262935
    2.468447412   31.349849125   29.941746722   18.062591205
    2.475626043   31.695454725   30.570789210   18.219168632
    2.482804674   32.034275094   31.091041954   18.241661366
    2.489983306   32.325644766   31.391412630   18.022448668
    2.497161937   32.596289199   31.687421101   17.802464654
    2.504340568   32.889799640   32.184087795   17.757096018
    2.511519199   33.331346068   32.936589595   17.878473736
    2.518697830   33.920253206   33.794500557   18.144603415
    2.525876461   34.533474907   34.537259699   18.445894642
    2.533055092   35.044740181   35.089467081   18.738811162
    2.540233723   35.207126578   35.344709653   18.989358197
