# energy grid [eV]     epsr_x  epsr_y  epsr_z
#
    0.200000000   10.511713860   13.741619031   14.632411353
    0.207178631   10.513968809   13.744843215   14.636109047
    0.214357262   10.516304902   13.748184521   14.639941799
    0.221535893   10.518722313   13.751643327   14.643910135
    0.228714524   10.521221223   13.755220029   14.648014605
    0.235893155   10.523801820   13.758915040   14.652255784
    0.243071786   10.526464299   13.762728792   14.656634277
    0.250250417   10.529208863   13.766661735   14.661150715
    0.257429048   10.532035720   13.770714338   14.665805759
    0.264607679   10.534945086   13.774887089   14.670600101
    0.271786311   10.537937187   13.779180498   14.675534464
    0.278964942   10.541012253   13.783595096   14.680609606
    0.286143573   10.544170523   13.788131436   14.685826318
    0.293322204   10.547412244   13.792790093   14.691185431
    0.300500835   10.550737672   13.797571667   14.696687811
    0.307679466   10.554147069   13.802476783   14.702334366
    0.314858097   10.557640707   13.807506090   14.708126047
    0.322036728   10.561218865   13.812660266   14.714063850
    0.329215359   10.564881832   13.817940017   14.720148818
    0.336393990   10.568629906   13.823346079   14.726382045
    0.343572621   10.572463393   13.828879217   14.732764676
    0.350751252   10.576382609   13.834540230   14.739297916
    0.357929883   10.580387879   13.840329952   14.745983028
    0.365108514   10.584479538   13.846249253   14.752821337
    0.372287145   10.588657932   13.852299039   14.759814240
    0.379465776   10.592923416   13.858480258   14.766963204
    0.386644407   10.597276357   13.864793900   14.774269775
    0.393823038   10.601717132   13.871240999   14.781735580
    0.401001669   10.606246130   13.877822639   14.789362339
    0.408180301   10.610863751   13.884539954   14.797151864
    0.415358932   10.615570408   13.891394130   14.805106074
    0.422537563   10.620366526   13.898386412   14.813226997
    0.429716194   10.625252543   13.905518107   14.821516783
    0.436894825   10.630228911   13.912790589   14.829977713
    0.444073456   10.635296096   13.920205298   14.838612209
    0.451252087   10.640454579   13.927763755   14.847422847
    0.458430718   10.645704854   13.935467561   14.856412373
    0.465609349   10.651047435   13.943318403   14.865583715
    0.472787980   10.656482849   13.951318067   14.874940003
    0.479966611   10.662011642   13.959468440   14.884484587
    0.487145242   10.667634380   13.967771521   14.894221060
    0.494323873   10.673351646   13.976229432   14.904153284
    0.501502504   10.679164045   13.984844428   14.914285413
    0.508681135   10.685072202   13.993618911   14.924621933
    0.515859766   10.691076768   14.002555442   14.935167691
    0.523038397   10.697178415   14.011656758   14.945927941
    0.530217028   10.703377843   14.020925791   14.956908391
    0.537395659   10.709675781   14.030365688   14.968115254
    0.544574290   10.716072985   14.039979837   14.979555318
    0.551752922   10.722570246   14.049771889   14.991236012
    0.558931553   10.729168387   14.059745795   15.003165497
    0.566110184   10.735868273   14.069905839   15.015352759
    0.573288815   10.742670806   14.080256683   15.027807730
    0.580467446   10.749576935   14.090803415   15.040541423
    0.587646077   10.756587660   14.101551603   15.053566091
    0.594824708   10.763704032   14.112507371   15.066895421
    0.602003339   10.770927166   14.123677474   15.080544760
    0.609181970   10.778258245   14.135069396   15.094531391
    0.616360601   10.785698528   14.146691464   15.108874863
    0.623539232   10.793249359   14.158552988   15.123597389
    0.630717863   10.800912183   14.170664432   15.138724339
    0.637896494   10.808688557   14.183037613   15.154284839
    0.645075125   10.816580172   14.195685964   15.170312519
    0.652253756   10.824588869   14.208624840   15.186846440
    0.659432387   10.832716671   14.221871919   15.203932262
    0.666611018   10.840965816   14.235447692   15.221623726
    0.673789649   10.849338802   14.249376102   15.239984553
    0.680968280   10.857838438   14.263685358   15.259090891
    0.688146912   10.866467920   14.278408991   15.279034516
    0.695325543   10.875230924   14.293587252   15.299927052
    0.702504174   10.884131730   14.309268966   15.321905603
    0.709682805   10.893175388   14.325514028   15.345140365
    0.716861436   10.902367949   14.342396811   15.369845020
    0.724040067   10.911716777   14.360010870   15.396291127
    0.731218698   10.921230984   14.378475496   15.424828224
    0.738397329   10.930922042   14.397944956   15.455912167
    0.745575960   10.940804653   14.418621496   15.490145103
    0.752754591   10.950897941   14.440773430   15.528331107
    0.759933222   10.961227035   14.464759030   15.571549704
    0.767111853   10.971824833   14.491053030   15.621237418
    0.774290484   10.982732595   14.520255662   15.679215307
    0.781469115   10.993993626   14.552996956   15.747392828
    0.788647746   11.005616657   14.589382641   15.826055404
    0.795826377   11.017416229   14.626579263   15.906402887
    0.803005008   11.028409928   14.649694972   15.942374636
    0.810183639   11.035473545   14.611433494   15.787788676
    0.817362270   11.036246722   14.476053115   15.332153782
    0.824540902   11.039114276   14.370372472   14.967206971
    0.831719533   11.048613268   14.362996211   14.904820211
    0.838898164   11.060961789   14.396670517   14.968008050
    0.846076795   11.073926795   14.437572032   15.052159656
    0.853255426   11.086931030   14.476925193   15.130032738
    0.860434057   11.099896111   14.513499364   15.197673987
    0.867612688   11.112856015   14.547761237   15.256348074
    0.874791319   11.125860808   14.580418202   15.308031449
    0.881969950   11.138955952   14.612105222   15.354437410
    0.889148581   11.152179898   14.643348444   15.396893977
    0.896327212   11.165565678   14.674589346   15.436405804
    0.903505843   11.179143018   14.706217038   15.473737223
    0.910684474   11.192940264   14.738597906   15.509481473
    0.917863105   11.206986086   14.772102316   15.544112947
    0.925041736   11.221311081   14.807130591   15.578026140
    0.932220367   11.235949478   14.844141235   15.611565605
    0.939398998   11.250941104   14.883684809   15.645050599
    0.946577629   11.266333861   14.926447680   15.678797454
    0.953756260   11.282186989   14.973310877   15.713142347
    0.960934891   11.298575423   15.025429891   15.748466826
    0.968113523   11.315595417   15.084338303   15.785227444
    0.975292154   11.333370709   15.152059968   15.823986335
    0.982470785   11.352054743   15.231136992   15.865420919
    0.989649416   11.371809302   15.324173226   15.910217442
    0.996828047   11.392680072   15.431273117   15.958461849
    1.004006678   11.414054325   15.538967204   16.006998519
    1.011185309   11.432634494   15.578921552   16.039576998
    1.018363940   11.438231933   15.342267389   16.006406296
    1.025542571   11.424822916   14.704508677   15.877838223
    1.032721202   11.420239939   14.229642015   15.788561665
    1.039899833   11.436560746   14.160334214   15.796581952
    1.047078464   11.461864724   14.249896264   15.843121447
    1.054257095   11.489832991   14.364313666   15.896318950
    1.061435726   11.519156919   14.469712887   15.948247274
    1.068614357   11.550092336   14.561622174   15.998040343
    1.075792988   11.583360378   14.642094200   16.046442251
    1.082971619   11.619836619   14.714036864   16.094443931
    1.090150250   11.660182904   14.779920492   16.142870516
    1.097328881   11.703381214   14.841245032   16.191758397
    1.104507513   11.740802346   14.897024526   16.237973139
    1.111686144   11.737427034   14.938819074   16.267626846
    1.118864775   11.624721441   14.948900819   16.253214550
    1.126043406   11.459377195   14.943272764   16.217959347
    1.133222037   11.402094003   14.965983029   16.227231243
    1.140400668   11.425002763   15.010011750   16.270002872
    1.147579299   11.468697594   15.059795374   16.322500096
    1.154757930   11.513160589   15.110453985   16.376962570
    1.161936561   11.554406877   15.161514251   16.432205016
    1.169115192   11.592480531   15.213707324   16.488786608
    1.176293823   11.628202720   15.268127638   16.547739175
    1.183472454   11.662409588   15.326000627   16.610319856
    1.190651085   11.695768529   15.388300198   16.678011339
    1.197829716   11.728566886   15.454076799   16.752494141
    1.205008347   11.759866676   15.513659856   16.835204684
    1.212186978   11.784872039   15.527943539   16.925524248
    1.219365609   11.794896257   15.427683627   17.018438296
    1.226544240   11.799948168   15.287582142   17.106408137
    1.233722871   11.819587937   15.251000453   17.138814479
    1.240901503   11.847094668   15.244403976   16.941280263
    1.248080134   11.874764810   15.201063414   16.463295078
    1.255258765   11.905147826   15.192644122   16.164938321
    1.262437396   11.939204953   15.237796921   16.159374991
    1.269616027   11.975339078   15.299665007   16.256819653
    1.276794658   12.013150772   15.361745086   16.368327509
    1.283973289   12.053047152   15.420772652   16.472767148
    1.291151920   12.095763576   15.477092403   16.568039706
    1.298330551   12.142212271   15.531751511   16.656146906
    1.305509182   12.193263622   15.585737131   16.739429851
    1.312687813   12.248768028   15.639437361   16.819210823
    1.319866444   12.303574654   15.690989459   16.893424899
    1.327045075   12.335274749   15.731825761   16.951448529
    1.334223706   12.288581489   15.744546194   16.977960021
    1.341402337   12.128367459   15.722959240   16.977533601
    1.348580968   12.002458293   15.715029781   16.995541463
    1.355759599   12.002693037   15.748334211   17.053667525
    1.362938230   12.058866214   15.799939087   17.130007060
    1.370116861   12.126637997   15.855798761   17.212064564
    1.377295492   12.194671621   15.912593735   17.297548281
    1.384474124   12.261931989   15.970388548   17.387498260
    1.391652755   12.329890495   16.030120393   17.483996755
    1.398831386   12.400553574   16.092878176   17.589473738
    1.406010017   12.475762551   16.159211310   17.705650503
    1.413188648   12.555714888   16.226656101   17.829179921
    1.420367279   12.633310585   16.280400049   17.934859987
    1.427545910   12.680462135   16.272025746   17.936576491
    1.434724541   12.667141620   16.162639594   17.757098951
    1.441903172   12.631581798   16.080731784   17.584219743
    1.449081803   12.515786673   16.095071937   17.434832674
    1.456260434   12.272938582   16.143988878   17.189724763
    1.463439065   12.140459950   16.198285802   17.076615038
    1.470617696   12.131002684   16.230086591   17.096714495
    1.477796327   12.141140903   16.235883467   17.131809588
    1.484974958   12.192036512   16.268179136   17.213166857
    1.492153589   12.274266619   16.328973149   17.333086024
    1.499332220   12.350789975   16.393708062   17.455473329
    1.506510851   12.387901758   16.444381233   17.560082143
    1.513689482   12.390277385   16.482212007   17.649018646
    1.520868114   12.422586371   16.534520529   17.750262274
    1.528046745   12.488418245   16.601989045   17.867429164
    1.535225376   12.564236202   16.669687437   17.992401729
    1.542404007   12.638770226   16.714594994   18.118530480
    1.549582638   12.705308521   16.706631479   18.234477399
    1.556761269   12.763718852   16.687590173   18.324847809
    1.563939900   12.798359393   16.712244704   18.312449220
    1.571118531   12.768571060   16.749661265   18.078522108
    1.578297162   12.711969541   16.794701591   17.820095538
    1.585475793   12.716269064   16.859040977   17.779558733
    1.592654424   12.779183851   16.934626031   17.885402442
    1.599833055   12.863778035   17.014549793   18.034173050
    1.607011686   12.955349382   17.097644996   18.190369023
    1.614190317   13.052000504   17.185037954   18.348616209
    1.621368948   13.154897526   17.278306044   18.510656806
    1.628547579   13.262603504   17.377745559   18.675068272
    1.635726210   13.358691618   17.476698978   18.819811520
    1.642904841   13.377895716   17.542020884   18.857956610
    1.650083472   13.214078290   17.483620076   18.668297074
    1.657262104   12.976065575   17.267105360   18.449413226
    1.664440735   12.900880346   17.128134832   18.451826064
    1.671619366   12.941918313   17.150867263   18.540356091
    1.678797997   12.933920447   17.208362424   18.493243068
    1.685976628   12.859116218   17.252734339   18.318166532
    1.693155259   12.871118920   17.327748386   18.303778961
    1.700333890   12.960354627   17.428328611   18.434164014
    1.707512521   13.040792204   17.522978119   18.552736253
    1.714691152   13.041860770   17.580004397   18.523685506
    1.721869783   13.001461429   17.601512209   18.389562497
    1.729048414   13.033634420   17.650226271   18.376998255
    1.736227045   13.123181241   17.740234041   18.491216472
    1.743405676   13.225465912   17.842233145   18.639536599
    1.750584307   13.319225316   17.937286424   18.769996564
    1.757762938   13.395200989   18.026543857   18.850789137
    1.764941569   13.425087982   18.092562184   18.891638951
    1.772120200   13.368530368   18.094099270   18.947419073
    1.779298831   13.261219292   18.052065828   19.019767586
    1.786477462   13.214779415   18.052104433   19.114509250
    1.793656093   13.264112042   18.110964181   19.228976066
    1.800834725   13.350971976   18.173251798   19.342788539
    1.808013356   13.444127176   18.249649006   19.457266622
    1.815191987   13.535827968   18.321716639   19.557152572
    1.822370618   13.624541709   18.367137022   19.631608527
    1.829549249   13.709190670   18.441511728   19.709585111
    1.836727880   13.784348232   18.535821056   19.757515904
    1.843906511   13.854303368   18.627899169   19.779784624
    1.851085142   13.933146916   18.726920389   19.867745856
    1.858263773   14.003979101   18.758516983   20.003070141
    1.865442404   14.028461518   18.652147655   20.126584795
    1.872621035   13.987851583   18.515875660   20.180209157
    1.879799666   13.937169434   18.467636717   20.144923147
    1.886978297   13.950007263   18.539854915   20.142382548
    1.894156928   14.011459586   18.679033957   20.176601341
    1.901335559   14.084466000   18.836868753   20.201660060
    1.908514190   14.174968211   18.998425997   20.305031122
    1.915692821   14.273060731   19.159107422   20.470166403
    1.922871452   14.348997330   19.304770456   20.617495659
    1.930050083   14.380133303   19.385868261   20.664789010
    1.937228715   14.408213794   19.320912487   20.602517912
    1.944407346   14.471032022   19.198898067   20.587474503
    1.951585977   14.556495645   19.227037985   20.691130918
    1.958764608   14.631573365   19.360145459   20.816869741
    1.965943239   14.709784963   19.522058836   20.951665838
    1.973121870   14.776143609   19.665538958   21.053877173
    1.980300501   14.754184159   19.725214632   20.973217747
    1.987479132   14.670236021   19.693747547   20.736353054
    1.994657763   14.639443163   19.612860497   20.587729105
    2.001836394   14.639061420   19.503811985   20.606939052
    2.009015025   14.613586913   19.505992374   20.743497011
    2.016193656   14.637016869   19.625901472   20.929213957
    2.023372287   14.687574226   19.778174488   21.114726027
    2.030550918   14.733183551   19.930791019   21.291545101
    2.037729549   14.817704575   20.092854986   21.468199819
    2.044908180   14.912314022   20.258131854   21.634500422
    2.052086811   15.000621670   20.412725212   21.795091289
    2.059265442   15.110963402   20.542042204   21.972178834
    2.066444073   15.240822036   20.655449136   22.159259905
    2.073622705   15.375888211   20.788581085   22.328731529
    2.080801336   15.488997482   20.906128411   22.395364863
    2.087979967   15.568493981   20.976555475   22.320901333
    2.095158598   15.669689005   21.078980518   22.310253964
    2.102337229   15.807946013   21.226706759   22.431544491
    2.109515860   15.939360863   21.375545774   22.605330115
    2.116694491   15.980540587   21.546971199   22.794703099
    2.123873122   15.813935544   21.733902748   22.952173403
    2.131051753   15.608333501   21.902111553   23.068852035
    2.138230384   15.491769158   22.008226507   23.088477937
    2.145409015   15.302537909   22.050212699   22.978516278
    2.152587646   15.190773875   22.139779440   22.877150891
    2.159766277   15.250428760   22.124046313   22.776923747
    2.166944908   15.374566800   21.760846742   22.702219636
    2.174123539   15.517813925   21.418233332   22.751492248
    2.181302170   15.685825544   21.450597781   22.934071002
    2.188480801   15.859465967   21.624741137   23.119288647
    2.195659432   16.028237069   21.790836907   23.298108411
    2.202838063   16.191661040   21.920289328   23.500380213
    2.210016694   16.349560783   22.090250414   23.732945184
    2.217195326   16.468674823   22.339438890   23.961772036
    2.224373957   16.489852476   22.580237733   24.052578649
    2.231552588   16.463169612   22.766478944   23.948611391
    2.238731219   16.453029890   22.910323739   23.844181840
    2.245909850   16.495417903   23.091375958   23.892480636
    2.253088481   16.622145416   23.351908378   24.097192192
    2.260267112   16.801119856   23.639834437   24.340294413
    2.267445743   16.989970638   23.821927874   24.556832554
    2.274624374   17.181430656   23.749525193   24.796157410
    2.281803005   17.358074239   23.518269835   25.058252566
    2.288981636   17.478922195   23.538542245   25.283785020
    2.296160267   17.511517085   23.776991977   25.408117381
    2.303338898   17.485104952   24.060221074   25.430973238
    2.310517529   17.482519428   24.291367585   25.444908006
    2.317696160   17.501575151   24.484403316   25.456226340
    2.324874791   17.576105273   24.794859190   25.530208443
    2.332053422   17.622222457   25.179467173   25.624891037
    2.339232053   17.511605058   25.544607100   25.763759873
    2.346410684   17.426394908   25.884956865   26.010011002
    2.353589316   17.531658054   26.074324885   26.241971516
    2.360767947   17.741324089   25.659482409   26.307604396
    2.367946578   17.993022063   24.882410775   26.297049538
    2.375125209   18.276738529   24.781320218   26.485014629
    2.382303840   18.552775175   25.246789555   26.814647577
    2.389482471   18.714902389   25.878293326   27.123085318
    2.396661102   18.725732865   26.529961539   27.375279154
    2.403839733   18.630370817   27.173327462   27.535248449
    2.411018364   18.291964601   27.705775943   27.391529037
    2.418196995   17.894666676   27.941594289   27.210008169
    2.425375626   17.830183713   28.071974497   27.363740518
    2.432554257   18.038982908   28.575437271   27.668809019
    2.439732888   18.338187336   29.389832185   27.978871513
    2.446911519   18.651356017   30.218327698   28.345772206
    2.454090150   18.941448886   30.395094778   28.683083552
    2.461268781   19.172985662   28.751571630   28.864193762
    2.468447412   19.410277095   26.279349632   29.037912106
    2.475626043   19.696461913   25.568708641   29.364934613
    2.482804674   19.744195899   25.803531690   29.588630268
    2.489983306   19.098933772   25.361213221   29.205365701
    2.497161937   18.119810607   24.281893796   28.421874793
    2.504340568   17.672371368   23.750817802   28.102621074
    2.511519199   17.711814399   24.064005668   28.276897006
    2.518697830   17.977740839   24.839657252   28.678474528
    2.525876461   18.364002697   25.891061676   29.187003034
    2.533055092   18.760738492   26.983853006   29.700989718
    2.540233723   19.139898709   28.136293288   30.226333260
