# energy grid [eV]     ieps_x  ieps_y  ieps_z
#
    0.200000000    6.427115451    8.546589666    9.382359920
    0.207178631    6.425777296    8.544653883    9.380099965
    0.214357262    6.424392910    8.542651719    9.377762788
    0.221535893    6.422962391    8.540583359    9.375348631
    0.228714524    6.421485838    8.538448993    9.372857739
    0.235893155    6.419963354    8.536248815    9.370290364
    0.243071786    6.418395044    8.533983025    9.367646764
    0.250250417    6.416781017    8.531651827    9.364927200
    0.257429048    6.415121384    8.529255429    9.362131939
    0.264607679    6.413416257    8.526794043    9.359261255
    0.271786311    6.411665754    8.524267885    9.356315423
    0.278964942    6.409869994    8.521677176    9.353294725
    0.286143573    6.408029099    8.519022141    9.350199445
    0.293322204    6.406143192    8.516303006    9.347029874
    0.300500835    6.404212401    8.513520003    9.343786305
    0.307679466    6.402236855    8.510673367    9.340469035
    0.314858097    6.400216686    8.507763337    9.337078364
    0.322036728    6.398152027    8.504790154    9.333614597
    0.329215359    6.396043017    8.501754062    9.330078041
    0.336393990    6.393889794    8.498655310    9.326469007
    0.343572621    6.391692498    8.495494147    9.322787808
    0.350751252    6.389451275    8.492270828    9.319034760
    0.357929883    6.387166269    8.488985608    9.315210183
    0.365108514    6.384837629    8.485638747    9.311314399
    0.372287145    6.382465505    8.482230505    9.307347731
    0.379465776    6.380050049    8.478761146    9.303310506
    0.386644407    6.377591416    8.475230937    9.299203052
    0.393823038    6.375089763    8.471640144    9.295025700
    0.401001669    6.372545247    8.467989040    9.290778783
    0.408180301    6.369958030    8.464277897    9.286462636
    0.415358932    6.367328274    8.460506988    9.282077595
    0.422537563    6.364656143    8.456676591    9.277623998
    0.429716194    6.361941804    8.452786983    9.273102185
    0.436894825    6.359185424    8.448838445    9.268512496
    0.444073456    6.356387173    8.444831258    9.263855275
    0.451252087    6.353547224    8.440765706    9.259130866
    0.458430718    6.350665748    8.436642073    9.254339614
    0.465609349    6.347742922    8.432460645    9.249481865
    0.472787980    6.344778922    8.428221711    9.244557968
    0.479966611    6.341773926    8.423925560    9.239568270
    0.487145242    6.338728114    8.419572481    9.234513123
    0.494323873    6.335641668    8.415162767    9.229392875
    0.501502504    6.332514770    8.410696711    9.224207880
    0.508681135    6.329347604    8.406174605    9.218958490
    0.515859766    6.326140357    8.401596746    9.213645058
    0.523038397    6.322893216    8.396963430    9.208267938
    0.530217028    6.319606370    8.392274953    9.202827486
    0.537395659    6.316280007    8.387531613    9.197324056
    0.544574290    6.312914321    8.382733710    9.191758005
    0.551752922    6.309509502    8.377881543    9.186129690
    0.558931553    6.306065746    8.372975413    9.180439469
    0.566110184    6.302583247    8.368015622    9.174687699
    0.573288815    6.299062201    8.363002471    9.168874740
    0.580467446    6.295502806    8.357936263    9.163000949
    0.587646077    6.291905260    8.352817303    9.157066687
    0.594824708    6.288269763    8.347645893    9.151072314
    0.602003339    6.284596516    8.342422340    9.145018190
    0.609181970    6.280885720    8.337146948    9.138904677
    0.616360601    6.277137578    8.331820023    9.132732134
    0.623539232    6.273352293    8.326441873    9.126500925
    0.630717863    6.269530072    8.321012804    9.120211410
    0.637896494    6.265671118    8.315533123    9.113863953
    0.645075125    6.261775640    8.310003139    9.107458915
    0.652253756    6.257843843    8.304423161    9.100996661
    0.659432387    6.253875937    8.298793496    9.094477552
    0.666611018    6.249872131    8.293114455    9.087901953
    0.673789649    6.245832634    8.287386347    9.081270227
    0.680968280    6.241757657    8.281609481    9.074582739
    0.688146912    6.237647412    8.275784169    9.067839852
    0.695325543    6.233502111    8.269910721    9.061041932
    0.702504174    6.229321966    8.263989447    9.054189342
    0.709682805    6.225107192    8.258020660    9.047282448
    0.716861436    6.220858002    8.252004670    9.040321614
    0.724040067    6.216574611    8.245941789    9.033307207
    0.731218698    6.212257235    8.239832330    9.026239591
    0.738397329    6.207906089    8.233676604    9.019119132
    0.745575960    6.203521391    8.227474924    9.011946195
    0.752754591    6.199103358    8.221227602    9.004721147
    0.759933222    6.194652206    8.214934951    8.997444353
    0.767111853    6.190168155    8.208597284    8.990116179
    0.774290484    6.185651422    8.202214914    8.982736993
    0.781469115    6.181102228    8.195788154    8.975307158
    0.788647746    6.176520791    8.189317317    8.967827043
    0.795826377    6.171907331    8.182802716    8.960297013
    0.803005008    6.167262069    8.176244666    8.952717435
    0.810183639    6.162585225    8.169643478    8.945088675
    0.817362270    6.157877020    8.162999468    8.937411100
    0.824540902    6.153137676    8.156312947    8.929685075
    0.831719533    6.148367415    8.149584231    8.921910969
    0.838898164    6.143566457    8.142813632    8.914089146
    0.846076795    6.138735027    8.136001464    8.906219974
    0.853255426    6.133873345    8.129148041    8.898303818
    0.860434057    6.128981635    8.122253676    8.890341046
    0.867612688    6.124060120    8.115318682    8.882332023
    0.874791319    6.119109022    8.108343374    8.874277116
    0.881969950    6.114128566    8.101328064    8.866176690
    0.889148581    6.109118974    8.094273065    8.858031112
    0.896327212    6.104080470    8.087178691    8.849840748
    0.903505843    6.099013279    8.080045255    8.841605963
    0.910684474    6.093917623    8.072873069    8.833327123
    0.917863105    6.088793726    8.065662448    8.825004594
    0.925041736    6.083641814    8.058413702    8.816638740
    0.932220367    6.078462109    8.051127145    8.808229928
    0.939398998    6.073254837    8.043803089    8.799778520
    0.946577629    6.068020220    8.036441846    8.791284884
    0.953756260    6.062758484    8.029043728    8.782749382
    0.960934891    6.057469852    8.021609047    8.774172379
    0.968113523    6.052154548    8.014138114    8.765554239
    0.975292154    6.046812797    8.006631240    8.756895325
    0.982470785    6.041444823    7.999088737    8.748196002
    0.989649416    6.036050849    7.991510915    8.739456632
    0.996828047    6.030631100    7.983898084    8.730677577
    1.004006678    6.025185799    7.976250555    8.721859201
    1.011185309    6.019715170    7.968568638    8.713001864
    1.018363940    6.014219437    7.960852642    8.704105930
    1.025542571    6.008698822    7.953102875    8.695171758
    1.032721202    6.003153550    7.945319648    8.686199711
    1.039899833    5.997583842    7.937503268    8.677190148
    1.047078464    5.991989923    7.929654043    8.668143430
    1.054257095    5.986372015    7.921772282    8.659059915
    1.061435726    5.980730340    7.913858291    8.649939964
    1.068614357    5.975065120    7.905912377    8.640783934
    1.075792988    5.969376578    7.897934847    8.631592185
    1.082971619    5.963664935    7.889926007    8.622365073
    1.090150250    5.957930413    7.881886162    8.613102955
    1.097328881    5.952173232    7.873815618    8.603806189
    1.104507513    5.946393615    7.865714678    8.594475129
    1.111686144    5.940591781    7.857583647    8.585110132
    1.118864775    5.934767951    7.849422829    8.575711552
    1.126043406    5.928922344    7.841232527    8.566279744
    1.133222037    5.923055181    7.833013042    8.556815060
    1.140400668    5.917166680    7.824764678    8.547317855
    1.147579299    5.911257062    7.816487735    8.537788479
    1.154757930    5.905326543    7.808182515    8.528227285
    1.161936561    5.899375342    7.799849317    8.518634623
    1.169115192    5.893403677    7.791488442    8.509010844
    1.176293823    5.887411766    7.783100187    8.499356297
    1.183472454    5.881399824    7.774684852    8.489671331
    1.190651085    5.875368070    7.766242735    8.479956294
    1.197829716    5.869316717    7.757774132    8.470211532
    1.205008347    5.863245984    7.749279340    8.460437392
    1.212186978    5.857156083    7.740758654    8.450634220
    1.219365609    5.851047230    7.732212371    8.440802361
    1.226544240    5.844919640    7.723640783    8.430942158
    1.233722871    5.838773525    7.715044185    8.421053955
    1.240901503    5.832609099    7.706422870    8.411138093
    1.248080134    5.826426575    7.697777129    8.401194914
    1.255258765    5.820226164    7.689107255    8.391224759
    1.262437396    5.814008078    7.680413537    8.381227966
    1.269616027    5.807772528    7.671696266    8.371204875
    1.276794658    5.801519725    7.662955731    8.361155823
    1.283973289    5.795249878    7.654192220    8.351081148
    1.291151920    5.788963196    7.645406021    8.340981183
    1.298330551    5.782659889    7.636597420    8.330856266
    1.305509182    5.776340165    7.627766703    8.320706728
    1.312687813    5.770004231    7.618914154    8.310532903
    1.319866444    5.763652293    7.610040059    8.300335123
    1.327045075    5.757284559    7.601144701    8.290113718
    1.334223706    5.750901234    7.592228361    8.279869019
    1.341402337    5.744502522    7.583291321    8.269601353
    1.348580968    5.738088629    7.574333862    8.259311048
    1.355759599    5.731659758    7.565356263    8.248998430
    1.362938230    5.725216111    7.556358804    8.238663826
    1.370116861    5.718757893    7.547341762    8.228307558
    1.377295492    5.712285303    7.538305413    8.217929951
    1.384474124    5.705798544    7.529250034    8.207531326
    1.391652755    5.699297815    7.520175900    8.197112004
    1.398831386    5.692783316    7.511083285    8.186672305
    1.406010017    5.686255246    7.501972461    8.176212547
    1.413188648    5.679713804    7.492843701    8.165733047
    1.420367279    5.673159187    7.483697276    8.155234122
    1.427545910    5.666591591    7.474533455    8.144716087
    1.434724541    5.660011213    7.465352508    8.134179254
    1.441903172    5.653418248    7.456154703    8.123623937
    1.449081803    5.646812890    7.446940307    8.113050447
    1.456260434    5.640195334    7.437709585    8.102459093
    1.463439065    5.633565772    7.428462802    8.091850186
    1.470617696    5.626924397    7.419200222    8.081224031
    1.477796327    5.620271400    7.409922109    8.070580935
    1.484974958    5.613606971    7.400628722    8.059921203
    1.492153589    5.606931302    7.391320324    8.049245139
    1.499332220    5.600244581    7.381997172    8.038553044
    1.506510851    5.593546996    7.372659527    8.027845220
    1.513689482    5.586838735    7.363307645    8.017121967
    1.520868114    5.580119985    7.353941781    8.006383583
    1.528046745    5.573390932    7.344562192    7.995630364
    1.535225376    5.566651760    7.335169131    7.984862606
    1.542404007    5.559902655    7.325762850    7.974080604
    1.549582638    5.553143800    7.316343602    7.963284651
    1.556761269    5.546375376    7.306911637    7.952475037
    1.563939900    5.539597568    7.297467204    7.941652054
    1.571118531    5.532810554    7.288010551    7.930815989
    1.578297162    5.526014516    7.278541925    7.919967131
    1.585475793    5.519209632    7.269061572    7.909105765
    1.592654424    5.512396082    7.259569737    7.898232175
    1.599833055    5.505574042    7.250066662    7.887346645
    1.607011686    5.498743690    7.240552592    7.876449457
    1.614190317    5.491905201    7.231027765    7.865540890
    1.621368948    5.485058751    7.221492423    7.854621224
    1.628547579    5.478204514    7.211946803    7.843690736
    1.635726210    5.471342663    7.202391144    7.832749702
    1.642904841    5.464473370    7.192825682    7.821798397
    1.650083472    5.457596807    7.183250651    7.810837092
    1.657262104    5.450713144    7.173666286    7.799866061
    1.664440735    5.443822552    7.164072818    7.788885573
    1.671619366    5.436925199    7.154470480    7.777895897
    1.678797997    5.430021253    7.144859501    7.766897299
    1.685976628    5.423110882    7.135240110    7.755890046
    1.693155259    5.416194251    7.125612536    7.744874402
    1.700333890    5.409271526    7.115977003    7.733850630
    1.707512521    5.402342872    7.106333738    7.722818990
    1.714691152    5.395408451    7.096682964    7.711779742
    1.721869783    5.388468426    7.087024904    7.700733145
    1.729048414    5.381522960    7.077359780    7.689679455
    1.736227045    5.374572212    7.067687811    7.678618927
    1.743405676    5.367616343    7.058009216    7.667551816
    1.750584307    5.360655512    7.048324213    7.656478373
    1.757762938    5.353689876    7.038633018    7.645398849
    1.764941569    5.346719594    7.028935846    7.634313492
    1.772120200    5.339744820    7.019232911    7.623222552
    1.779298831    5.332765711    7.009524426    7.612126273
    1.786477462    5.325782421    6.999810601    7.601024900
    1.793656093    5.318795102    6.990091647    7.589918677
    1.800834725    5.311803909    6.980367772    7.578807844
    1.808013356    5.304808992    6.970639184    7.567692642
    1.815191987    5.297810502    6.960906089    7.556573309
    1.822370618    5.290808588    6.951168691    7.545450083
    1.829549249    5.283803401    6.941427194    7.534323197
    1.836727880    5.276795086    6.931681801    7.523192887
    1.843906511    5.269783793    6.921932713    7.512059384
    1.851085142    5.262769666    6.912180128    7.500922920
    1.858263773    5.255752850    6.902424246    7.489783723
    1.865442404    5.248733491    6.892665263    7.478642020
    1.872621035    5.241711730    6.882903376    7.467498040
    1.879799666    5.234687711    6.873138779    7.456352004
    1.886978297    5.227661575    6.863371665    7.445204138
    1.894156928    5.220633462    6.853602226    7.434054662
    1.901335559    5.213603512    6.843830653    7.422903796
    1.908514190    5.206571864    6.834057136    7.411751759
    1.915692821    5.199538655    6.824281861    7.400598767
    1.922871452    5.192504021    6.814505017    7.389445037
    1.930050083    5.185468100    6.804726788    7.378290781
    1.937228715    5.178431025    6.794947360    7.367136212
    1.944407346    5.171392931    6.785166914    7.355981540
    1.951585977    5.164353951    6.775385633    7.344826975
    1.958764608    5.157314216    6.765603696    7.333672725
    1.965943239    5.150273859    6.755821284    7.322518996
    1.973121870    5.143233008    6.746038574    7.311365992
    1.980300501    5.136191795    6.736255742    7.300213916
    1.987479132    5.129150346    6.726472964    7.289062970
    1.994657763    5.122108790    6.716690413    7.277913354
    2.001836394    5.115067253    6.706908263    7.266765266
    2.009015025    5.108025861    6.697126685    7.255618904
    2.016193656    5.100984738    6.687345849    7.244474462
    2.023372287    5.093944009    6.677565924    7.233332135
    2.030550918    5.086903796    6.667787077    7.222192115
    2.037729549    5.079864221    6.658009476    7.211054594
    2.044908180    5.072825406    6.648233285    7.199919760
    2.052086811    5.065787470    6.638458667    7.188787801
    2.059265442    5.058750533    6.628685786    7.177658904
    2.066444073    5.051714713    6.618914803    7.166533253
    2.073622705    5.044680127    6.609145878    7.155411033
    2.080801336    5.037646893    6.599379170    7.144292424
    2.087979967    5.030615125    6.589614837    7.133177608
    2.095158598    5.023584939    6.579853034    7.122066763
    2.102337229    5.016556448    6.570093916    7.110960066
    2.109515860    5.009529765    6.560337639    7.099857695
    2.116694491    5.002505002    6.550584354    7.088759822
    2.123873122    4.995482271    6.540834212    7.077666622
    2.131051753    4.988461681    6.531087364    7.066578265
    2.138230384    4.981443342    6.521343959    7.055494922
    2.145409015    4.974427363    6.511604145    7.044416761
    2.152587646    4.967413850    6.501868067    7.033343950
    2.159766277    4.960402912    6.492135872    7.022276654
    2.166944908    4.953394652    6.482407702    7.011215037
    2.174123539    4.946389178    6.472683702    7.000159263
    2.181302170    4.939386591    6.462964012    6.989109492
    2.188480801    4.932386997    6.453248774    6.978065884
    2.195659432    4.925390496    6.443538125    6.967028599
    2.202838063    4.918397191    6.433832205    6.955997793
    2.210016694    4.911407182    6.424131150    6.944973621
    2.217195326    4.904420568    6.414435095    6.933956238
    2.224373957    4.897437450    6.404744176    6.922945797
    2.231552588    4.890457924    6.395058524    6.911942449
    2.238731219    4.883482087    6.385378274    6.900946344
    2.245909850    4.876510037    6.375703554    6.889957631
    2.253088481    4.869541868    6.366034496    6.878976457
    2.260267112    4.862577675    6.356371227    6.868002967
    2.267445743    4.855617553    6.346713876    6.857037306
    2.274624374    4.848661592    6.337062567    6.846079618
    2.281803005    4.841709887    6.327417427    6.835130044
    2.288981636    4.834762528    6.317778579    6.824188723
    2.296160267    4.827819605    6.308146146    6.813255796
    2.303338898    4.820881208    6.298520250    6.802331400
    2.310517529    4.813947426    6.288901011    6.791415670
    2.317696160    4.807018347    6.279288549    6.780508743
    2.324874791    4.800094057    6.269682981    6.769610751
    2.332053422    4.793174644    6.260084426    6.758721826
    2.339232053    4.786260192    6.250492998    6.747842100
    2.346410684    4.779350786    6.240908813    6.736971701
    2.353589316    4.772446510    6.231331985    6.726110760
    2.360767947    4.765547448    6.221762626    6.715259401
    2.367946578    4.758653681    6.212200847    6.704417751
    2.375125209    4.751765290    6.202646761    6.693585935
    2.382303840    4.744882357    6.193100474    6.682764074
    2.389482471    4.738004962    6.183562097    6.671952292
    2.396661102    4.731133183    6.174031736    6.661150708
    2.403839733    4.724267098    6.164509498    6.650359441
    2.411018364    4.717406786    6.154995487    6.639578610
    2.418196995    4.710552323    6.145489807    6.628808331
    2.425375626    4.703703785    6.135992562    6.618048720
    2.432554257    4.696861247    6.126503853    6.607299890
    2.439732888    4.690024784    6.117023781    6.596561955
    2.446911519    4.683194469    6.107552446    6.585835026
    2.454090150    4.676370375    6.098089946    6.575119213
    2.461268781    4.669552574    6.088636380    6.564414627
    2.468447412    4.662741138    6.079191844    6.553721374
    2.475626043    4.655936137    6.069756433    6.543039561
    2.482804674    4.649137642    6.060330243    6.532369295
    2.489983306    4.642345721    6.050913366    6.521710679
    2.497161937    4.635560443    6.041505896    6.511063816
    2.504340568    4.628781876    6.032107924    6.500428809
    2.511519199    4.622010086    6.022719541    6.489805758
    2.518697830    4.615245139    6.013340835    6.479194763
    2.525876461    4.608487102    6.003971897    6.468595922
    2.533055092    4.601736040    5.994612813    6.458009333
    2.540233723    4.594992015    5.985263669    6.447435091
