# energy grid [eV]     ieps_x  ieps_y  ieps_z
#
    0.200000000    2.861406478    5.614097357    6.680699609
    0.207178631    2.861026245    5.613022743    6.679467958
    0.214357262    2.860632776    5.611910779    6.678193462
    0.221535893    2.860226092    5.610761521    6.676876180
    0.228714524    2.859806209    5.609575025    6.675516176
    0.235893155    2.859373147    5.608351353    6.674113512
    0.243071786    2.858926925    5.607090564    6.672668255
    0.250250417    2.858467565    5.605792723    6.671180473
    0.257429048    2.857995085    5.604457893    6.669650236
    0.264607679    2.857509508    5.603086142    6.668077616
    0.271786311    2.857010856    5.601677538    6.666462687
    0.278964942    2.856499151    5.600232151    6.664805523
    0.286143573    2.855974416    5.598750053    6.663106204
    0.293322204    2.855436674    5.597231318    6.661364808
    0.300500835    2.854885951    5.595676020    6.659581416
    0.307679466    2.854322269    5.594084239    6.657756113
    0.314858097    2.853745656    5.592456052    6.655888983
    0.322036728    2.853156136    5.590791539    6.653980113
    0.329215359    2.852553736    5.589090784    6.652029592
    0.336393990    2.851938482    5.587353870    6.650037511
    0.343572621    2.851310403    5.585580883    6.648003962
    0.350751252    2.850669526    5.583771911    6.645929040
    0.357929883    2.850015880    5.581927041    6.643812840
    0.365108514    2.849349494    5.580046366    6.641655461
    0.372287145    2.848670397    5.578129977    6.639457002
    0.379465776    2.847978619    5.576177968    6.637217565
    0.386644407    2.847274192    5.574190435    6.634937253
    0.393823038    2.846557145    5.572167476    6.632616171
    0.401001669    2.845827512    5.570109187    6.630254426
    0.408180301    2.845085324    5.568015671    6.627852126
    0.415358932    2.844330613    5.565887029    6.625409381
    0.422537563    2.843563414    5.563723364    6.622926303
    0.429716194    2.842783759    5.561524782    6.620403005
    0.436894825    2.841991683    5.559291389    6.617839604
    0.444073456    2.841187221    5.557023292    6.615236214
    0.451252087    2.840370407    5.554720603    6.612592956
    0.458430718    2.839541278    5.552383430    6.609909949
    0.465609349    2.838699869    5.550011888    6.607187315
    0.472787980    2.837846217    5.547606090    6.604425177
    0.479966611    2.836980359    5.545166151    6.601623660
    0.487145242    2.836102334    5.542692189    6.598782891
    0.494323873    2.835212178    5.540184321    6.595902997
    0.501502504    2.834309930    5.537642667    6.592984109
    0.508681135    2.833395630    5.535067349    6.590026357
    0.515859766    2.832469316    5.532458489    6.587029873
    0.523038397    2.831531028    5.529816210    6.583994793
    0.530217028    2.830580808    5.527140638    6.580921251
    0.537395659    2.829618695    5.524431900    6.577809385
    0.544574290    2.828644730    5.521690122    6.574659333
    0.551752922    2.827658956    5.518915435    6.571471236
    0.558931553    2.826661414    5.516107969    6.568245234
    0.566110184    2.825652146    5.513267855    6.564981470
    0.573288815    2.824631196    5.510395227    6.561680089
    0.580467446    2.823598607    5.507490218    6.558341236
    0.587646077    2.822554423    5.504552964    6.554965058
    0.594824708    2.821498687    5.501583602    6.551551703
    0.602003339    2.820431444    5.498582269    6.548101322
    0.609181970    2.819352738    5.495549105    6.544614064
    0.616360601    2.818262616    5.492484250    6.541090082
    0.623539232    2.817161123    5.489387845    6.537529530
    0.630717863    2.816048305    5.486260032    6.533932562
    0.637896494    2.814924207    5.483100956    6.530299335
    0.645075125    2.813788878    5.479910760    6.526630005
    0.652253756    2.812642364    5.476689592    6.522924730
    0.659432387    2.811484712    5.473437596    6.519183672
    0.666611018    2.810315971    5.470154923    6.515406990
    0.673789649    2.809136189    5.466841720    6.511594846
    0.680968280    2.807945413    5.463498137    6.507747404
    0.688146912    2.806743694    5.460124326    6.503864827
    0.695325543    2.805531080    5.456720438    6.499947282
    0.702504174    2.804307621    5.453286627    6.495994934
    0.709682805    2.803073366    5.449823046    6.492007951
    0.716861436    2.801828367    5.446329850    6.487986502
    0.724040067    2.800572672    5.442807195    6.483930756
    0.731218698    2.799306334    5.439255237    6.479840885
    0.738397329    2.798029403    5.435674135    6.475717058
    0.745575960    2.796741931    5.432064046    6.471559451
    0.752754591    2.795443970    5.428425131    6.467368235
    0.759933222    2.794135571    5.424757548    6.463143586
    0.767111853    2.792816787    5.421061459    6.458885679
    0.774290484    2.791487670    5.417337027    6.454594690
    0.781469115    2.790148273    5.413584412    6.450270797
    0.788647746    2.788798649    5.409803779    6.445914179
    0.795826377    2.787438853    5.405995292    6.441525013
    0.803005008    2.786068936    5.402159116    6.437103481
    0.810183639    2.784688954    5.398295416    6.432649763
    0.817362270    2.783298960    5.394404358    6.428164041
    0.824540902    2.781899009    5.390486109    6.423646497
    0.831719533    2.780489155    5.386540838    6.419097314
    0.838898164    2.779069454    5.382568712    6.414516676
    0.846076795    2.777639960    5.378569900    6.409904768
    0.853255426    2.776200728    5.374544572    6.405261775
    0.860434057    2.774751815    5.370492898    6.400587884
    0.867612688    2.773293276    5.366415048    6.395883282
    0.874791319    2.771825167    5.362311195    6.391148155
    0.881969950    2.770347544    5.358181509    6.386382692
    0.889148581    2.768860463    5.354026164    6.381587082
    0.896327212    2.767363981    5.349845332    6.376761514
    0.903505843    2.765858155    5.345639186    6.371906179
    0.910684474    2.764343042    5.341407901    6.367021267
    0.917863105    2.762818699    5.337151651    6.362106969
    0.925041736    2.761285182    5.332870611    6.357163477
    0.932220367    2.759742550    5.328564956    6.352190984
    0.939398998    2.758190861    5.324234862    6.347189681
    0.946577629    2.756630171    5.319880505    6.342159764
    0.953756260    2.755060539    5.315502062    6.337101424
    0.960934891    2.753482022    5.311099709    6.332014857
    0.968113523    2.751894680    5.306673624    6.326900258
    0.975292154    2.750298571    5.302223985    6.321757821
    0.982470785    2.748693752    5.297750969    6.316587742
    0.989649416    2.747080283    5.293254754    6.311390218
    0.996828047    2.745458223    5.288735520    6.306165444
    1.004006678    2.743827629    5.284193445    6.300913618
    1.011185309    2.742188562    5.279628708    6.295634936
    1.018363940    2.740541079    5.275041489    6.290329596
    1.025542571    2.738885242    5.270431967    6.284997796
    1.032721202    2.737221108    5.265800322    6.279639734
    1.039899833    2.735548737    5.261146734    6.274255608
    1.047078464    2.733868189    5.256471383    6.268845617
    1.054257095    2.732179523    5.251774450    6.263409960
    1.061435726    2.730482798    5.247056116    6.257948836
    1.068614357    2.728778075    5.242316560    6.252462444
    1.075792988    2.727065414    5.237555965    6.246950984
    1.082971619    2.725344874    5.232774510    6.241414656
    1.090150250    2.723616514    5.227972377    6.235853659
    1.097328881    2.721880396    5.223149747    6.230268194
    1.104507513    2.720136579    5.218306801    6.224658462
    1.111686144    2.718385123    5.213443720    6.219024661
    1.118864775    2.716626089    5.208560687    6.213366994
    1.126043406    2.714859535    5.203657882    6.207685660
    1.133222037    2.713085524    5.198735486    6.201980860
    1.140400668    2.711304115    5.193793681    6.196252795
    1.147579299    2.709515367    5.188832649    6.190501666
    1.154757930    2.707719342    5.183852570    6.184727674
    1.161936561    2.705916100    5.178853627    6.178931019
    1.169115192    2.704105701    5.173835999    6.173111902
    1.176293823    2.702288206    5.168799869    6.167270525
    1.183472454    2.700463674    5.163745417    6.161407088
    1.190651085    2.698632166    5.158672825    6.155521792
    1.197829716    2.696793743    5.153582273    6.149614838
    1.205008347    2.694948464    5.148473942    6.143686426
    1.212186978    2.693096391    5.143348013    6.137736758
    1.219365609    2.691237583    5.138204666    6.131766033
    1.226544240    2.689372100    5.133044082    6.125774453
    1.233722871    2.687500003    5.127866441    6.119762217
    1.240901503    2.685621353    5.122671923    6.113729526
    1.248080134    2.683736208    5.117460708    6.107676580
    1.255258765    2.681844631    5.112232974    6.101603579
    1.262437396    2.679946679    5.106988903    6.095510723
    1.269616027    2.678042415    5.101728672    6.089398210
    1.276794658    2.676131897    5.096452461    6.083266241
    1.283973289    2.674215186    5.091160448    6.077115015
    1.291151920    2.672292341    5.085852812    6.070944731
    1.298330551    2.670363423    5.080529732    6.064755587
    1.305509182    2.668428491    5.075191383    6.058547782
    1.312687813    2.666487606    5.069837945    6.052321514
    1.319866444    2.664540826    5.064469595    6.046076981
    1.327045075    2.662588211    5.059086509    6.039814381
    1.334223706    2.660629821    5.053688864    6.033533912
    1.341402337    2.658665716    5.048276836    6.027235769
    1.348580968    2.656695954    5.042850601    6.020920151
    1.355759599    2.654720595    5.037410335    6.014587252
    1.362938230    2.652739698    5.031956213    6.008237271
    1.370116861    2.650753323    5.026488409    6.001870402
    1.377295492    2.648761527    5.021007099    5.995486840
    1.384474124    2.646764371    5.015512455    5.989086781
    1.391652755    2.644761913    5.010004651    5.982670419
    1.398831386    2.642754212    5.004483861    5.976237949
    1.406010017    2.640741326    4.998950258    5.969789565
    1.413188648    2.638723313    4.993404013    5.963325459
    1.420367279    2.636700233    4.987845298    5.956845825
    1.427545910    2.634672143    4.982274285    5.950350855
    1.434724541    2.632639101    4.976691145    5.943840742
    1.441903172    2.630601166    4.971096047    5.937315677
    1.449081803    2.628558395    4.965489163    5.930775851
    1.456260434    2.626510847    4.959870661    5.924221455
    1.463439065    2.624458578    4.954240710    5.917652680
    1.470617696    2.622401646    4.948599480    5.911069714
    1.477796327    2.620340109    4.942947136    5.904472748
    1.484974958    2.618274023    4.937283848    5.897861970
    1.492153589    2.616203446    4.931609782    5.891237568
    1.499332220    2.614128435    4.925925103    5.884599730
    1.506510851    2.612049046    4.920229979    5.877948642
    1.513689482    2.609965336    4.914524574    5.871284493
    1.520868114    2.607877362    4.908809052    5.864607467
    1.528046745    2.605785179    4.903083579    5.857917750
    1.535225376    2.603688844    4.897348316    5.851215527
    1.542404007    2.601588414    4.891603428    5.844500982
    1.549582638    2.599483942    4.885849076    5.837774300
    1.556761269    2.597375487    4.880085422    5.831035662
    1.563939900    2.595263102    4.874312628    5.824285252
    1.571118531    2.593146843    4.868530853    5.817523252
    1.578297162    2.591026765    4.862740258    5.810749843
    1.585475793    2.588902924    4.856941002    5.803965205
    1.592654424    2.586775373    4.851133243    5.797169519
    1.599833055    2.584644168    4.845317139    5.790362964
    1.607011686    2.582509364    4.839492849    5.783545719
    1.614190317    2.580371013    4.833660527    5.776717962
    1.621368948    2.578229171    4.827820331    5.769879870
    1.628547579    2.576083891    4.821972416    5.763031620
    1.635726210    2.573935226    4.816116936    5.756173389
    1.642904841    2.571783232    4.810254046    5.749305351
    1.650083472    2.569627959    4.804383898    5.742427681
    1.657262104    2.567469463    4.798506646    5.735540554
    1.664440735    2.565307795    4.792622442    5.728644142
    1.671619366    2.563143008    4.786731436    5.721738619
    1.678797997    2.560975155    4.780833779    5.714824157
    1.685976628    2.558804288    4.774929622    5.707900925
    1.693155259    2.556630459    4.769019113    5.700969096
    1.700333890    2.554453721    4.763102401    5.694028839
    1.707512521    2.552274124    4.757179634    5.687080323
    1.714691152    2.550091720    4.751250959    5.680123715
    1.721869783    2.547906561    4.745316521    5.673159185
    1.729048414    2.545718698    4.739376468    5.666186898
    1.736227045    2.543528180    4.733430942    5.659207021
    1.743405676    2.541335060    4.727480090    5.652219718
    1.750584307    2.539139387    4.721524053    5.645225155
    1.757762938    2.536941212    4.715562976    5.638223496
    1.764941569    2.534740584    4.709596999    5.631214903
    1.772120200    2.532537553    4.703626264    5.624199538
    1.779298831    2.530332170    4.697650911    5.617177564
    1.786477462    2.528124482    4.691671080    5.610149140
    1.793656093    2.525914540    4.685686910    5.603114427
    1.800834725    2.523702391    4.679698540    5.596073584
    1.808013356    2.521488086    4.673706105    5.589026769
    1.815191987    2.519271671    4.667709744    5.581974140
    1.822370618    2.517053196    4.661709592    5.574915853
    1.829549249    2.514832708    4.655705784    5.567852065
    1.836727880    2.512610255    4.649698455    5.560782930
    1.843906511    2.510385884    4.643687738    5.553708604
    1.851085142    2.508159643    4.637673765    5.546629238
    1.858263773    2.505931578    4.631656670    5.539544987
    1.865442404    2.503701737    4.625636583    5.532456002
    1.872621035    2.501470166    4.619613634    5.525362434
    1.879799666    2.499236912    4.613587954    5.518264433
    1.886978297    2.497002020    4.607559670    5.511162150
    1.894156928    2.494765536    4.601528913    5.504055732
    1.901335559    2.492527506    4.595495808    5.496945327
    1.908514190    2.490287975    4.589460482    5.489831082
    1.915692821    2.488046988    4.583423061    5.482713144
    1.922871452    2.485804591    4.577383670    5.475591657
    1.930050083    2.483560827    4.571342433    5.468466767
    1.937228715    2.481315742    4.565299474    5.461338616
    1.944407346    2.479069379    4.559254915    5.454207348
    1.951585977    2.476821783    4.553208878    5.447073104
    1.958764608    2.474572996    4.547161483    5.439936026
    1.965943239    2.472323064    4.541112852    5.432796254
    1.973121870    2.470072027    4.535063104    5.425653927
    1.980300501    2.467819931    4.529012356    5.418509184
    1.987479132    2.465566816    4.522960728    5.411362163
    1.994657763    2.463312727    4.516908336    5.404213000
    2.001836394    2.461057704    4.510855296    5.397061831
    2.009015025    2.458801790    4.504801724    5.389908793
    2.016193656    2.456545027    4.498747734    5.382754018
    2.023372287    2.454287456    4.492693441    5.375597641
    2.030550918    2.452029118    4.486638956    5.368439794
    2.037729549    2.449770055    4.480584394    5.361280609
    2.044908180    2.447510307    4.474529864    5.354120217
    2.052086811    2.445249914    4.468475478    5.346958748
    2.059265442    2.442988917    4.462421345    5.339796332
    2.066444073    2.440727356    4.456367576    5.332633096
    2.073622705    2.438465270    4.450314277    5.325469168
    2.080801336    2.436202700    4.444261556    5.318304675
    2.087979967    2.433939683    4.438209520    5.311139742
    2.095158598    2.431676260    4.432158276    5.303974495
    2.102337229    2.429412469    4.426107927    5.296809058
    2.109515860    2.427148348    4.420058579    5.289643554
    2.116694491    2.424883936    4.414010335    5.282478105
    2.123873122    2.422619271    4.407963297    5.275312833
    2.131051753    2.420354390    4.401917568    5.268147859
    2.138230384    2.418089331    4.395873249    5.260983303
    2.145409015    2.415824131    4.389830439    5.253819283
    2.152587646    2.413558828    4.383789240    5.246655918
    2.159766277    2.411293458    4.377749749    5.239493325
    2.166944908    2.409028058    4.371712065    5.232331620
    2.174123539    2.406762663    4.365676284    5.225170920
    2.181302170    2.404497310    4.359642504    5.218011339
    2.188480801    2.402232035    4.353610819    5.210852990
    2.195659432    2.399966873    4.347581325    5.203695988
    2.202838063    2.397701859    4.341554117    5.196540444
    2.210016694    2.395437029    4.335529286    5.189386469
    2.217195326    2.393172417    4.329506927    5.182234175
    2.224373957    2.390908058    4.323487130    5.175083671
    2.231552588    2.388643986    4.317469988    5.167935065
    2.238731219    2.386380236    4.311455589    5.160788467
    2.245909850    2.384116840    4.305444024    5.153643983
    2.253088481    2.381853833    4.299435381    5.146501719
    2.260267112    2.379591248    4.293429748    5.139361782
    2.267445743    2.377329118    4.287427214    5.132224275
    2.274624374    2.375067475    4.281427863    5.125089303
    2.281803005    2.372806353    4.275431782    5.117956969
    2.288981636    2.370545784    4.269439056    5.110827375
    2.296160267    2.368285799    4.263449768    5.103700623
    2.303338898    2.366026432    4.257464004    5.096576813
    2.310517529    2.363767712    4.251481844    5.089456045
    2.317696160    2.361509673    4.245503372    5.082338418
    2.324874791    2.359252344    4.239528668    5.075224030
    2.332053422    2.356995757    4.233557813    5.068112978
    2.339232053    2.354739942    4.227590887    5.061005360
    2.346410684    2.352484931    4.221627969    5.053901270
    2.353589316    2.350230752    4.215669137    5.046800804
    2.360767947    2.347977437    4.209714468    5.039704056
    2.367946578    2.345725014    4.203764040    5.032611120
    2.375125209    2.343473513    4.197817929    5.025522087
    2.382303840    2.341222964    4.191876209    5.018437049
    2.389482471    2.338973396    4.185938957    5.011356098
    2.396661102    2.336724836    4.180006245    5.004279323
    2.403839733    2.334477315    4.174078147    4.997206815
    2.411018364    2.332230859    4.168154736    4.990138660
    2.418196995    2.329985498    4.162236083    4.983074948
    2.425375626    2.327741259    4.156322259    4.976015766
    2.432554257    2.325498169    4.150413336    4.968961199
    2.439732888    2.323256256    4.144509382    4.961911332
    2.446911519    2.321015548    4.138610467    4.954866252
    2.454090150    2.318776071    4.132716659    4.947826041
    2.461268781    2.316537851    4.126828025    4.940790782
    2.468447412    2.314300916    4.120944634    4.933760559
    2.475626043    2.312065291    4.115066550    4.926735452
    2.482804674    2.309831003    4.109193840    4.919715543
    2.489983306    2.307598077    4.103326568    4.912700912
    2.497161937    2.305366539    4.097464800    4.905691637
    2.504340568    2.303136414    4.091608597    4.898687798
    2.511519199    2.300907727    4.085758024    4.891689473
    2.518697830    2.298680504    4.079913142    4.884696737
    2.525876461    2.296454769    4.074074013    4.877709669
    2.533055092    2.294230546    4.068240699    4.870728343
    2.540233723    2.292007859    4.062413258    4.863752834
