# energy grid [eV]     ieps_x  ieps_y  ieps_z
#
    0.200000000    8.900019615    7.021440274    7.719360036
    0.207178631    8.898134628    7.020110680    7.717821073
    0.214357262    8.896184174    7.018734853    7.716228627
    0.221535893    8.894168354    7.017312861    7.714582780
    0.228714524    8.892087275    7.015844771    7.712883614
    0.235893155    8.889941046    7.014330657    7.711131215
    0.243071786    8.887729781    7.012770591    7.709325672
    0.250250417    8.885453595    7.011164649    7.707467076
    0.257429048    8.883112607    7.009512908    7.705555520
    0.264607679    8.880706941    7.007815450    7.703591101
    0.271786311    8.878236722    7.006072355    7.701573917
    0.278964942    8.875702080    7.004283708    7.699504071
    0.286143573    8.873103147    7.002449596    7.697381665
    0.293322204    8.870440058    7.000570106    7.695206806
    0.300500835    8.867712952    6.998645330    7.692979604
    0.307679466    8.864921972    6.996675361    7.690700169
    0.314858097    8.862067261    6.994660291    7.688368616
    0.322036728    8.859148970    6.992600220    7.685985061
    0.329215359    8.856167248    6.990495244    7.683549622
    0.336393990    8.853122251    6.988345466    7.681062421
    0.343572621    8.850014135    6.986150988    7.678523582
    0.350751252    8.846843062    6.983911914    7.675933231
    0.357929883    8.843609194    6.981628353    7.673291495
    0.365108514    8.840312700    6.979300411    7.670598507
    0.372287145    8.836953747    6.976928201    7.667854399
    0.379465776    8.833532509    6.974511836    7.665059307
    0.386644407    8.830049161    6.972051428    7.662213368
    0.393823038    8.826503881    6.969547097    7.659316723
    0.401001669    8.822896851    6.966998959    7.656369514
    0.408180301    8.819228255    6.964407135    7.653371886
    0.415358932    8.815498279    6.961771749    7.650323986
    0.422537563    8.811707114    6.959092923    7.647225962
    0.429716194    8.807854952    6.956370783    7.644077967
    0.436894825    8.803941989    6.953605459    7.640880155
    0.444073456    8.799968422    6.950797079    7.637632679
    0.451252087    8.795934452    6.947945775    7.634335700
    0.458430718    8.791840283    6.945051680    7.630989376
    0.465609349    8.787686121    6.942114930    7.627593870
    0.472787980    8.783472174    6.939135661    7.624149345
    0.479966611    8.779198655    6.936114011    7.620655970
    0.487145242    8.774865776    6.933050122    7.617113911
    0.494323873    8.770473755    6.929944134    7.613523339
    0.501502504    8.766022811    6.926796192    7.609884427
    0.508681135    8.761513165    6.923606441    7.606197348
    0.515859766    8.756945041    6.920375029    7.602462280
    0.523038397    8.752318666    6.917102103    7.598679401
    0.530217028    8.747634269    6.913787814    7.594848890
    0.537395659    8.742892080    6.910432314    7.590970931
    0.544574290    8.738092334    6.907035757    7.587045707
    0.551752922    8.733235266    6.903598297    7.583073403
    0.558931553    8.728321115    6.900120092    7.579054209
    0.566110184    8.723350121    6.896601299    7.574988312
    0.573288815    8.718322528    6.893042078    7.570875905
    0.580467446    8.713238579    6.889442590    7.566717181
    0.587646077    8.708098523    6.885802998    7.562512335
    0.594824708    8.702902608    6.882123466    7.558261563
    0.602003339    8.697651086    6.878404160    7.553965063
    0.609181970    8.692344211    6.874645246    7.549623035
    0.616360601    8.686982238    6.870846893    7.545235682
    0.623539232    8.681565424    6.867009271    7.540803206
    0.630717863    8.676094030    6.863132551    7.536325812
    0.637896494    8.670568318    6.859216906    7.531803706
    0.645075125    8.664988549    6.855262508    7.527237097
    0.652253756    8.659354991    6.851269534    7.522626195
    0.659432387    8.653667910    6.847238160    7.517971209
    0.666611018    8.647927575    6.843168564    7.513272354
    0.673789649    8.642134258    6.839060924    7.508529842
    0.680968280    8.636288231    6.834915421    7.503743890
    0.688146912    8.630389769    6.830732236    7.498914713
    0.695325543    8.624439148    6.826511552    7.494042531
    0.702504174    8.618436646    6.822253553    7.489127564
    0.709682805    8.612382542    6.817958423    7.484170031
    0.716861436    8.606277118    6.813626349    7.479170156
    0.724040067    8.600120657    6.809257518    7.474128161
    0.731218698    8.593913442    6.804852119    7.469044273
    0.738397329    8.587655760    6.800410339    7.463918717
    0.745575960    8.581347898    6.795932371    7.458751720
    0.752754591    8.574990146    6.791418406    7.453543511
    0.759933222    8.568582792    6.786868636    7.448294320
    0.767111853    8.562126129    6.782283254    7.443004378
    0.774290484    8.555620451    6.777662455    7.437673916
    0.781469115    8.549066051    6.773006435    7.432303169
    0.788647746    8.542463225    6.768315390    7.426892369
    0.795826377    8.535812270    6.763589517    7.421441752
    0.803005008    8.529113484    6.758829014    7.415951555
    0.810183639    8.522367168    6.754034081    7.410422015
    0.817362270    8.515573620    6.749204918    7.404853371
    0.824540902    8.508733144    6.744341725    7.399245860
    0.831719533    8.501846042    6.739444703    7.393599724
    0.838898164    8.494912618    6.734514056    7.387915204
    0.846076795    8.487933177    6.729549987    7.382192542
    0.853255426    8.480908025    6.724552699    7.376431980
    0.860434057    8.473837470    6.719522398    7.370633762
    0.867612688    8.466721818    6.714459288    7.364798133
    0.874791319    8.459561380    6.709363576    7.358925337
    0.881969950    8.452356465    6.704235468    7.353015622
    0.889148581    8.445107383    6.699075172    7.347069233
    0.896327212    8.437814446    6.693882897    7.341086418
    0.903505843    8.430477968    6.688658851    7.335067426
    0.910684474    8.423098259    6.683403243    7.329012505
    0.917863105    8.415675636    6.678116283    7.322921905
    0.925041736    8.408210412    6.672798182    7.316795876
    0.932220367    8.400702902    6.667449151    7.310634668
    0.939398998    8.393153422    6.662069401    7.304438533
    0.946577629    8.385562290    6.656659145    7.298207723
    0.953756260    8.377929822    6.651218595    7.291942490
    0.960934891    8.370256335    6.645747964    7.285643087
    0.968113523    8.362542149    6.640247466    7.279309767
    0.975292154    8.354787581    6.634717315    7.272942785
    0.982470785    8.346992952    6.629157724    7.266542394
    0.989649416    8.339158580    6.623568910    7.260108849
    0.996828047    8.331284787    6.617951086    7.253642405
    1.004006678    8.323371892    6.612304469    7.247143318
    1.011185309    8.315420216    6.606629274    7.240611844
    1.018363940    8.307430081    6.600925717    7.234048238
    1.025542571    8.299401808    6.595194015    7.227452757
    1.032721202    8.291335718    6.589434386    7.220825658
    1.039899833    8.283232135    6.583647044    7.214167197
    1.047078464    8.275091380    6.577832209    7.207477633
    1.054257095    8.266913775    6.571990097    7.200757221
    1.061435726    8.258699644    6.566120927    7.194006221
    1.068614357    8.250449308    6.560224915    7.187224889
    1.075792988    8.242163092    6.554302281    7.180413484
    1.082971619    8.233841317    6.548353243    7.173572264
    1.090150250    8.225484308    6.542378018    7.166701487
    1.097328881    8.217092386    6.536376826    7.159801411
    1.104507513    8.208665875    6.530349885    7.152872295
    1.111686144    8.200205099    6.524297414    7.145914396
    1.118864775    8.191710379    6.518219632    7.138927974
    1.126043406    8.183182040    6.512116757    7.131913287
    1.133222037    8.174620403    6.505989009    7.124870593
    1.140400668    8.166025792    6.499836606    7.117800151
    1.147579299    8.157398530    6.493659768    7.110702218
    1.154757930    8.148738938    6.487458713    7.103577054
    1.161936561    8.140047339    6.481233661    7.096424917
    1.169115192    8.131324054    6.474984830    7.089246064
    1.176293823    8.122569407    6.468712439    7.082040753
    1.183472454    8.113783717    6.462416707    7.074809243
    1.190651085    8.104967307    6.456097853    7.067551791
    1.197829716    8.096120498    6.449756095    7.060268654
    1.205008347    8.087243609    6.443391652    7.052960090
    1.212186978    8.078336961    6.437004742    7.045626356
    1.219365609    8.069400874    6.430595583    7.038267708
    1.226544240    8.060435668    6.424164393    7.030884403
    1.233722871    8.051441661    6.417711391    7.023476698
    1.240901503    8.042419172    6.411236794    7.016044848
    1.248080134    8.033368518    6.404740819    7.008589109
    1.255258765    8.024290019    6.398223684    7.001109736
    1.262437396    8.015183990    6.391685606    6.993606985
    1.269616027    8.006050749    6.385126802    6.986081110
    1.276794658    7.996890611    6.378547487    6.978532366
    1.283973289    7.987703891    6.371947879    6.970961006
    1.291151920    7.978490906    6.365328193    6.963367283
    1.298330551    7.969251968    6.358688645    6.955751452
    1.305509182    7.959987392    6.352029450    6.948113764
    1.312687813    7.950697490    6.345350824    6.940454471
    1.319866444    7.941382576    6.338652981    6.932773826
    1.327045075    7.932042959    6.331936135    6.925072080
    1.334223706    7.922678952    6.325200501    6.917349483
    1.341402337    7.913290865    6.318446292    6.909606286
    1.348580968    7.903879006    6.311673720    6.901842738
    1.355759599    7.894443685    6.304883000    6.894059089
    1.362938230    7.884985210    6.298074343    6.886255586
    1.370116861    7.875503888    6.291247961    6.878432479
    1.377295492    7.866000024    6.284404066    6.870590014
    1.384474124    7.856473925    6.277542869    6.862728439
    1.391652755    7.846925895    6.270664581    6.854847999
    1.398831386    7.837356238    6.263769411    6.846948941
    1.406010017    7.827765257    6.256857569    6.839031509
    1.413188648    7.818153253    6.249929264    6.831095947
    1.420367279    7.808520529    6.242984706    6.823142499
    1.427545910    7.798867383    6.236024102    6.815171409
    1.434724541    7.789194116    6.229047659    6.807182918
    1.441903172    7.779501025    6.222055585    6.799177269
    1.449081803    7.769788408    6.215048086    6.791154701
    1.456260434    7.760056561    6.208025369    6.783115455
    1.463439065    7.750305780    6.200987638    6.775059771
    1.470617696    7.740536359    6.193935098    6.766987888
    1.477796327    7.730748591    6.186867954    6.758900042
    1.484974958    7.720942768    6.179786409    6.750796472
    1.492153589    7.711119182    6.172690666    6.742677413
    1.499332220    7.701278123    6.165580927    6.734543102
    1.506510851    7.691419879    6.158457395    6.726393773
    1.513689482    7.681544739    6.151320271    6.718229660
    1.520868114    7.671652991    6.144169754    6.710050997
    1.528046745    7.661744918    6.137006044    6.701858015
    1.535225376    7.651820807    6.129829342    6.693650946
    1.542404007    7.641880941    6.122639845    6.685430020
    1.549582638    7.631925602    6.115437751    6.677195469
    1.556761269    7.621955071    6.108223257    6.668947519
    1.563939900    7.611969628    6.100996560    6.660686400
    1.571118531    7.601969553    6.093757855    6.652412339
    1.578297162    7.591955123    6.086507337    6.644125561
    1.585475793    7.581926614    6.079245201    6.635826293
    1.592654424    7.571884302    6.071971641    6.627514759
    1.599833055    7.561828461    6.064686848    6.619191181
    1.607011686    7.551759364    6.057391016    6.610855784
    1.614190317    7.541677282    6.050084335    6.602508787
    1.621368948    7.531582486    6.042766996    6.594150413
    1.628547579    7.521475244    6.035439189    6.585780881
    1.635726210    7.511355825    6.028101104    6.577400410
    1.642904841    7.501224496    6.020752927    6.569009217
    1.650083472    7.491081521    6.013394848    6.560607520
    1.657262104    7.480927165    6.006027052    6.552195534
    1.664440735    7.470761691    5.998649725    6.543773474
    1.671619366    7.460585359    5.991263054    6.535341555
    1.678797997    7.450398431    5.983867221    6.526899989
    1.685976628    7.440201164    5.976462411    6.518448988
    1.693155259    7.429993817    5.969048806    6.509988763
    1.700333890    7.419776645    5.961626589    6.501519524
    1.707512521    7.409549904    5.954195940    6.493041480
    1.714691152    7.399313847    5.946757039    6.484554839
    1.721869783    7.389068726    5.939310066    6.476059807
    1.729048414    7.378814792    5.931855200    6.467556591
    1.736227045    7.368552295    5.924392619    6.459045394
    1.743405676    7.358281483    5.916922499    6.450526422
    1.750584307    7.348002601    5.909445015    6.441999876
    1.757762938    7.337715897    5.901960345    6.433465958
    1.764941569    7.327421614    5.894468661    6.424924869
    1.772120200    7.317119994    5.886970138    6.416376809
    1.779298831    7.306811278    5.879464947    6.407821975
    1.786477462    7.296495708    5.871953261    6.399260564
    1.793656093    7.286173520    5.864435251    6.390692775
    1.800834725    7.275844953    5.856911086    6.382118800
    1.808013356    7.265510242    5.849380935    6.373538836
    1.815191987    7.255169621    5.841844968    6.364953074
    1.822370618    7.244823323    5.834303350    6.356361707
    1.829549249    7.234471579    5.826756249    6.347764925
    1.836727880    7.224114621    5.819203830    6.339162919
    1.843906511    7.213752676    5.811646257    6.330555876
    1.851085142    7.203385971    5.804083695    6.321943985
    1.858263773    7.193014733    5.796516307    6.313327433
    1.865442404    7.182639186    5.788944253    6.304706404
    1.872621035    7.172259552    5.781367696    6.296081082
    1.879799666    7.161876054    5.773786795    6.287451652
    1.886978297    7.151488912    5.766201709    6.278818294
    1.894156928    7.141098344    5.758612597    6.270181191
    1.901335559    7.130704568    5.751019617    6.261540521
    1.908514190    7.120307800    5.743422924    6.252896464
    1.915692821    7.109908253    5.735822674    6.244249197
    1.922871452    7.099506141    5.728219022    6.235598897
    1.930050083    7.089101677    5.720612121    6.226945739
    1.937228715    7.078695068    5.713002125    6.218289897
    1.944407346    7.068286526    5.705389185    6.209631545
    1.951585977    7.057876256    5.697773452    6.200970854
    1.958764608    7.047464465    5.690155075    6.192307995
    1.965943239    7.037051357    5.682534205    6.183643139
    1.973121870    7.026637135    5.674910989    6.174976453
    1.980300501    7.016222001    5.667285575    6.166308106
    1.987479132    7.005806154    5.659658108    6.157638264
    1.994657763    6.995389795    5.652028734    6.148967092
    2.001836394    6.984973119    5.644397598    6.140294754
    2.009015025    6.974556323    5.636764842    6.131621413
    2.016193656    6.964139600    5.629130610    6.122947232
    2.023372287    6.953723146    5.621495044    6.114272370
    2.030550918    6.943307149    5.613858282    6.105596989
    2.037729549    6.932891802    5.606220467    6.096921245
    2.044908180    6.922477292    5.598581735    6.088245298
    2.052086811    6.912063808    5.590942226    6.079569302
    2.059265442    6.901651534    5.583302076    6.070893414
    2.066444073    6.891240655    5.575661422    6.062217787
    2.073622705    6.880831355    5.568020397    6.053542574
    2.080801336    6.870423814    5.560379137    6.044867928
    2.087979967    6.860018214    5.552737774    6.036193998
    2.095158598    6.849614733    5.545096441    6.027520935
    2.102337229    6.839213549    5.537455270    6.018848887
    2.109515860    6.828814837    5.529814390    6.010178001
    2.116694491    6.818418772    5.522173932    6.001508424
    2.123873122    6.808025528    5.514534023    5.992840301
    2.131051753    6.797635276    5.506894791    5.984173775
    2.138230384    6.787248186    5.499256364    5.975508991
    2.145409015    6.776864428    5.491618867    5.966846089
    2.152587646    6.766484169    5.483982424    5.958185211
    2.159766277    6.756107576    5.476347160    5.949526496
    2.166944908    6.745734813    5.468713198    5.940870083
    2.174123539    6.735366044    5.461080659    5.932216109
    2.181302170    6.725001431    5.453449666    5.923564710
    2.188480801    6.714641135    5.445820338    5.914916023
    2.195659432    6.704285315    5.438192794    5.906270180
    2.202838063    6.693934130    5.430567154    5.897627316
    2.210016694    6.683587735    5.422943534    5.888987561
    2.217195326    6.673246287    5.415322051    5.880351048
    2.224373957    6.662909939    5.407702821    5.871717906
    2.231552588    6.652578843    5.400085959    5.863088263
    2.238731219    6.642253152    5.392471579    5.854462248
    2.245909850    6.631933014    5.384859793    5.845839988
    2.253088481    6.621618579    5.377250713    5.837221606
    2.260267112    6.611309994    5.369644452    5.828607229
    2.267445743    6.601007405    5.362041118    5.819996980
    2.274624374    6.590710956    5.354440822    5.811390981
    2.281803005    6.580420791    5.346843672    5.802789353
    2.288981636    6.570137051    5.339249775    5.794192216
    2.296160267    6.559859878    5.331659239    5.785599691
    2.303338898    6.549589410    5.324072169    5.777011895
    2.310517529    6.539325786    5.316488670    5.768428944
    2.317696160    6.529069143    5.308908846    5.759850957
    2.324874791    6.518819615    5.301332800    5.751278046
    2.332053422    6.508577337    5.293760635    5.742710327
    2.339232053    6.498342442    5.286192452    5.734147912
    2.346410684    6.488115062    5.278628352    5.725590914
    2.353589316    6.477895327    5.271068433    5.717039443
    2.360767947    6.467683366    5.263512796    5.708493609
    2.367946578    6.457479307    5.255961538    5.699953521
    2.375125209    6.447283276    5.248414756    5.691419288
    2.382303840    6.437095399    5.240872547    5.682891015
    2.389482471    6.426915800    5.233335005    5.674368809
    2.396661102    6.416744601    5.225802226    5.665852775
    2.403839733    6.406581925    5.218274302    5.657343017
    2.411018364    6.396427891    5.210751327    5.648839637
    2.418196995    6.386282619    5.203233394    5.640342738
    2.425375626    6.376146227    5.195720592    5.631852420
    2.432554257    6.366018831    5.188213012    5.623368784
    2.439732888    6.355900546    5.180710744    5.614891928
    2.446911519    6.345791488    5.173213877    5.606421950
    2.454090150    6.335691769    5.165722497    5.597958948
    2.461268781    6.325601501    5.158236693    5.589503017
    2.468447412    6.315520795    5.150756551    5.581054253
    2.475626043    6.305449761    5.143282155    5.572612750
    2.482804674    6.295388506    5.135813590    5.564178600
    2.489983306    6.285337138    5.128350940    5.555751897
    2.497161937    6.275295763    5.120894289    5.547332731
    2.504340568    6.265264486    5.113443717    5.538921193
    2.511519199    6.255243410    5.105999307    5.530517372
    2.518697830    6.245232639    5.098561138    5.522121357
    2.525876461    6.235232273    5.091129291    5.513733236
    2.533055092    6.225242412    5.083703845    5.505353095
    2.540233723    6.215263157    5.076284877    5.496981019
