# energy grid [eV]     epsr_x  epsr_y  epsr_z
#
    0.200000000   14.505037887   14.534143108    3.147983789
    0.207178631   14.508417651   14.537410342    3.148315540
    0.214357262   14.511918770   14.540794783    3.148659181
    0.221535893   14.515541474   14.544296642    3.149014731
    0.228714524   14.519286004   14.547916139    3.149382211
    0.235893155   14.523152608   14.551653500    3.149761644
    0.243071786   14.527141541   14.555508962    3.150153053
    0.250250417   14.531253070   14.559482768    3.150556460
    0.257429048   14.535487468   14.563575169    3.150971890
    0.264607679   14.539845020   14.567786424    3.151399368
    0.271786311   14.544326016   14.572116803    3.151838921
    0.278964942   14.548930759   14.576566580    3.152290575
    0.286143573   14.553659560   14.581136042    3.152754357
    0.293322204   14.558512737   14.585825480    3.153230297
    0.300500835   14.563490621   14.590635198    3.153718423
    0.307679466   14.568593551   14.595565506    3.154218767
    0.314858097   14.573821875   14.600616723    3.154731359
    0.322036728   14.579175951   14.605789178    3.155256231
    0.329215359   14.584656149   14.611083209    3.155793417
    0.336393990   14.590262846   14.616499163    3.156342952
    0.343572621   14.595996431   14.622037396    3.156904869
    0.350751252   14.601857304   14.627698274    3.157479204
    0.357929883   14.607845874   14.633482173    3.158065996
    0.365108514   14.613962562   14.639389477    3.158665283
    0.372287145   14.620207797   14.645420582    3.159277102
    0.379465776   14.626582024   14.651575893    3.159901495
    0.386644407   14.633085695   14.657855827    3.160538503
    0.393823038   14.639719275   14.664260809    3.161188169
    0.401001669   14.646483240   14.670791276    3.161850535
    0.408180301   14.653378080   14.677447676    3.162525647
    0.415358932   14.660404294   14.684230468    3.163213552
    0.422537563   14.667562396   14.691140122    3.163914295
    0.429716194   14.674852911   14.698177120    3.164627926
    0.436894825   14.682276377   14.705341956    3.165354493
    0.444073456   14.689833345   14.712635136    3.166094050
    0.451252087   14.697524381   14.720057177    3.166846647
    0.458430718   14.705350062   14.727608610    3.167612339
    0.465609349   14.713310982   14.735289980    3.168391180
    0.472787980   14.721407748   14.743101843    3.169183228
    0.479966611   14.729640981   14.751044769    3.169988541
    0.487145242   14.738011318   14.759119345    3.170807178
    0.494323873   14.746519413   14.767326168    3.171639200
    0.501502504   14.755165933   14.775665854    3.172484672
    0.508681135   14.763951564   14.784139031    3.173343657
    0.515859766   14.772877008   14.792746344    3.174216221
    0.523038397   14.781942984   14.801488455    3.175102434
    0.530217028   14.791150230   14.810366042    3.176002365
    0.537395659   14.800499502   14.819379800    3.176916085
    0.544574290   14.809991576   14.828530444    3.177843669
    0.551752922   14.819627248   14.837818705    3.178785193
    0.558931553   14.829407334   14.847245334    3.179740734
    0.566110184   14.839332671   14.856811104    3.180710373
    0.573288815   14.849404120   14.866516807    3.181694193
    0.580467446   14.859622565   14.876363258    3.182692278
    0.587646077   14.869988912   14.886351294    3.183704716
    0.594824708   14.880504094   14.896481776    3.184731595
    0.602003339   14.891169072   14.906755590    3.185773010
    0.609181970   14.901984831   14.917173648    3.186829054
    0.616360601   14.912952389   14.927736890    3.187899826
    0.623539232   14.924072791   14.938446285    3.188985426
    0.630717863   14.935347115   14.949302831    3.190085960
    0.637896494   14.946776475   14.960307560    3.191201533
    0.645075125   14.958362018   14.971461536    3.192332257
    0.652253756   14.970104930   14.982765862    3.193478246
    0.659432387   14.982006437   14.994221676    3.194639617
    0.666611018   14.994067808   15.005830160    3.195816492
    0.673789649   15.006290355   15.017592538    3.197008997
    0.680968280   15.018675442   15.029510080    3.198217262
    0.688146912   15.031224483   15.041584108    3.199441421
    0.695325543   15.043938948   15.053815996    3.200681614
    0.702504174   15.056820366   15.066207178    3.201937983
    0.709682805   15.069870334   15.078759150    3.203210680
    0.716861436   15.083090516   15.091473474    3.204499858
    0.724040067   15.096482652   15.104351791    3.205805679
    0.731218698   15.110048569   15.117395818    3.207128308
    0.738397329   15.123790180   15.130607364    3.208467919
    0.745575960   15.137709501   15.143988334    3.209824694
    0.752754591   15.151808657   15.157540741    3.211198819
    0.759933222   15.166089893   15.171266717    3.212590490
    0.767111853   15.180555591   15.185168526    3.213999912
    0.774290484   15.195208281   15.199248580    3.215427298
    0.781469115   15.210050665   15.213509456    3.216872871
    0.788647746   15.225085630   15.227953918    3.218336865
    0.795826377   15.240316280   15.242584940    3.219819525
    0.803005008   15.255745961   15.257405736    3.221321107
    0.810183639   15.271378298   15.272419795    3.222841884
    0.817362270   15.287217235   15.287630918    3.224382140
    0.824540902   15.303267084   15.303043274    3.225942176
    0.831719533   15.319532588   15.318661450    3.227522313
    0.838898164   15.336018992   15.334490532    3.229122888
    0.846076795   15.352732132   15.350536189    3.230744261
    0.853255426   15.369678551   15.366804781    3.232386819
    0.860434057   15.386865630   15.383303499    3.234050972
    0.867612688   15.404301769   15.400040532    3.235737164
    0.874791319   15.421996605   15.417025287    3.237445874
    0.881969950   15.439961295   15.434268661    3.239177622
    0.889148581   15.458208885   15.451783408    3.240932977
    0.896327212   15.476754789   15.469584599    3.242712565
    0.903505843   15.495617424   15.487690252    3.244517081
    0.910684474   15.514819068   15.506122157    3.246347301
    0.917863105   15.534387011   15.524907008    3.248204108
    0.925041736   15.554355153   15.544077951    3.250088512
    0.932220367   15.574766210   15.563676736    3.252001689
    0.939398998   15.595674819   15.583756737    3.253945031
    0.946577629   15.617151915   15.604387203    3.255920215
    0.953756260   15.639290858   15.625659215    3.257929298
    0.960934891   15.662215748   15.647693766    3.259974849
    0.968113523   15.686091545   15.670651591    3.262060105
    0.975292154   15.711131802   15.694740689    3.264189093
    0.982470785   15.737584481   15.720202593    3.266366424
    0.989649416   15.765615521   15.747199503    3.268595546
    0.996828047   15.794768442   15.775290293    3.270870616
    1.004006678   15.821790730   15.801322773    3.273143779
    1.011185309   15.834049214   15.813048549    3.275226021
    1.018363940   15.809482567   15.789077033    3.276786471
    1.025542571   15.772761693   15.753335113    3.278198114
    1.032721202   15.773323753   15.753766533    3.280207035
    1.039899833   15.798354111   15.777949357    3.282622063
    1.047078464   15.829490094   15.808082649    3.285168682
    1.054257095   15.860880380   15.838499187    3.287761011
    1.061435726   15.891410875   15.868127126    3.290384780
    1.068614357   15.921131522   15.897025463    3.293043565
    1.075792988   15.950306382   15.925463487    3.295744546
    1.082971619   15.979195857   15.953710404    3.298495300
    1.090150250   16.008019782   15.982000629    3.301303338
    1.097328881   16.036962334   16.010540047    3.304176298
    1.104507513   16.066184591   16.039520283    3.307122288
    1.111686144   16.095837075   16.069133779    3.310150276
    1.118864775   16.126071368   16.099589219    3.313270531
    1.126043406   16.157051630   16.131128616    3.316495155
    1.133222037   16.188967241   16.164048011    3.319838758
    1.140400668   16.222047900   16.198723903    3.323319340
    1.147579299   16.256582000   16.235646525    3.326959426
    1.154757930   16.292936549   16.275455448    3.330787364
    1.161936561   16.331565977   16.318949052    3.334838168
    1.169115192   16.372953802   16.366944659    3.339150981
    1.176293823   16.417258890   16.419490364    3.343751272
    1.183472454   16.462761324   16.472454489    3.348570462
    1.190651085   16.500039713   16.504804225    3.353142416
    1.197829716   16.499856523   16.452162623    3.355970962
    1.205008347   16.444898008   16.275924857    3.356193919
    1.212186978   16.415469292   16.149976009    3.358071738
    1.219365609   16.446656371   16.149569453    3.363506844
    1.226544240   16.503737463   16.198622548    3.370735563
    1.233722871   16.565753151   16.255706623    3.378605047
    1.240901503   16.616943070   16.310212467    3.385739931
    1.248080134   16.620572792   16.360267461    3.388259780
    1.255258765   16.544879107   16.406081189    3.382807343
    1.262437396   16.486606202   16.449971882    3.380101944
    1.269616027   16.508698831   16.493688919    3.387217031
    1.276794658   16.567292575   16.537327727    3.399566417
    1.283973289   16.634152716   16.581055832    3.414071297
    1.291151920   16.699699706   16.624965800    3.428577603
    1.298330551   16.751842490   16.667930220    3.436139684
    1.305509182   16.757056073   16.705526128    3.415892971
    1.312687813   16.695810045   16.735412296    3.355469858
    1.319866444   16.660698010   16.771676884    3.311494380
    1.327045075   16.691657337   16.820233155    3.308319525
    1.334223706   16.747985058   16.872725385    3.321068984
    1.341402337   16.803966580   16.913266846    3.335391764
    1.348580968   16.842417507   16.904534847    3.345186026
    1.355759599   16.859067958   16.835113190    3.349185000
    1.362938230   16.886115503   16.803321084    3.354999797
    1.370116861   16.930402018   16.831259953    3.364743230
    1.377295492   16.971186886   16.862953124    3.375002934
    1.384474124   16.992794321   16.860402541    3.383788229
    1.391652755   17.013572989   16.856180384    3.392612903
    1.398831386   17.053178986   16.887012223    3.403308149
    1.406010017   17.102282183   16.934794708    3.415391927
    1.413188648   17.153412390   16.984992735    3.428594584
    1.420367279   17.204740199   17.033741143    3.443182314
    1.427545910   17.256303129   17.080633271    3.459635777
    1.434724541   17.308552623   17.126015233    3.478380107
    1.441903172   17.361782860   17.170279104    3.498997368
    1.449081803   17.415128470   17.213600272    3.517090386
    1.456260434   17.463477686   17.255525549    3.514051985
    1.463439065   17.495338609   17.294724848    3.450327969
    1.470617696   17.517678811   17.332319675    3.350119661
    1.477796327   17.555723730   17.372191024    3.308544291
    1.484974958   17.591275401   17.413999658    3.311470727
    1.492153589   17.581939148   17.456328070    3.315001116
    1.499332220   17.544770710   17.498891455    3.311855658
    1.506510851   17.555618440   17.542044616    3.319154922
    1.513689482   17.605430580   17.585848126    3.334494073
    1.520868114   17.665848528   17.630193387    3.350916216
    1.528046745   17.726173507   17.674575712    3.365867555
    1.535225376   17.780675546   17.716767378    3.377418419
    1.542404007   17.820528595   17.751488187    3.381751965
    1.549582638   17.849041571   17.780549593    3.380476867
    1.556761269   17.889031990   17.817523540    3.384093783
    1.563939900   17.940647844   17.862376723    3.392710721
    1.571118531   17.995658746   17.910081583    3.402594372
    1.578297162   18.051045074   17.958798145    3.412395406
    1.585475793   18.106301396   18.008247287    3.421916580
    1.592654424   18.161576883   18.058591836    3.431263897
    1.599833055   18.217158055   18.110127630    3.440612025
    1.607011686   18.273352572   18.163206138    3.450150841
    1.614190317   18.330457987   18.218152220    3.460058727
    1.621368948   18.388683760   18.274913171    3.470403088
    1.628547579   18.447798920   18.331604327    3.480715255
    1.635726210   18.505996423   18.379977703    3.488651119
    1.642904841   18.559657125   18.404650440    3.489745482
    1.650083472   18.612711721   18.421252267    3.488603764
    1.657262104   18.672290534   18.463166416    3.494570937
    1.664440735   18.727403753   18.511098532    3.499446726
    1.671619366   18.751020301   18.522333364    3.484020824
    1.678797997   18.741242428   18.491385117    3.446412908
    1.685976628   18.760881655   18.495194380    3.426757640
    1.693155259   18.818780568   18.544446087    3.430599786
    1.700333890   18.890355706   18.608485311    3.441985804
    1.707512521   18.965336681   18.674256008    3.454098238
    1.714691152   19.041788709   18.738871785    3.465405232
    1.721869783   19.120050222   18.802192659    3.475806792
    1.729048414   19.200547008   18.864600959    3.485481226
    1.736227045   19.281537411   18.926316475    3.494539917
    1.743405676   19.351998280   18.986670255    3.502694413
    1.750584307   19.374388577   19.042571655    3.508570662
    1.757762938   19.311244103   19.090883166    3.510770098
    1.764941569   19.261078748   19.140496509    3.513263571
    1.772120200   19.297132195   19.198033336    3.519005511
    1.779298831   19.372792515   19.259460517    3.526189368
    1.786477462   19.456184523   19.322041873    3.533585375
    1.793656093   19.538677843   19.385099068    3.540880078
    1.800834725   19.618947053   19.448602213    3.548046325
    1.808013356   19.697336868   19.512675167    3.555121428
    1.815191987   19.774439804   19.577475397    3.562152173
    1.822370618   19.850784333   19.643173566    3.569183847
    1.829549249   19.926792534   19.709958004    3.576259966
    1.836727880   20.002796522   19.778042218    3.583423989
    1.843906511   20.079060505   19.847655880    3.590719045
    1.851085142   20.155790228   19.918956640    3.598177212
    1.858263773   20.233100508   19.991615662    3.605766181
    1.865442404   20.310837335   20.063155112    3.613173343
    1.872621035   20.388028828   20.124036563    3.619166875
    1.879799666   20.463002638   20.158647571    3.621724534
    1.886978297   20.538133795   20.187158466    3.623482298
    1.894156928   20.617391633   20.243847302    3.628913409
    1.901335559   20.699676408   20.318278681    3.636672345
    1.908514190   20.783623928   20.397676732    3.645110792
    1.915692821   20.868876679   20.478119853    3.653735424
    1.922871452   20.955450642   20.558930909    3.662478493
    1.930050083   21.043460622   20.640227874    3.671380035
    1.937228715   21.133050837   20.722280338    3.680505486
    1.944407346   21.224383031   20.805365190    3.689928761
    1.951585977   21.317640005   20.889746077    3.699732142
    1.958764608   21.413034506   20.975682392    3.710011007
    1.965943239   21.510821640   21.063445086    3.720880794
    1.973121870   21.611314873   21.153334696    3.732485940
    1.980300501   21.714904727   21.245701364    3.745010492
    1.987479132   21.822072506   21.340966143    3.758687162
    1.994657763   21.933363271   21.439635581    3.773788865
    2.001836394   22.049169586   21.542270389    3.790535496
    2.009015025   22.168736324   21.649245049    3.808647191
    2.016193656   22.286450103   21.759764289    3.825650904
    2.023372287   22.384887688   21.870134260    3.833539019
    2.030550918   22.456014273   21.980435633    3.827556624
    2.037729549   22.545705755   22.103826431    3.827954424
    2.044908180   22.673990732   22.237402628    3.844771685
    2.052086811   22.808339962   22.346338922    3.856037158
    2.059265442   22.893037131   22.346672173    3.818325005
    2.066444073   22.892351903   22.215424814    3.720338548
    2.073622705   22.900315959   22.152625310    3.648639428
    2.080801336   23.004199672   22.238147113    3.639309946
    2.087979967   23.171550159   22.396990955    3.660574798
    2.095158598   23.356761462   22.571941874    3.688056585
    2.102337229   23.524994451   22.724816279    3.714151620
    2.109515860   23.605903973   22.780031788    3.736644288
    2.116694491   23.545135291   22.677384556    3.754291627
    2.123873122   23.519828259   22.602273281    3.768662639
    2.131051753   23.638200673   22.676556333    3.783794756
    2.138230384   23.820528876   22.828440423    3.801146782
    2.145409015   23.983369149   22.994540168    3.818231040
    2.152587646   24.060359017   23.147948719    3.832520287
    2.159766277   24.115075008   23.296828713    3.846243189
    2.166944908   24.260677584   23.461066088    3.863453638
    2.174123539   24.465384197   23.637419732    3.883297486
    2.181302170   24.688953369   23.820592528    3.904583612
    2.188480801   24.916193744   24.006012113    3.926664997
    2.195659432   25.131638108   24.179354245    3.948074776
    2.202838063   25.311345608   24.315405670    3.967472629
    2.210016694   25.416336034   24.382789300    3.985905963
    2.217195326   25.447453284   24.407803404    4.007505696
    2.224373957   25.569684172   24.525656625    4.037254561
    2.231552588   25.801391385   24.719403836    4.065077863
    2.238731219   26.037542263   24.865282027    4.058617965
    2.245909850   26.190057899   24.859175613    3.977316014
    2.253088481   26.283643322   24.828965028    3.886227334
    2.260267112   26.306146994   24.829554976    3.852075761
    2.267445743   26.256928896   24.739088446    3.839436490
    2.274624374   26.367280519   24.735057564    3.849322881
    2.281803005   26.637165318   24.908717633    3.880359690
    2.288981636   26.919332100   25.133379206    3.913678271
    2.296160267   27.094359325   25.312435817    3.935578830
    2.303338898   27.224738078   25.462871850    3.951874969
    2.310517529   27.445186649   25.640802949    3.975987021
    2.317696160   27.632314681   25.790123402    3.996643838
    2.324874791   27.666129000   25.917238758    4.001015501
    2.332053422   27.697053638   26.102699921    4.003699875
    2.339232053   27.930563135   26.343454356    4.027315041
    2.346410684   28.291289382   26.604700516    4.063866563
    2.353589316   28.670819831   26.861913104    4.098250020
    2.360767947   29.003993949   27.089151821    4.116511362
    2.367946578   29.281556087   27.277317436    4.120844642
    2.375125209   29.560878731   27.452080684    4.122878434
    2.382303840   29.905605261   27.650085541    4.126154165
    2.389482471   30.239795703   27.832834078    4.105349751
    2.396661102   30.491417576   28.031233631    4.071508869
    2.403839733   30.800594592   28.287976100    4.074934523
    2.411018364   31.220990014   28.500022689    4.114557427
    2.418196995   31.615935737   28.583700829    4.149380179
    2.425375626   31.901744259   28.602718857    4.132624358
    2.432554257   32.170640630   28.651901040    4.074986540
    2.439732888   32.517286425   28.842326934    4.053268369
    2.446911519   32.662564573   29.085480315    4.051963229
    2.454090150   32.642323913   29.369217134    4.052728419
    2.461268781   32.981890486   29.712170419    4.073566627
    2.468447412   33.581059744   29.999750530    4.083127885
    2.475626043   34.186669533   30.146712394    4.060805381
    2.482804674   34.761463533   30.327377367    4.028066712
    2.489983306   35.200025074   30.605455093    4.023327679
    2.497161937   34.888325935   30.844763331    4.034741189
    2.504340568   33.677276533   30.928595942    4.017701663
    2.511519199   33.156929865   30.923830325    3.991500433
    2.518697830   33.715448181   31.105369710    3.996600418
    2.525876461   34.732113419   31.492530023    4.029869201
    2.533055092   35.825570776   31.937743182    4.073618270
    2.540233723   36.864051909   32.391849255    4.114195264
