# energy grid [eV]     ieps_x  ieps_y  ieps_z
#
    0.200000000    9.054046775    9.101190224    1.459343857
    0.207178631    9.051984178    9.099193728    1.459228983
    0.214357262    9.049850172    9.097128043    1.459110152
    0.221535893    9.047644891    9.094993296    1.458987374
    0.228714524    9.045368476    9.092789612    1.458860658
    0.235893155    9.043021069    9.090517125    1.458730014
    0.243071786    9.040602818    9.088175969    1.458595453
    0.250250417    9.038113875    9.085766284    1.458456986
    0.257429048    9.035554395    9.083288212    1.458314622
    0.264607679    9.032924539    9.080741902    1.458168374
    0.271786311    9.030224470    9.078127502    1.458018253
    0.278964942    9.027454357    9.075445168    1.457864270
    0.286143573    9.024614372    9.072695057    1.457706436
    0.293322204    9.021704689    9.069877330    1.457544766
    0.300500835    9.018725490    9.066992154    1.457379270
    0.307679466    9.015676957    9.064039696    1.457209961
    0.314858097    9.012559278    9.061020129    1.457036853
    0.322036728    9.009372645    9.057933629    1.456859957
    0.329215359    9.006117251    9.054780373    1.456679289
    0.336393990    9.002793296    9.051560546    1.456494860
    0.343572621    8.999400982    9.048274333    1.456306685
    0.350751252    8.995940515    9.044921922    1.456114778
    0.357929883    8.992412105    9.041503507    1.455919153
    0.365108514    8.988815963    9.038019284    1.455719824
    0.372287145    8.985152307    9.034469451    1.455516806
    0.379465776    8.981421357    9.030854210    1.455310113
    0.386644407    8.977623335    9.027173768    1.455099761
    0.393823038    8.973758469    9.023428332    1.454885765
    0.401001669    8.969826989    9.019618114    1.454668140
    0.408180301    8.965829127    9.015743328    1.454446901
    0.415358932    8.961765120    9.011804193    1.454222065
    0.422537563    8.957635208    9.007800929    1.453993646
    0.429716194    8.953439633    9.003733759    1.453761662
    0.436894825    8.949178643    8.999602910    1.453526127
    0.444073456    8.944852484    8.995408610    1.453287060
    0.451252087    8.940461410    8.991151093    1.453044475
    0.458430718    8.936005675    8.986830593    1.452798389
    0.465609349    8.931485538    8.982447347    1.452548820
    0.472787980    8.926901258    8.978001596    1.452295784
    0.479966611    8.922253100    8.973493582    1.452039299
    0.487145242    8.917541330    8.968923552    1.451779380
    0.494323873    8.912766217    8.964291753    1.451516047
    0.501502504    8.907928033    8.959598437    1.451249315
    0.508681135    8.903027053    8.954843856    1.450979203
    0.515859766    8.898063553    8.950028266    1.450705729
    0.523038397    8.893037814    8.945151926    1.450428909
    0.530217028    8.887950117    8.940215095    1.450148762
    0.537395659    8.882800747    8.935218038    1.449865306
    0.544574290    8.877589993    8.930161018    1.449578559
    0.551752922    8.872318142    8.925044303    1.449288539
    0.558931553    8.866985488    8.919868164    1.448995264
    0.566110184    8.861592324    8.914632872    1.448698753
    0.573288815    8.856138947    8.909338702    1.448399023
    0.580467446    8.850625657    8.903985929    1.448096095
    0.587646077    8.845052753    8.898574833    1.447789985
    0.594824708    8.839420539    8.893105693    1.447480713
    0.602003339    8.833729321    8.887578792    1.447168298
    0.609181970    8.827979406    8.881994414    1.446852758
    0.616360601    8.822171103    8.876352847    1.446534112
    0.623539232    8.816304724    8.870654378    1.446212379
    0.630717863    8.810380582    8.864899297    1.445887578
    0.637896494    8.804398991    8.859087897    1.445559728
    0.645075125    8.798360270    8.853220472    1.445228849
    0.652253756    8.792264738    8.847297317    1.444894959
    0.659432387    8.786112714    8.841318730    1.444558077
    0.666611018    8.779904522    8.835285009    1.444218223
    0.673789649    8.773640485    8.829196456    1.443875416
    0.680968280    8.767320929    8.823053372    1.443529676
    0.688146912    8.760946182    8.816856063    1.443181021
    0.695325543    8.754516572    8.810604833    1.442829471
    0.702504174    8.748032431    8.804299990    1.442475046
    0.709682805    8.741494090    8.797941842    1.442117765
    0.716861436    8.734901883    8.791530699    1.441757647
    0.724040067    8.728256144    8.785066873    1.441394712
    0.731218698    8.721557210    8.778550677    1.441028980
    0.738397329    8.714805419    8.771982424    1.440660470
    0.745575960    8.708001109    8.765362430    1.440289201
    0.752754591    8.701144621    8.758691013    1.439915193
    0.759933222    8.694236296    8.751968490    1.439538466
    0.767111853    8.687276477    8.745195180    1.439159039
    0.774290484    8.680265507    8.738371404    1.438776932
    0.781469115    8.673203731    8.731497483    1.438392165
    0.788647746    8.666091496    8.724573741    1.438004757
    0.795826377    8.658929148    8.717600501    1.437614728
    0.803005008    8.651717035    8.710578087    1.437222097
    0.810183639    8.644455507    8.703506827    1.436826884
    0.817362270    8.637144912    8.696387046    1.436429108
    0.824540902    8.629785603    8.689219073    1.436028790
    0.831719533    8.622377930    8.682003236    1.435625949
    0.838898164    8.614922246    8.674739865    1.435220604
    0.846076795    8.607418904    8.667429290    1.434812775
    0.853255426    8.599868258    8.660071843    1.434402482
    0.860434057    8.592270663    8.652667856    1.433989744
    0.867612688    8.584626474    8.645217661    1.433574581
    0.874791319    8.576936047    8.637721593    1.433157012
    0.881969950    8.569199739    8.630179985    1.432737057
    0.889148581    8.561417907    8.622593173    1.432314735
    0.896327212    8.553590909    8.614961491    1.431890067
    0.903505843    8.545719102    8.607285278    1.431463070
    0.910684474    8.537802846    8.599564868    1.431033765
    0.917863105    8.529842499    8.591800600    1.430602172
    0.925041736    8.521838422    8.583992811    1.430168309
    0.932220367    8.513790973    8.576141839    1.429732196
    0.939398998    8.505700514    8.568248024    1.429293852
    0.946577629    8.497567405    8.560311704    1.428853297
    0.953756260    8.489392006    8.552333220    1.428410549
    0.960934891    8.481174679    8.544312911    1.427965629
    0.968113523    8.472915784    8.536251117    1.427518556
    0.975292154    8.464615684    8.528148179    1.427069348
    0.982470785    8.456274740    8.520004438    1.426618025
    0.989649416    8.447893313    8.511820236    1.426164605
    0.996828047    8.439471765    8.503595912    1.425709109
    1.004006678    8.431010459    8.495331810    1.425251555
    1.011185309    8.422509755    8.487028270    1.424791961
    1.018363940    8.413970016    8.478685635    1.424330348
    1.025542571    8.405391604    8.470304246    1.423866734
    1.032721202    8.396774880    8.461884446    1.423401138
    1.039899833    8.388120205    8.453426576    1.422933578
    1.047078464    8.379427942    8.444930979    1.422464075
    1.054257095    8.370698451    8.436397997    1.421992645
    1.061435726    8.361932095    8.427827972    1.421519309
    1.068614357    8.353129233    8.419221246    1.421044084
    1.075792988    8.344290226    8.410578162    1.420566990
    1.082971619    8.335415435    8.401899060    1.420088045
    1.090150250    8.326505221    8.393184282    1.419607268
    1.097328881    8.317559942    8.384434171    1.419124677
    1.104507513    8.308579958    8.375649068    1.418640290
    1.111686144    8.299565629    8.366829314    1.418154126
    1.118864775    8.290517313    8.357975249    1.417666204
    1.126043406    8.281435368    8.349087215    1.417176542
    1.133222037    8.272320152    8.340165552    1.416685157
    1.140400668    8.263172023    8.331210601    1.416192069
    1.147579299    8.253991337    8.322222700    1.415697295
    1.154757930    8.244778450    8.313202190    1.415200853
    1.161936561    8.235533719    8.304149409    1.414702762
    1.169115192    8.226257499    8.295064696    1.414203039
    1.176293823    8.216950144    8.285948391    1.413701703
    1.183472454    8.207612007    8.276800829    1.413198771
    1.190651085    8.198243443    8.267622350    1.412694262
    1.197829716    8.188844804    8.258413289    1.412188192
    1.205008347    8.179416442    8.249173983    1.411680580
    1.212186978    8.169958708    8.239904768    1.411171444
    1.219365609    8.160471953    8.230605979    1.410660800
    1.226544240    8.150956526    8.221277951    1.410148668
    1.233722871    8.141412776    8.211921018    1.409635063
    1.240901503    8.131841052    8.202535513    1.409120004
    1.248080134    8.122241700    8.193121770    1.408603507
    1.255258765    8.112615068    8.183680121    1.408085591
    1.262437396    8.102961501    8.174210897    1.407566272
    1.269616027    8.093281343    8.164714429    1.407045568
    1.276794658    8.083574938    8.155191047    1.406523496
    1.283973289    8.073842630    8.145641081    1.406000073
    1.291151920    8.064084760    8.136064859    1.405475316
    1.298330551    8.054301669    8.126462709    1.404949241
    1.305509182    8.044493697    8.116834958    1.404421867
    1.312687813    8.034661183    8.107181933    1.403893209
    1.319866444    8.024804466    8.097503958    1.403363284
    1.327045075    8.014923882    8.087801359    1.402832109
    1.334223706    8.005019767    8.078074460    1.402299702
    1.341402337    7.995092456    8.068323582    1.401766077
    1.348580968    7.985142282    8.058549049    1.401231253
    1.355759599    7.975169579    8.048751181    1.400695244
    1.362938230    7.965174678    8.038930298    1.400158069
    1.370116861    7.955157909    8.029086719    1.399619742
    1.377295492    7.945119601    8.019220763    1.399080280
    1.384474124    7.935060083    8.009332747    1.398539700
    1.391652755    7.924979682    7.999422987    1.397998018
    1.398831386    7.914878722    7.989491799    1.397455249
    1.406010017    7.904757529    7.979539496    1.396911409
    1.413188648    7.894616426    7.969566392    1.396366516
    1.420367279    7.884455735    7.959572798    1.395820583
    1.427545910    7.874275777    7.949559027    1.395273628
    1.434724541    7.864076871    7.939525387    1.394725665
    1.441903172    7.853859335    7.929472189    1.394176711
    1.449081803    7.843623487    7.919399738    1.393626781
    1.456260434    7.833369642    7.909308343    1.393075890
    1.463439065    7.823098114    7.899198309    1.392524055
    1.470617696    7.812809216    7.889069940    1.391971290
    1.477796327    7.802503260    7.878923538    1.391417610
    1.484974958    7.792180557    7.868759408    1.390863032
    1.492153589    7.781841415    7.858577848    1.390307569
    1.499332220    7.771486141    7.848379159    1.389751238
    1.506510851    7.761115043    7.838163640    1.389194053
    1.513689482    7.750728424    7.827931586    1.388636029
    1.520868114    7.740326588    7.817683296    1.388077180
    1.528046745    7.729909837    7.807419062    1.387517523
    1.535225376    7.719478472    7.797139180    1.386957071
    1.542404007    7.709032791    7.786843940    1.386395840
    1.549582638    7.698573093    7.776533634    1.385833843
    1.556761269    7.688099673    7.766208552    1.385271095
    1.563939900    7.677612826    7.755868982    1.384707611
    1.571118531    7.667112846    7.745515210    1.384143406
    1.578297162    7.656600024    7.735147524    1.383578492
    1.585475793    7.646074651    7.724766208    1.383012885
    1.592654424    7.635537016    7.714371543    1.382446600
    1.599833055    7.624987405    7.703963814    1.381879648
    1.607011686    7.614426104    7.693543298    1.381312046
    1.614190317    7.603853399    7.683110277    1.380743807
    1.621368948    7.593269571    7.672665028    1.380174944
    1.628547579    7.582674902    7.662207827    1.379605472
    1.635726210    7.572069672    7.651738948    1.379035404
    1.642904841    7.561454159    7.641258667    1.378464754
    1.650083472    7.550828639    7.630767254    1.377893536
    1.657262104    7.540193387    7.620264981    1.377321762
    1.664440735    7.529548678    7.609752118    1.376749446
    1.671619366    7.518894782    7.599228931    1.376176603
    1.678797997    7.508231971    7.588695689    1.375603244
    1.685976628    7.497560513    7.578152656    1.375029383
    1.693155259    7.486880676    7.567600095    1.374455034
    1.700333890    7.476192725    7.557038270    1.373880209
    1.707512521    7.465496924    7.546467441    1.373304921
    1.714691152    7.454793536    7.535887867    1.372729184
    1.721869783    7.444082822    7.525299807    1.372153010
    1.729048414    7.433365041    7.514703518    1.371576411
    1.736227045    7.422640450    7.504099253    1.370999401
    1.743405676    7.411909307    7.493487268    1.370421992
    1.750584307    7.401171865    7.482867813    1.369844197
    1.757762938    7.390428377    7.472241141    1.369266028
    1.764941569    7.379679095    7.461607499    1.368687498
    1.772120200    7.368924269    7.450967136    1.368108618
    1.779298831    7.358164145    7.440320299    1.367529401
    1.786477462    7.347398972    7.429667232    1.366949860
    1.793656093    7.336628994    7.419008177    1.366370006
    1.800834725    7.325854454    7.408343378    1.365789851
    1.808013356    7.315075594    7.397673075    1.365209408
    1.815191987    7.304292654    7.386997506    1.364628687
    1.822370618    7.293505871    7.376316908    1.364047702
    1.829549249    7.282715484    7.365631519    1.363466463
    1.836727880    7.271921727    7.354941571    1.362884983
    1.843906511    7.261124834    7.344247298    1.362303272
    1.851085142    7.250325037    7.333548931    1.361721343
    1.858263773    7.239522565    7.322846700    1.361139206
    1.865442404    7.228717648    7.312140834    1.360556874
    1.872621035    7.217910513    7.301431559    1.359974357
    1.879799666    7.207101385    7.290719100    1.359391667
    1.886978297    7.196290488    7.280003683    1.358808815
    1.894156928    7.185478044    7.269285527    1.358225811
    1.901335559    7.174664275    7.258564856    1.357642667
    1.908514190    7.163849398    7.247841887    1.357059394
    1.915692821    7.153033631    7.237116840    1.356476002
    1.922871452    7.142217190    7.226389929    1.355892503
    1.930050083    7.131400289    7.215661370    1.355308906
    1.937228715    7.120583141    7.204931376    1.354725223
    1.944407346    7.109765957    7.194200160    1.354141465
    1.951585977    7.098948945    7.183467930    1.353557641
    1.958764608    7.088132314    7.172734896    1.352973761
    1.965943239    7.077316270    7.162001266    1.352389838
    1.973121870    7.066501017    7.151267244    1.351805879
    1.980300501    7.055686758    7.140533036    1.351221897
    1.987479132    7.044873694    7.129798843    1.350637900
    1.994657763    7.034062026    7.119064868    1.350053899
    2.001836394    7.023251951    7.108331309    1.349469904
    2.009015025    7.012443666    7.097598366    1.348885925
    2.016193656    7.001637366    7.086866235    1.348301971
    2.023372287    6.990833245    7.076135111    1.347718053
    2.030550918    6.980031493    7.065405187    1.347134179
    2.037729549    6.969232302    7.054676657    1.346550360
    2.044908180    6.958435859    7.043949711    1.345966605
    2.052086811    6.947642353    7.033224538    1.345382924
    2.059265442    6.936851969    7.022501326    1.344799326
    2.066444073    6.926064890    7.011780262    1.344215819
    2.073622705    6.915281299    7.001061530    1.343632415
    2.080801336    6.904501378    6.990345313    1.343049121
    2.087979967    6.893725305    6.979631794    1.342465947
    2.095158598    6.882953257    6.968921153    1.341882901
    2.102337229    6.872185413    6.958213569    1.341299994
    2.109515860    6.861421945    6.947509219    1.340717233
    2.116694491    6.850663028    6.936808280    1.340134628
    2.123873122    6.839908832    6.926110926    1.339552186
    2.131051753    6.829159529    6.915417330    1.338969918
    2.138230384    6.818415286    6.904727664    1.338387832
    2.145409015    6.807676272    6.894042098    1.337805935
    2.152587646    6.796942651    6.883360801    1.337224237
    2.159766277    6.786214588    6.872683940    1.336642746
    2.166944908    6.775492244    6.862011681    1.336061471
    2.174123539    6.764775783    6.851344189    1.335480419
    2.181302170    6.754065362    6.840681627    1.334899599
    2.188480801    6.743361141    6.830024156    1.334319019
    2.195659432    6.732663275    6.819371937    1.333738687
    2.202838063    6.721971921    6.808725128    1.333158611
    2.210016694    6.711287232    6.798083887    1.332578799
    2.217195326    6.700609359    6.787448369    1.331999259
    2.224373957    6.689938455    6.776818730    1.331419998
    2.231552588    6.679274669    6.766195122    1.330841025
    2.238731219    6.668618148    6.755577698    1.330262348
    2.245909850    6.657969039    6.744966608    1.329683972
    2.253088481    6.647327487    6.734362000    1.329105907
    2.260267112    6.636693636    6.723764023    1.328528160
    2.267445743    6.626067628    6.713172822    1.327950738
    2.274624374    6.615449604    6.702588543    1.327373648
    2.281803005    6.604839703    6.692011330    1.326796899
    2.288981636    6.594238063    6.681441323    1.326220496
    2.296160267    6.583644822    6.670878665    1.325644447
    2.303338898    6.573060114    6.660323494    1.325068759
    2.310517529    6.562484073    6.649775949    1.324493440
    2.317696160    6.551916832    6.639236167    1.323918496
    2.324874791    6.541358522    6.628704283    1.323343934
    2.332053422    6.530809273    6.618180431    1.322769761
    2.339232053    6.520269212    6.607664745    1.322195983
    2.346410684    6.509738468    6.597157354    1.321622609
    2.353589316    6.499217166    6.586658391    1.321049643
    2.360767947    6.488705430    6.576167983    1.320477092
    2.367946578    6.478203383    6.565686259    1.319904964
    2.375125209    6.467711148    6.555213344    1.319333265
    2.382303840    6.457228844    6.544749364    1.318762000
    2.389482471    6.446756590    6.534294443    1.318191177
    2.396661102    6.436294506    6.523848702    1.317620802
    2.403839733    6.425842706    6.513412263    1.317050881
    2.411018364    6.415401307    6.502985246    1.316481419
    2.418196995    6.404970422    6.492567770    1.315912424
    2.425375626    6.394550163    6.482159952    1.315343901
    2.432554257    6.384140644    6.471761908    1.314775856
    2.439732888    6.373741972    6.461373754    1.314208295
    2.446911519    6.363354258    6.450995602    1.313641224
    2.454090150    6.352977609    6.440627566    1.313074648
    2.461268781    6.342612132    6.430269756    1.312508574
    2.468447412    6.332257931    6.419922283    1.311943008
    2.475626043    6.321915110    6.409585255    1.311377954
    2.482804674    6.311583773    6.399258781    1.310813418
    2.489983306    6.301264020    6.388942966    1.310249407
    2.497161937    6.290955953    6.378637916    1.309685925
    2.504340568    6.280659669    6.368343735    1.309122977
    2.511519199    6.270375268    6.358060525    1.308560570
    2.518697830    6.260102846    6.347788389    1.307998707
    2.525876461    6.249842497    6.337527427    1.307437396
    2.533055092    6.239594318    6.327277738    1.306876640
    2.540233723    6.229358400    6.317039421    1.306316445
