# energy grid [eV]     epsr_x  epsr_y  epsr_z
#
    0.200000000   12.124197426   11.064877785   13.622998288
    0.207178631   12.126907342   11.067207078   13.626145132
    0.214357262   12.129714569   11.069620085   13.629405076
    0.221535893   12.132619293   11.072116973   13.632778348
    0.228714524   12.135621706   11.074697919   13.636265184
    0.235893155   12.138722008   11.077363103   13.639865830
    0.243071786   12.141920408   11.080112713   13.643580538
    0.250250417   12.145217118   11.082946944   13.647409571
    0.257429048   12.148612362   11.085865998   13.651353202
    0.264607679   12.152106367   11.088870083   13.655411712
    0.271786311   12.155699369   11.091959414   13.659585390
    0.278964942   12.159391613   11.095134215   13.663874536
    0.286143573   12.163183350   11.098394714   13.668279459
    0.293322204   12.167074839   11.101741150   13.672800480
    0.300500835   12.171066346   11.105173766   13.677437925
    0.307679466   12.175158146   11.108692815   13.682192135
    0.314858097   12.179350522   11.112298556   13.687063459
    0.322036728   12.183643764   11.115991258   13.692052256
    0.329215359   12.188038172   11.119771197   13.697158895
    0.336393990   12.192534052   11.123638655   13.702383759
    0.343572621   12.197131720   11.127593927   13.707727239
    0.350751252   12.201831500   11.131637312   13.713189738
    0.357929883   12.206633727   11.135769120   13.718771671
    0.365108514   12.211538740   11.139989670   13.724473463
    0.372287145   12.216546893   11.144299290   13.730295554
    0.379465776   12.221658544   11.148698316   13.736238393
    0.386644407   12.226874064   11.153187096   13.742302443
    0.393823038   12.232193832   11.157765985   13.748488180
    0.401001669   12.237618236   11.162435350   13.754796092
    0.408180301   12.243147677   11.167195568   13.761226683
    0.415358932   12.248782563   11.172047027   13.767780467
    0.422537563   12.254523314   11.176990125   13.774457976
    0.429716194   12.260370359   11.182025271   13.781259753
    0.436894825   12.266324142   11.187152887   13.788186359
    0.444073456   12.272385113   11.192373406   13.795238368
    0.451252087   12.278553737   11.197687274   13.802416373
    0.458430718   12.284830489   11.203094948   13.809720980
    0.465609349   12.291215857   11.208596901   13.817152815
    0.472787980   12.297710341   11.214193617   13.824712518
    0.479966611   12.304314453   11.219885596   13.832400752
    0.487145242   12.311028720   11.225673351   13.840218193
    0.494323873   12.317853681   11.231557411   13.848165542
    0.501502504   12.324789888   11.237538321   13.856243517
    0.508681135   12.331837910   11.243616642   13.864452857
    0.515859766   12.338998328   11.249792952   13.872794326
    0.523038397   12.346271741   11.256067848   13.881268706
    0.530217028   12.353658761   11.262441942   13.889876807
    0.537395659   12.361160018   11.268915870   13.898619461
    0.544574290   12.368776160   11.275490285   13.907497528
    0.551752922   12.376507849   11.282165863   13.916511895
    0.558931553   12.384355770   11.288943300   13.925663475
    0.566110184   12.392320624   11.295823319   13.934953215
    0.573288815   12.400403132   11.302806664   13.944382090
    0.580467446   12.408604038   11.309894105   13.953951110
    0.587646077   12.416924104   11.317086443   13.963661320
    0.594824708   12.425364117   11.324384503   13.973513801
    0.602003339   12.433924889   11.331789143   13.983509673
    0.609181970   12.442607254   11.339301253   13.993650100
    0.616360601   12.451412074   11.346921756   14.003936286
    0.623539232   12.460340238   11.354651612   14.014369486
    0.630717863   12.469392664   11.362491820   14.024951002
    0.637896494   12.478570301   11.370443418   14.035682190
    0.645075125   12.487874130   11.378507491   14.046564463
    0.652253756   12.497305168   11.386685168   14.057599297
    0.659432387   12.506864466   11.394977629   14.068788230
    0.666611018   12.516553117   11.403386109   14.080132873
    0.673789649   12.526372252   11.411911901   14.091634914
    0.680968280   12.536323051   11.420556359   14.103296120
    0.688146912   12.546406737   11.429320906   14.115118351
    0.695325543   12.556624588   11.438207036   14.127103562
    0.702504174   12.566977935   11.447216327   14.139253812
    0.709682805   12.577468169   11.456350438   14.151571278
    0.716861436   12.588096745   11.465611127   14.164058262
    0.724040067   12.598865190   11.475000251   14.176717202
    0.731218698   12.609775105   11.484519782   14.189550691
    0.738397329   12.620828176   11.494171816   14.202561487
    0.745575960   12.632026177   11.503958585   14.215752536
    0.752754591   12.643370987   11.513882474   14.229126987
    0.759933222   12.654864590   11.523946034   14.242688222
    0.767111853   12.666509096   11.534152002   14.256439875
    0.774290484   12.678306750   11.544503324   14.270385869
    0.781469115   12.690259947   11.555003179   14.284530451
    0.788647746   12.702371252   11.565655009   14.298878229
    0.795826377   12.714643420   11.576462550   14.313434226
    0.803005008   12.727079420   11.587429873   14.328203937
    0.810183639   12.739682465   11.598561431   14.343193390
    0.817362270   12.752456043   11.609862110   14.358409233
    0.824540902   12.765403963   11.621337298   14.373858822
    0.831719533   12.778530394   11.632992958   14.389550340
    0.838898164   12.791839930   11.644835719   14.405492927
    0.846076795   12.805337656   11.656872992   14.421696849
    0.853255426   12.819029229   11.669113097   14.438173696
    0.860434057   12.832920986   11.681565434   14.454936625
    0.867612688   12.847020066   11.694240680   14.472000668
    0.874791319   12.861334568   11.707151040   14.489383102
    0.881969950   12.875873747   11.720310561   14.507103926
    0.889148581   12.890648259   11.733735522   14.525186456
    0.896327212   12.905670479   11.747444942   14.543658084
    0.903505843   12.920954904   11.761461218   14.562551261
    0.910684474   12.936518678   11.775810962   14.581904774
    0.917863105   12.952382286   11.790526102   14.601765426
    0.925041736   12.968570472   11.805645334   14.622190271
    0.932220367   12.985113476   11.821216085   14.643249626
    0.939398998   13.002048718   11.837297176   14.665031182
    0.946577629   13.019423123   11.853962494   14.687645663
    0.953756260   13.037296356   11.871306102   14.711234741
    0.960934891   13.055745381   11.889449425   14.735982150
    0.968113523   13.074870875   11.908551367   14.762129378
    0.975292154   13.094806173   11.928822400   14.789997528
    0.982470785   13.115729179   11.950543326   14.820016442
    0.989649416   13.137875969   11.974086703   14.852757953
    0.996828047   13.161547297   11.999927184   14.888951766
    1.004006678   13.187069280   12.028579982   14.929389063
    1.011185309   13.214550799   12.060220534   14.974328230
    1.018363940   13.242811156   12.093002640   15.020868283
    1.025542571   13.265253015   12.116585006   15.052840535
    1.032721202   13.259674015   12.096149948   15.015854513
    1.039899833   13.203514805   11.996322356   14.854643904
    1.047078464   13.154539878   11.907728143   14.710673459
    1.054257095   13.156774701   11.899446252   14.691755392
    1.061435726   13.182739591   11.928396916   14.730565342
    1.068614357   13.213404952   11.964763132   14.780471645
    1.075792988   13.243609368   12.000492369   14.828804473
    1.082971619   13.272576865   12.034425684   14.873628777
    1.090150250   13.300550494   12.067022637   14.915496977
    1.097328881   13.327945767   12.099041113   14.955372636
    1.104507513   13.355170668   12.131265251   14.994185773
    1.111686144   13.382607960   12.164489170   15.032785271
    1.118864775   13.410627439   12.199540336   15.071967111
    1.126043406   13.439569178   12.237213031   15.112447016
    1.133222037   13.469576873   12.277771997   15.154534009
    1.140400668   13.499827708   12.318718217   15.196602553
    1.147579299   13.525585058   12.346274624   15.229234368
    1.154757930   13.531454081   12.315915761   15.221809019
    1.161936561   13.504924704   12.191446937   15.149433939
    1.169115192   13.487276305   12.091907654   15.094165132
    1.176293823   13.502657681   12.086897459   15.103987006
    1.183472454   13.532275333   12.122081564   15.141486614
    1.190651085   13.564678765   12.164307164   15.183841197
    1.197829716   13.596901204   12.204891349   15.225084371
    1.205008347   13.628560775   12.242592520   15.264373831
    1.212186978   13.659866692   12.277850154   15.302022826
    1.219365609   13.691123644   12.311346454   15.338509280
    1.226544240   13.722628303   12.343696963   15.374262562
    1.233722871   13.754662099   12.375415179   15.409638839
    1.240901503   13.787507020   12.406938116   15.444938123
    1.248080134   13.821467508   12.438661519   15.480427621
    1.255258765   13.856896062   12.470974560   15.516364240
    1.262437396   13.894223923   12.504294001   15.553016216
    1.269616027   13.933998043   12.539098682   15.590684834
    1.276794658   13.976919750   12.575958903   15.629724551
    1.283973289   14.023855260   12.615528085   15.670547904
    1.291151920   14.075687513   12.658356984   15.713554456
    1.298330551   14.132480462   12.703967322   15.758737032
    1.305509182   14.189935757   12.747093213   15.804030364
    1.312687813   14.227541791   12.766527842   15.839981631
    1.319866444   14.191892698   12.722590934   15.844074594
    1.327045075   14.041357174   12.623711029   15.804225254
    1.334223706   13.891248817   12.553627730   15.768898155
    1.341402337   13.870755895   12.559977066   15.785979159
    1.348580968   13.923354140   12.604220266   15.832116611
    1.355759599   13.993771204   12.656644735   15.885592969
    1.362938230   14.065916168   12.709019203   15.940228104
    1.370116861   14.137008732   12.760368886   15.995308523
    1.377295492   14.205026066   12.811341474   16.051436342
    1.384474124   14.258128368   12.862353152   16.109228836
    1.391652755   14.256645581   12.912278474   16.168513382
    1.398831386   14.171332088   12.960733761   16.229686416
    1.406010017   14.111992719   13.015685202   16.298154957
    1.413188648   14.136872030   13.081219212   16.376576621
    1.420367279   14.196347476   13.150603198   16.458562418
    1.427545910   14.257258272   13.199974196   16.516549440
    1.434724541   14.296656042   13.153663509   16.460348903
    1.441903172   14.297388424   12.933482117   16.196532258
    1.449081803   14.300879798   12.734855576   15.958359491
    1.456260434   14.339991001   12.711076574   15.928755489
    1.463439065   14.396115523   12.769011394   15.996347502
    1.470617696   14.456421338   12.843252669   16.082849328
    1.477796327   14.518040680   12.916145094   16.166981809
    1.484974958   14.581111235   12.985121194   16.245530568
    1.492153589   14.645485765   13.050652881   16.319266403
    1.499332220   14.706494055   13.111624827   16.388681760
    1.506510851   14.742690127   13.159079186   16.450705802
    1.513689482   14.705498834   13.171339794   16.496390977
    1.520868114   14.617787800   13.159599703   16.530966207
    1.528046745   14.601100506   13.180438957   16.578112025
    1.535225376   14.647829703   13.230113680   16.628531730
    1.542404007   14.710317830   13.285720837   16.656999904
    1.549582638   14.774124985   13.342643069   16.673861273
    1.556761269   14.840014016   13.405832765   16.710332788
    1.563939900   14.901659795   13.474075835   16.743098243
    1.571118531   14.956212137   13.546430138   16.752669649
    1.578297162   15.019937443   13.626925220   16.778267575
    1.585475793   15.096373442   13.714383609   16.832346332
    1.592654424   15.167987397   13.790145952   16.896938955
    1.599833055   15.187527441   13.785261564   16.963128421
    1.607011686   15.075726780   13.578149807   17.028327890
    1.614190317   14.917894649   13.300428345   17.094105620
    1.621368948   14.892227216   13.226941770   17.163116680
    1.628547579   14.953941731   13.288279504   17.231904452
    1.635726210   15.032338665   13.375156499   17.285351316
    1.642904841   15.094087013   13.436275578   17.287798895
    1.650083472   15.137805305   13.469352268   17.246739592
    1.657262104   15.194793657   13.522525967   17.254658433
    1.664440735   15.259957972   13.592911213   17.314659648
    1.671619366   15.296995108   13.641226839   17.387227666
    1.678797997   15.275723271   13.634617274   17.446009122
    1.685976628   15.251687320   13.606887462   17.464343041
    1.693155259   15.269198037   13.593516300   17.440991929
    1.700333890   15.317949840   13.619679193   17.450364714
    1.707512521   15.382028732   13.678729800   17.506035717
    1.714691152   15.448649507   13.746607251   17.577096965
    1.721869783   15.513777863   13.814058826   17.649928595
    1.729048414   15.577036796   13.879563662   17.721556026
    1.736227045   15.638911704   13.943612027   17.791915827
    1.743405676   15.699965119   14.006993204   17.861523746
    1.750584307   15.760568257   14.070126375   17.930827531
    1.757762938   15.820507780   14.131980986   17.999767158
    1.764941569   15.878642955   14.189149616   18.067476221
    1.772120200   15.935919046   14.244122258   18.135079409
    1.779298831   15.995968388   14.307433051   18.206592481
    1.786477462   16.056351611   14.375728677   18.282254114
    1.793656093   16.109551789   14.436487754   18.360689371
    1.800834725   16.156455375   14.490081938   18.441213841
    1.808013356   16.212101734   14.554931513   18.520920771
    1.815191987   16.271236690   14.606913335   18.581251465
    1.822370618   16.315122695   14.583735510   18.582364084
    1.829549249   16.349684493   14.517178936   18.549540506
    1.836727880   16.404637462   14.536235929   18.577928005
    1.843906511   16.472138020   14.618707942   18.654405486
    1.851085142   16.526280742   14.689515293   18.735862720
    1.858263773   16.549505503   14.703681573   18.802528176
    1.865442404   16.579538742   14.714240900   18.871989250
    1.872621035   16.641526724   14.710127238   18.954995521
    1.879799666   16.714943457   14.557151717   19.036184164
    1.886978297   16.792437835   14.359306373   19.118418934
    1.894156928   16.878343702   14.332979100   19.215597112
    1.901335559   16.970802924   14.412128791   19.324362390
    1.908514190   17.066480769   14.514260494   19.439720831
    1.915692821   17.157215215   14.613799580   19.556334940
    1.922871452   17.218258442   14.705576265   19.656901335
    1.930050083   17.225709511   14.789997123   19.707348209
    1.937228715   17.217710614   14.870569647   19.712193471
    1.944407346   17.264089278   14.949704949   19.767593754
    1.951585977   17.357345531   15.027933032   19.881983932
    1.958764608   17.428304405   15.105304429   19.955328983
    1.965943239   17.393424071   15.181760020   19.853494121
    1.973121870   17.304824037   15.258717004   19.663734271
    1.980300501   17.324831853   15.338274032   19.655091541
    1.987479132   17.424825423   15.417591939   19.778275824
    1.994657763   17.534518818   15.483907881   19.912189122
    2.001836394   17.610401913   15.510985587   19.986580847
    2.009015025   17.660465099   15.514578056   20.034875558
    2.016193656   17.736434350   15.557172479   20.119257256
    2.023372287   17.820612677   15.628102049   20.177417204
    2.030550918   17.900158281   15.704940883   20.204925299
    2.037729549   17.999461983   15.784664210   20.296663530
    2.044908180   18.106742441   15.851823680   20.437229332
    2.052086811   18.206384604   15.905757616   20.574109100
    2.059265442   18.287057372   15.951150471   20.670329224
    2.066444073   18.350871673   15.993564439   20.753858705
    2.073622705   18.405916661   16.044349366   20.862551037
    2.080801336   18.464027179   16.095459306   20.928230384
    2.087979967   18.539792497   16.148773542   20.910540383
    2.095158598   18.629574337   16.226726914   20.932887498
    2.102337229   18.745098486   16.332535461   21.044560177
    2.109515860   18.892848289   16.446554466   21.202761650
    2.116694491   19.056436510   16.539649615   21.365951484
    2.123873122   19.224786062   16.584687110   21.512285595
    2.131051753   19.405324385   16.636509155   21.664259336
    2.138230384   19.591140201   16.734979584   21.837048358
    2.145409015   19.712089608   16.808893864   21.983467830
    2.152587646   19.637872787   16.774393230   22.012797969
    2.159766277   19.300426873   16.646051737   21.866785384
    2.166944908   18.907033063   16.527915581   21.690778584
    2.174123539   18.821915280   16.552140308   21.700657182
    2.181302170   18.918949255   16.665024828   21.811320612
    2.188480801   19.040701107   16.800019750   21.938830851
    2.195659432   19.202625219   16.945360138   22.097630163
    2.202838063   19.401056189   17.095659111   22.278037044
    2.210016694   19.595947919   17.242153954   22.453641376
    2.217195326   19.756415877   17.371574104   22.605180697
    2.224373957   19.898596891   17.489238890   22.744818879
    2.231552588   20.064062871   17.620481005   22.905196595
    2.238731219   20.209949331   17.716343311   23.083106951
    2.245909850   20.233029735   17.654356528   23.265548331
    2.253088481   20.171933746   17.488509812   23.448227036
    2.260267112   20.227989278   17.482900222   23.626048411
    2.267445743   20.365768130   17.594508636   23.773259126
    2.274624374   20.516973168   17.678850948   23.878557644
    2.281803005   20.697880260   17.710817069   23.988542197
    2.288981636   20.892187852   17.753507329   24.137000998
    2.296160267   21.048940344   17.808107923   24.302448067
    2.303338898   21.095525067   17.871126838   24.459487676
    2.310517529   21.076921044   17.933187929   24.612207475
    2.317696160   21.170010153   18.051727671   24.811548035
    2.324874791   21.365744621   18.213968161   25.049709430
    2.332053422   21.584017370   18.380187909   25.286024342
    2.339232053   21.770822417   18.525664035   25.458527676
    2.346410684   21.911472316   18.644562720   25.529216338
    2.353589316   22.066895784   18.758183428   25.609143531
    2.360767947   22.252459191   18.876222439   25.754600366
    2.367946578   22.425177532   18.983749172   25.930939468
    2.375125209   22.562747805   19.065253455   26.116570810
    2.382303840   22.662178261   19.131787960   26.297353978
    2.389482471   22.787873075   19.222495275   26.505456664
    2.396661102   22.963944864   19.314131185   26.744008251
    2.403839733   23.157340822   19.406811893   26.972264530
    2.411018364   23.364227825   19.503887288   27.106316754
    2.418196995   23.598000036   19.595745331   27.248696037
    2.425375626   23.861431260   19.696833365   27.493196939
    2.432554257   24.097211887   19.845998832   27.727320631
    2.439732888   24.192573351   20.018697262   27.883188441
    2.446911519   24.156504504   20.184801867   28.089707419
    2.454090150   24.207933818   20.363772828   28.362849280
    2.461268781   24.352432530   20.562950589   28.609286884
    2.468447412   24.588432389   20.772893686   28.883692924
    2.475626043   24.942630051   20.966127075   29.231628197
    2.482804674   25.289715682   21.137485831   29.589043562
    2.489983306   25.509491000   21.349464046   29.904024979
    2.497161937   25.598409383   21.605036073   30.111129486
    2.504340568   25.731458229   21.863684354   30.358796431
    2.511519199   26.011254996   22.100447823   30.797151284
    2.518697830   26.270627021   22.323757416   31.312280768
    2.525876461   26.353272019   22.511968069   31.716991098
    2.533055092   26.240250465   22.577376278   31.737408423
    2.540233723   25.867456970   22.394437522   31.177279855
