# energy grid [eV]     ieps_x  ieps_y  ieps_z
#
    0.200000000    7.695449919    6.884186609    8.626165307
    0.207178631    7.693786828    6.882779682    8.624232393
    0.214357262    7.692066156    6.881324082    8.622232607
    0.221535893    7.690288011    6.879819905    8.620166077
    0.228714524    7.688452505    6.878267249    8.618032940
    0.235893155    7.686559754    6.876666214    8.615833334
    0.243071786    7.684609874    6.875016904    8.613567401
    0.250250417    7.682602989    6.873319426    8.611235288
    0.257429048    7.680539222    6.871573889    8.608837145
    0.264607679    7.678418703    6.869780406    8.606373127
    0.271786311    7.676241562    6.867939091    8.603843391
    0.278964942    7.674007935    6.866050062    8.601248100
    0.286143573    7.671717958    6.864113438    8.598587418
    0.293322204    7.669371773    6.862129343    8.595861515
    0.300500835    7.666969524    6.860097901    8.593070564
    0.307679466    7.664511356    6.858019241    8.590214740
    0.314858097    7.661997422    6.855893493    8.587294223
    0.322036728    7.659427872    6.853720789    8.584309197
    0.329215359    7.656802864    6.851501265    8.581259848
    0.336393990    7.654122555    6.849235058    8.578146367
    0.343572621    7.651387108    6.846922308    8.574968946
    0.350751252    7.648596686    6.844563158    8.571727782
    0.357929883    7.645751458    6.842157752    8.568423076
    0.365108514    7.642851593    6.839706237    8.565055031
    0.372287145    7.639897264    6.837208761    8.561623852
    0.379465776    7.636888646    6.834665477    8.558129749
    0.386644407    7.633825918    6.832076536    8.554572935
    0.393823038    7.630709259    6.829442095    8.550953626
    0.401001669    7.627538854    6.826762311    8.547272039
    0.408180301    7.624314889    6.824037344    8.543528396
    0.415358932    7.621037551    6.821267355    8.539722922
    0.422537563    7.617707032    6.818452507    8.535855843
    0.429716194    7.614323524    6.815592967    8.531927390
    0.436894825    7.610887224    6.812688900    8.527937796
    0.444073456    7.607398330    6.809740477    8.523887296
    0.451252087    7.603857042    6.806747869    8.519776127
    0.458430718    7.600263562    6.803711248    8.515604531
    0.465609349    7.596618097    6.800630788    8.511372752
    0.472787980    7.592920852    6.797506667    8.507081034
    0.479966611    7.589172038    6.794339061    8.502729627
    0.487145242    7.585371866    6.791128151    8.498318780
    0.494323873    7.581520550    6.787874118    8.493848749
    0.501502504    7.577618305    6.784577145    8.489319787
    0.508681135    7.573665350    6.781237416    8.484732153
    0.515859766    7.569661904    6.777855117    8.480086107
    0.523038397    7.565608189    6.774430435    8.475381913
    0.530217028    7.561504429    6.770963560    8.470619833
    0.537395659    7.557350850    6.767454683    8.465800135
    0.544574290    7.553147679    6.763903993    8.460923089
    0.551752922    7.548895146    6.760311686    8.455988965
    0.558931553    7.544593482    6.756677955    8.450998036
    0.566110184    7.540242919    6.753002997    8.445950577
    0.573288815    7.535843694    6.749287008    8.440846865
    0.580467446    7.531396042    6.745530187    8.435687180
    0.587646077    7.526900201    6.741732733    8.430471802
    0.594824708    7.522356411    6.737894848    8.425201014
    0.602003339    7.517764915    6.734016733    8.419875100
    0.609181970    7.513125954    6.730098592    8.414494346
    0.616360601    7.508439773    6.726140629    8.409059041
    0.623539232    7.503706618    6.722143050    8.403569475
    0.630717863    7.498926738    6.718106060    8.398025938
    0.637896494    7.494100380    6.714029868    8.392428724
    0.645075125    7.489227795    6.709914682    8.386778127
    0.652253756    7.484309236    6.705760712    8.381074443
    0.659432387    7.479344955    6.701568168    8.375317970
    0.666611018    7.474335206    6.697337262    8.369509007
    0.673789649    7.469280246    6.693068206    8.363647855
    0.680968280    7.464180332    6.688761214    8.357734815
    0.688146912    7.459035721    6.684416500    8.351770191
    0.695325543    7.453846673    6.680034278    8.345754287
    0.702504174    7.448613449    6.675614765    8.339687409
    0.709682805    7.443336310    6.671158178    8.333569865
    0.716861436    7.438015520    6.666664733    8.327401963
    0.724040067    7.432651342    6.662134650    8.321184013
    0.731218698    7.427244041    6.657568146    8.314916325
    0.738397329    7.421793883    6.652965443    8.308599212
    0.745575960    7.416301135    6.648326759    8.302232986
    0.752754591    7.410766066    6.643652317    8.295817961
    0.759933222    7.405188943    6.638942337    8.289354453
    0.767111853    7.399570038    6.634197043    8.282842778
    0.774290484    7.393909619    6.629416657    8.276283253
    0.781469115    7.388207959    6.624601402    8.269676196
    0.788647746    7.382465331    6.619751503    8.263021926
    0.795826377    7.376682006    6.614867184    8.256320762
    0.803005008    7.370858260    6.609948671    8.249573025
    0.810183639    7.364994366    6.604996189    8.242779038
    0.817362270    7.359090600    6.600009963    8.235939121
    0.824540902    7.353147237    6.594990222    8.229053599
    0.831719533    7.347164555    6.589937191    8.222122794
    0.838898164    7.341142831    6.584851098    8.215147032
    0.846076795    7.335082342    6.579732171    8.208126637
    0.853255426    7.328983366    6.574580638    8.201061934
    0.860434057    7.322846184    6.569396728    8.193953251
    0.867612688    7.316671073    6.564180670    8.186800914
    0.874791319    7.310458315    6.558932692    8.179605251
    0.881969950    7.304208189    6.553653025    8.172366589
    0.889148581    7.297920976    6.548341899    8.165085256
    0.896327212    7.291596958    6.542999542    8.157761582
    0.903505843    7.285236416    6.537626187    8.150395896
    0.910684474    7.278839632    6.532222063    8.142988528
    0.917863105    7.272406889    6.526787401    8.135539807
    0.925041736    7.265938469    6.521322433    8.128050064
    0.932220367    7.259434655    6.515827389    8.120519629
    0.939398998    7.252895730    6.510302501    8.112948834
    0.946577629    7.246321978    6.504748000    8.105338010
    0.953756260    7.239713683    6.499164118    8.097687487
    0.960934891    7.233071127    6.493551088    8.089997599
    0.968113523    7.226394597    6.487909140    8.082268676
    0.975292154    7.219684374    6.482238506    8.074501051
    0.982470785    7.212940745    6.476539420    8.066695055
    0.989649416    7.206163992    6.470812112    8.058851022
    0.996828047    7.199354402    6.465056815    8.050969282
    1.004006678    7.192512257    6.459273761    8.043050169
    1.011185309    7.185637844    6.453463182    8.035094014
    1.018363940    7.178731445    6.447625310    8.027101151
    1.025542571    7.171793347    6.441760378    8.019071910
    1.032721202    7.164823833    6.435868617    8.011006625
    1.039899833    7.157823189    6.429950259    8.002905628
    1.047078464    7.150791697    6.424005536    7.994769251
    1.054257095    7.143729644    6.418034681    7.986597825
    1.061435726    7.136637312    6.412037924    7.978391682
    1.068614357    7.129514986    6.406015497    7.970151154
    1.075792988    7.122362950    6.399967632    7.961876573
    1.082971619    7.115181488    6.393894560    7.953568268
    1.090150250    7.107970883    6.387796512    7.945226572
    1.097328881    7.100731418    6.381673719    7.936851815
    1.104507513    7.093463377    6.375526412    7.928444326
    1.111686144    7.086167042    6.369354822    7.920004437
    1.118864775    7.078842696    6.363159177    7.911532477
    1.126043406    7.071490621    6.356939710    7.903028774
    1.133222037    7.064111099    6.350696649    7.894493659
    1.140400668    7.056704411    6.344430225    7.885927459
    1.147579299    7.049270839    6.338140665    7.877330502
    1.154757930    7.041810664    6.331828201    7.868703117
    1.161936561    7.034324166    6.325493059    7.860045629
    1.169115192    7.026811625    6.319135469    7.851358367
    1.176293823    7.019273321    6.312755659    7.842641655
    1.183472454    7.011709532    6.306353856    7.833895820
    1.190651085    7.004120539    6.299930288    7.825121187
    1.197829716    6.996506618    6.293485181    7.816318079
    1.205008347    6.988868048    6.287018763    7.807486822
    1.212186978    6.981205106    6.280531259    7.798627737
    1.219365609    6.973518068    6.274022896    7.789741149
    1.226544240    6.965807212    6.267493899    7.780827378
    1.233722871    6.958072811    6.260944492    7.771886746
    1.240901503    6.950315142    6.254374901    7.762919574
    1.248080134    6.942534479    6.247785350    7.753926182
    1.255258765    6.934731095    6.241176061    7.744906888
    1.262437396    6.926905265    6.234547259    7.735862011
    1.269616027    6.919057260    6.227899166    7.726791869
    1.276794658    6.911187352    6.221232004    7.717696779
    1.283973289    6.903295813    6.214545995    7.708577056
    1.291151920    6.895382913    6.207841360    7.699433017
    1.298330551    6.887448921    6.201118320    7.690264975
    1.305509182    6.879494109    6.194377095    7.681073244
    1.312687813    6.871518742    6.187617904    7.671858136
    1.319866444    6.863523090    6.180840966    7.662619965
    1.327045075    6.855507420    6.174046500    7.653359040
    1.334223706    6.847471996    6.167234724    7.644075671
    1.341402337    6.839417086    6.160405855    7.634770168
    1.348580968    6.831342952    6.153560110    7.625442839
    1.355759599    6.823249860    6.146697704    7.616093991
    1.362938230    6.815138073    6.139818853    7.606723930
    1.370116861    6.807007851    6.132923772    7.597332962
    1.377295492    6.798859457    6.126012675    7.587921390
    1.384474124    6.790693151    6.119085776    7.578489519
    1.391652755    6.782509193    6.112143288    7.569037650
    1.398831386    6.774307842    6.105185422    7.559566084
    1.406010017    6.766089354    6.098212391    7.550075121
    1.413188648    6.757853988    6.091224405    7.540565061
    1.420367279    6.749601999    6.084221674    7.531036201
    1.427545910    6.741333642    6.077204408    7.521488839
    1.434724541    6.733049171    6.070172816    7.511923270
    1.441903172    6.724748841    6.063127105    7.502339788
    1.449081803    6.716432902    6.056067484    7.492738688
    1.456260434    6.708101606    6.048994158    7.483120261
    1.463439065    6.699755205    6.041907334    7.473484799
    1.470617696    6.691393946    6.034807217    7.463832591
    1.477796327    6.683018078    6.027694011    7.454163928
    1.484974958    6.674627850    6.020567919    7.444479095
    1.492153589    6.666223506    6.013429146    7.434778381
    1.499332220    6.657805293    6.006277892    7.425062070
    1.506510851    6.649373455    5.999114359    7.415330445
    1.513689482    6.640928235    5.991938748    7.405583791
    1.520868114    6.632469875    5.984751258    7.395822389
    1.528046745    6.623998617    5.977552089    7.386046518
    1.535225376    6.615514701    5.970341438    7.376256458
    1.542404007    6.607018365    5.963119503    7.366452488
    1.549582638    6.598509848    5.955886480    7.356634883
    1.556761269    6.589989387    5.948642566    7.346803918
    1.563939900    6.581457218    5.941387954    7.336959868
    1.571118531    6.572913575    5.934122840    7.327103006
    1.578297162    6.564358692    5.926847415    7.317233602
    1.585475793    6.555792802    5.919561873    7.307351928
    1.592654424    6.547216136    5.912266406    7.297458251
    1.599833055    6.538628924    5.904961202    7.287552839
    1.607011686    6.530031396    5.897646454    7.277635958
    1.614190317    6.521423779    5.890322349    7.267707873
    1.621368948    6.512806301    5.882989075    7.257768847
    1.628547579    6.504179187    5.875646820    7.247819143
    1.635726210    6.495542662    5.868295770    7.237859021
    1.642904841    6.486896949    5.860936110    7.227888740
    1.650083472    6.478242272    5.853568025    7.217908558
    1.657262104    6.469578850    5.846191699    7.207918732
    1.664440735    6.460906904    5.838807314    7.197919518
    1.671619366    6.452226653    5.831415053    7.187911168
    1.678797997    6.443538314    5.824015095    7.177893935
    1.685976628    6.434842104    5.816607622    7.167868071
    1.693155259    6.426138238    5.809192811    7.157833824
    1.700333890    6.417426930    5.801770843    7.147791444
    1.707512521    6.408708394    5.794341893    7.137741176
    1.714691152    6.399982840    5.786906138    7.127683267
    1.721869783    6.391250479    5.779463753    7.117617960
    1.729048414    6.382511522    5.772014914    7.107545497
    1.736227045    6.373766175    5.764559794    7.097466120
    1.743405676    6.365014645    5.757098565    7.087380069
    1.750584307    6.356257139    5.749631399    7.077287581
    1.757762938    6.347493861    5.742158466    7.067188894
    1.764941569    6.338725014    5.734679938    7.057084242
    1.772120200    6.329950800    5.727195982    7.046973861
    1.779298831    6.321171419    5.719706767    7.036857981
    1.786477462    6.312387073    5.712212459    7.026736835
    1.793656093    6.303597958    5.704713225    7.016610651
    1.800834725    6.294804272    5.697209230    7.006479659
    1.808013356    6.286006211    5.689700637    6.996344084
    1.815191987    6.277203969    5.682187611    6.986204152
    1.822370618    6.268397741    5.674670313    6.976060086
    1.829549249    6.259587718    5.667148905    6.965912110
    1.836727880    6.250774091    5.659623547    6.955760443
    1.843906511    6.241957050    5.652094398    6.945605305
    1.851085142    6.233136784    5.644561616    6.935446914
    1.858263773    6.224313479    5.637025360    6.925285487
    1.865442404    6.215487322    5.629485786    6.915121238
    1.872621035    6.206658498    5.621943049    6.904954382
    1.879799666    6.197827191    5.614397303    6.894785129
    1.886978297    6.188993581    5.606848703    6.884613692
    1.894156928    6.180157852    5.599297401    6.874440278
    1.901335559    6.171320182    5.591743548    6.864265096
    1.908514190    6.162480750    5.584187296    6.854088352
    1.915692821    6.153639733    5.576628793    6.843910250
    1.922871452    6.144797309    5.569068190    6.833730995
    1.930050083    6.135953650    5.561505632    6.823550787
    1.937228715    6.127108933    5.553941268    6.813369827
    1.944407346    6.118263327    5.546375244    6.803188315
    1.951585977    6.109417006    5.538807703    6.793006447
    1.958764608    6.100570139    5.531238790    6.782824420
    1.965943239    6.091722894    5.523668647    6.772642428
    1.973121870    6.082875439    5.516097418    6.762460665
    1.980300501    6.074027941    5.508525242    6.752279321
    1.987479132    6.065180564    5.500952260    6.742098588
    1.994657763    6.056333472    5.493378611    6.731918653
    2.001836394    6.047486828    5.485804432    6.721739705
    2.009015025    6.038640793    5.478229862    6.711561930
    2.016193656    6.029795528    5.470655036    6.701385510
    2.023372287    6.020951191    5.463080089    6.691210631
    2.030550918    6.012107940    5.455505156    6.681037472
    2.037729549    6.003265931    5.447930369    6.670866215
    2.044908180    5.994425320    5.440355862    6.660697038
    2.052086811    5.985586261    5.432781765    6.650530119
    2.059265442    5.976748906    5.425208209    6.640365632
    2.066444073    5.967913408    5.417635323    6.630203753
    2.073622705    5.959079916    5.410063236    6.620044654
    2.080801336    5.950248580    5.402492075    6.609888508
    2.087979967    5.941419548    5.394921967    6.599735484
    2.095158598    5.932592967    5.387353037    6.589585750
    2.102337229    5.923768982    5.379785410    6.579439476
    2.109515860    5.914947738    5.372219210    6.569296825
    2.116694491    5.906129377    5.364654560    6.559157963
    2.123873122    5.897314043    5.357091581    6.549023054
    2.131051753    5.888501876    5.349530394    6.538892257
    2.138230384    5.879693016    5.341971119    6.528765735
    2.145409015    5.870887600    5.334413875    6.518643647
    2.152587646    5.862085767    5.326858780    6.508526148
    2.159766277    5.853287653    5.319305951    6.498413397
    2.166944908    5.844493392    5.311755504    6.488305547
    2.174123539    5.835703119    5.304207556    6.478202752
    2.181302170    5.826916966    5.296662219    6.468105165
    2.188480801    5.818135064    5.289119607    6.458012935
    2.195659432    5.809357544    5.281579833    6.447926213
    2.202838063    5.800584535    5.274043008    6.437845146
    2.210016694    5.791816166    5.266509243    6.427769882
    2.217195326    5.783052562    5.258978648    6.417700564
    2.224373957    5.774293850    5.251451331    6.407637338
    2.231552588    5.765540155    5.243927400    6.397580347
    2.238731219    5.756791599    5.236406962    6.387529730
    2.245909850    5.748048306    5.228890124    6.377485629
    2.253088481    5.739310396    5.221376990    6.367448182
    2.260267112    5.730577990    5.213867664    6.357417527
    2.267445743    5.721851207    5.206362250    6.347393799
    2.274624374    5.713130164    5.198860850    6.337377133
    2.281803005    5.704414978    5.191363567    6.327367664
    2.288981636    5.695705765    5.183870499    6.317365522
    2.296160267    5.687002640    5.176381748    6.307370839
    2.303338898    5.678305715    5.168897412    6.297383744
    2.310517529    5.669615104    5.161417590    6.287404366
    2.317696160    5.660930918    5.153942377    6.277432832
    2.324874791    5.652253266    5.146471871    6.267469268
    2.332053422    5.643582259    5.139006167    6.257513797
    2.339232053    5.634918003    5.131545359    6.247566544
    2.346410684    5.626260607    5.124089541    6.237627630
    2.353589316    5.617610175    5.116638806    6.227697176
    2.360767947    5.608966813    5.109193245    6.217775302
    2.367946578    5.600330625    5.101752950    6.207862126
    2.375125209    5.591701714    5.094318011    6.197957764
    2.382303840    5.583080180    5.086888517    6.188062334
    2.389482471    5.574466125    5.079464557    6.178175948
    2.396661102    5.565859649    5.072046218    6.168298722
    2.403839733    5.557260849    5.064633588    6.158430766
    2.411018364    5.548669825    5.057226751    6.148572193
    2.418196995    5.540086671    5.049825794    6.138723111
    2.425375626    5.531511484    5.042430800    6.128883630
    2.432554257    5.522944358    5.035041854    6.119053856
    2.439732888    5.514385387    5.027659037    6.109233896
    2.446911519    5.505834663    5.020282431    6.099423856
    2.454090150    5.497292278    5.012912118    6.089623838
    2.461268781    5.488758322    5.005548178    6.079833947
    2.468447412    5.480232885    4.998190690    6.070054283
    2.475626043    5.471716055    4.990839733    6.060284946
    2.482804674    5.463207920    4.983495385    6.050526037
    2.489983306    5.454708567    4.976157722    6.040777653
    2.497161937    5.446218081    4.968826821    6.031039892
    2.504340568    5.437736547    4.961502757    6.021312849
    2.511519199    5.429264048    4.954185605    6.011596619
    2.518697830    5.420800668    4.946875438    6.001891296
    2.525876461    5.412346487    4.939572330    5.992196972
    2.533055092    5.403901588    4.932276353    5.982513740
    2.540233723    5.395466050    4.924987579    5.972841689
