# energy grid [eV]     ieps_x  ieps_y  ieps_z
#
    0.200000000    8.421910824    8.390758473    6.451172982
    0.207178631    8.420137383    8.388994299    6.450009912
    0.214357262    8.418302354    8.387168857    6.448806380
    0.221535893    8.416405835    8.385282246    6.447562441
    0.228714524    8.414447927    8.383334565    6.446278154
    0.235893155    8.412428733    8.381325917    6.444953579
    0.243071786    8.410348360    8.379256408    6.443588778
    0.250250417    8.408206918    8.377126148    6.442183815
    0.257429048    8.406004520    8.374935249    6.440738756
    0.264607679    8.403741282    8.372683827    6.439253667
    0.271786311    8.401417324    8.370372000    6.437728618
    0.278964942    8.399032767    8.367999889    6.436163681
    0.286143573    8.396587738    8.365567620    6.434558927
    0.293322204    8.394082365    8.363075320    6.432914433
    0.300500835    8.391516778    8.360523119    6.431230273
    0.307679466    8.388891113    8.357911151    6.429506527
    0.314858097    8.386205507    8.355239553    6.427743273
    0.322036728    8.383460101    8.352508464    6.425940595
    0.329215359    8.380655037    8.349718027    6.424098575
    0.336393990    8.377790462    8.346868386    6.422217298
    0.343572621    8.374866525    8.343959691    6.420296851
    0.350751252    8.371883377    8.340992092    6.418337322
    0.357929883    8.368841175    8.337965744    6.416338803
    0.365108514    8.365740076    8.334880802    6.414301384
    0.372287145    8.362580239    8.331737427    6.412225159
    0.379465776    8.359361829    8.328535780    6.410110224
    0.386644407    8.356085012    8.325276028    6.407956675
    0.393823038    8.352749956    8.321958337    6.405764610
    0.401001669    8.349356832    8.318582878    6.403534131
    0.408180301    8.345905817    8.315149825    6.401265338
    0.415358932    8.342397085    8.311659353    6.398958335
    0.422537563    8.338830818    8.308111641    6.396613227
    0.429716194    8.335207197    8.304506871    6.394230121
    0.436894825    8.331526406    8.300845225    6.391809124
    0.444073456    8.327788635    8.297126890    6.389350345
    0.451252087    8.323994072    8.293352055    6.386853897
    0.458430718    8.320142910    8.289520912    6.384319892
    0.465609349    8.316235345    8.285633654    6.381748444
    0.472787980    8.312271573    8.281690478    6.379139668
    0.479966611    8.308251796    8.277691583    6.376493682
    0.487145242    8.304176214    8.273637169    6.373810604
    0.494323873    8.300045035    8.269527441    6.371090556
    0.501502504    8.295858463    8.265362604    6.368333657
    0.508681135    8.291616710    8.261142867    6.365540031
    0.515859766    8.287319988    8.256868441    6.362709802
    0.523038397    8.282968510    8.252539538    6.359843097
    0.530217028    8.278562493    8.248156375    6.356940042
    0.537395659    8.274102155    8.243719167    6.354000766
    0.544574290    8.269587719    8.239228135    6.351025399
    0.551752922    8.265019407    8.234683501    6.348014072
    0.558931553    8.260397445    8.230085489    6.344966918
    0.566110184    8.255722059    8.225434325    6.341884070
    0.573288815    8.250993480    8.220730238    6.338765664
    0.580467446    8.246211940    8.215973457    6.335611837
    0.587646077    8.241377672    8.211164214    6.332422725
    0.594824708    8.236490912    8.206302746    6.329198469
    0.602003339    8.231551898    8.201389287    6.325939208
    0.609181970    8.226560870    8.196424076    6.322645083
    0.616360601    8.221518069    8.191407353    6.319316238
    0.623539232    8.216423739    8.186339361    6.315952817
    0.630717863    8.211278126    8.181220343    6.312554964
    0.637896494    8.206081476    8.176050545    6.309122826
    0.645075125    8.200834040    8.170830216    6.305656549
    0.652253756    8.195536067    8.165559604    6.302156284
    0.659432387    8.190187811    8.160238961    6.298622179
    0.666611018    8.184789527    8.154868540    6.295054385
    0.673789649    8.179341470    8.149448594    6.291453053
    0.680968280    8.173843898    8.143979382    6.287818337
    0.688146912    8.168297071    8.138461160    6.284150391
    0.695325543    8.162701250    8.132894188    6.280449370
    0.702504174    8.157056697    8.127278727    6.276715429
    0.709682805    8.151363677    8.121615040    6.272948726
    0.716861436    8.145622456    8.115903390    6.269149419
    0.724040067    8.139833300    8.110144045    6.265317667
    0.731218698    8.133996479    8.104337270    6.261453628
    0.738397329    8.128112263    8.098483335    6.257557466
    0.745575960    8.122180923    8.092582509    6.253629341
    0.752754591    8.116202732    8.086635063    6.249669415
    0.759933222    8.110177965    8.080641271    6.245677854
    0.767111853    8.104106896    8.074601405    6.241654820
    0.774290484    8.097989804    8.068515742    6.237600480
    0.781469115    8.091826965    8.062384558    6.233514999
    0.788647746    8.085618660    8.056208130    6.229398545
    0.795826377    8.079365169    8.049986738    6.225251285
    0.803005008    8.073066773    8.043720661    6.221073388
    0.810183639    8.066723756    8.037410180    6.216865024
    0.817362270    8.060336401    8.031055578    6.212626362
    0.824540902    8.053904993    8.024657138    6.208357573
    0.831719533    8.047429819    8.018215145    6.204058830
    0.838898164    8.040911165    8.011729883    6.199730304
    0.846076795    8.034349319    8.005201639    6.195372168
    0.853255426    8.027744571    7.998630701    6.190984597
    0.860434057    8.021097210    7.992017356    6.186567763
    0.867612688    8.014407527    7.985361894    6.182121844
    0.874791319    8.007675814    7.978664604    6.177647013
    0.881969950    8.000902364    7.971925777    6.173143448
    0.889148581    7.994087468    7.965145706    6.168611325
    0.896327212    7.987231423    7.958324681    6.164050822
    0.903505843    7.980334522    7.951462997    6.159462116
    0.910684474    7.973397061    7.944560947    6.154845387
    0.917863105    7.966419336    7.937618826    6.150200813
    0.925041736    7.959401644    7.930636928    6.145528574
    0.932220367    7.952344283    7.923615550    6.140828850
    0.939398998    7.945247551    7.916554988    6.136101822
    0.946577629    7.938111746    7.909455539    6.131347670
    0.953756260    7.930937168    7.902317500    6.126566577
    0.960934891    7.923724117    7.895141170    6.121758724
    0.968113523    7.916472892    7.887926846    6.116924293
    0.975292154    7.909183794    7.880674828    6.112063468
    0.982470785    7.901857125    7.873385416    6.107176431
    0.989649416    7.894493187    7.866058908    6.102263367
    0.996828047    7.887092280    7.858695606    6.097324458
    1.004006678    7.879654708    7.851295809    6.092359889
    1.011185309    7.872180772    7.843859819    6.087369846
    1.018363940    7.864670777    7.836387937    6.082354512
    1.025542571    7.857125024    7.828880464    6.077314073
    1.032721202    7.849543819    7.821337701    6.072248714
    1.039899833    7.841927463    7.813759952    6.067158622
    1.047078464    7.834276261    7.806147517    6.062043981
    1.054257095    7.826590517    7.798500700    6.056904979
    1.061435726    7.818870536    7.790819802    6.051741802
    1.068614357    7.811116621    7.783105126    6.046554636
    1.075792988    7.803329076    7.775356974    6.041343669
    1.082971619    7.795508207    7.767575650    6.036109087
    1.090150250    7.787654318    7.759761456    6.030851077
    1.097328881    7.779767712    7.751914694    6.025569828
    1.104507513    7.771848695    7.744035668    6.020265526
    1.111686144    7.763897572    7.736124681    6.014938359
    1.118864775    7.755914645    7.728182034    6.009588514
    1.126043406    7.747900221    7.720208030    6.004216181
    1.133222037    7.739854602    7.712202972    5.998821546
    1.140400668    7.731778093    7.704167162    5.993404797
    1.147579299    7.723670998    7.696100903    5.987966123
    1.154757930    7.715533620    7.688004495    5.982505711
    1.161936561    7.707366264    7.679878242    5.977023750
    1.169115192    7.699169232    7.671722444    5.971520427
    1.176293823    7.690942828    7.663537404    5.965995931
    1.183472454    7.682687354    7.655323421    5.960450450
    1.190651085    7.674403112    7.647080798    5.954884172
    1.197829716    7.666090406    7.638809834    5.949297284
    1.205008347    7.657749536    7.630510829    5.943689976
    1.212186978    7.649380805    7.622184084    5.938062434
    1.219365609    7.640984513    7.613829897    5.932414846
    1.226544240    7.632560961    7.605448568    5.926747400
    1.233722871    7.624110450    7.597040396    5.921060284
    1.240901503    7.615633279    7.588605678    5.915353685
    1.248080134    7.607129749    7.580144713    5.909627790
    1.255258765    7.598600157    7.571657797    5.903882787
    1.262437396    7.590044802    7.563145228    5.898118863
    1.269616027    7.581463982    7.554607302    5.892336204
    1.276794658    7.572857995    7.546044314    5.886534998
    1.283973289    7.564227138    7.537456560    5.880715430
    1.291151920    7.555571706    7.528844334    5.874877687
    1.298330551    7.546891996    7.520207931    5.869021956
    1.305509182    7.538188302    7.511547643    5.863148421
    1.312687813    7.529460919    7.502863764    5.857257268
    1.319866444    7.520710141    7.494156586    5.851348684
    1.327045075    7.511936261    7.485426400    5.845422853
    1.334223706    7.503139571    7.476673497    5.839479959
    1.341402337    7.494320363    7.467898168    5.833520188
    1.348580968    7.485478928    7.459100701    5.827543723
    1.355759599    7.476615557    7.450281386    5.821550749
    1.362938230    7.467730539    7.441440510    5.815541450
    1.370116861    7.458824163    7.432578361    5.809516007
    1.377295492    7.449896716    7.423695224    5.803474606
    1.384474124    7.440948487    7.414791387    5.797417427
    1.391652755    7.431979761    7.405867133    5.791344654
    1.398831386    7.422990824    7.396922747    5.785256469
    1.406010017    7.413981961    7.387958511    5.779153052
    1.413188648    7.404953455    7.378974709    5.773034586
    1.420367279    7.395905591    7.369971621    5.766901250
    1.427545910    7.386838649    7.360949528    5.760753226
    1.434724541    7.377752911    7.351908710    5.754590693
    1.441903172    7.368648658    7.342849447    5.748413830
    1.449081803    7.359526169    7.333772014    5.742222818
    1.456260434    7.350385722    7.324676690    5.736017834
    1.463439065    7.341227594    7.315563751    5.729799057
    1.470617696    7.332052064    7.306433472    5.723566664
    1.477796327    7.322859404    7.297286126    5.717320834
    1.484974958    7.313649892    7.288121987    5.711061742
    1.492153589    7.304423799    7.278941326    5.704789565
    1.499332220    7.295181400    7.269744416    5.698504478
    1.506510851    7.285922964    7.260531526    5.692206658
    1.513689482    7.276648763    7.251302925    5.685896280
    1.520868114    7.267359066    7.242058882    5.679573516
    1.528046745    7.258054142    7.232799662    5.673238542
    1.535225376    7.248734257    7.223525533    5.666891531
    1.542404007    7.239399679    7.214236758    5.660532655
    1.549582638    7.230050671    7.204933602    5.654162086
    1.556761269    7.220687499    7.195616327    5.647779997
    1.563939900    7.211310426    7.186285195    5.641386558
    1.571118531    7.201919712    7.176940466    5.634981939
    1.578297162    7.192515619    7.167582400    5.628566312
    1.585475793    7.183098407    7.158211254    5.622139845
    1.592654424    7.173668333    7.148827287    5.615702707
    1.599833055    7.164225655    7.139430753    5.609255066
    1.607011686    7.154770629    7.130021907    5.602797091
    1.614190317    7.145303510    7.120601003    5.596328947
    1.621368948    7.135824552    7.111168294    5.589850801
    1.628547579    7.126334007    7.101724031    5.583362820
    1.635726210    7.116832127    7.092268463    5.576865168
    1.642904841    7.107319162    7.082801840    5.570358010
    1.650083472    7.097795360    7.073324409    5.563841509
    1.657262104    7.088260970    7.063836417    5.557315830
    1.664440735    7.078716237    7.054338108    5.550781134
    1.671619366    7.069161408    7.044829728    5.544237584
    1.678797997    7.059596726    7.035311518    5.537685341
    1.685976628    7.050022434    7.025783720    5.531124566
    1.693155259    7.040438774    7.016246575    5.524555418
    1.700333890    7.030845985    7.006700321    5.517978058
    1.707512521    7.021244307    6.997145196    5.511392643
    1.714691152    7.011633978    6.987581437    5.504799332
    1.721869783    7.002015234    6.978009279    5.498198281
    1.729048414    6.992388310    6.968428957    5.491589649
    1.736227045    6.982753441    6.958840702    5.484973589
    1.743405676    6.973110858    6.949244746    5.478350259
    1.750584307    6.963460793    6.939641319    5.471719812
    1.757762938    6.953803477    6.930030651    5.465082402
    1.764941569    6.944139137    6.920412969    5.458438182
    1.772120200    6.934468002    6.910788499    5.451787304
    1.779298831    6.924790297    6.901157466    5.445129921
    1.786477462    6.915106248    6.891520094    5.438466183
    1.793656093    6.905416078    6.881876605    5.431796241
    1.800834725    6.895720008    6.872227220    5.425120244
    1.808013356    6.886018261    6.862572160    5.418438340
    1.815191987    6.876311055    6.852911642    5.411750678
    1.822370618    6.866598608    6.843245883    5.405057406
    1.829549249    6.856881138    6.833575100    5.398358669
    1.836727880    6.847158861    6.823899507    5.391654614
    1.843906511    6.837431989    6.814219317    5.384945385
    1.851085142    6.827700737    6.804534742    5.378231128
    1.858263773    6.817965316    6.794845992    5.371511985
    1.865442404    6.808225935    6.785153277    5.364788099
    1.872621035    6.798482805    6.775456804    5.358059614
    1.879799666    6.788736132    6.765756780    5.351326669
    1.886978297    6.778986122    6.756053411    5.344589405
    1.894156928    6.769232981    6.746346899    5.337847963
    1.901335559    6.759476912    6.736637447    5.331102481
    1.908514190    6.749718116    6.726925258    5.324353098
    1.915692821    6.739956796    6.717210529    5.317599951
    1.922871452    6.730193150    6.707493461    5.310843177
    1.930050083    6.720427376    6.697774249    5.304082912
    1.937228715    6.710659671    6.688053090    5.297319290
    1.944407346    6.700890231    6.678330179    5.290552448
    1.951585977    6.691119250    6.668605707    5.283782518
    1.958764608    6.681346919    6.658879868    5.277009632
    1.965943239    6.671573432    6.649152852    5.270233924
    1.973121870    6.661798977    6.639424847    5.263455525
    1.980300501    6.652023743    6.629696041    5.256674564
    1.987479132    6.642247917    6.619966621    5.249891172
    1.994657763    6.632471687    6.610236772    5.243105478
    2.001836394    6.622695235    6.600506678    5.236317611
    2.009015025    6.612918746    6.590776521    5.229527696
    2.016193656    6.603142401    6.581046481    5.222735862
    2.023372287    6.593366380    6.571316740    5.215942233
    2.030550918    6.583590864    6.561587474    5.209146936
    2.037729549    6.573816030    6.551858862    5.202350094
    2.044908180    6.564042055    6.542131078    5.195551831
    2.052086811    6.554269113    6.532404298    5.188752269
    2.059265442    6.544497378    6.522678694    5.181951530
    2.066444073    6.534727024    6.512954438    5.175149736
    2.073622705    6.524958221    6.503231701    5.168347007
    2.080801336    6.515191140    6.493510651    5.161543463
    2.087979967    6.505425948    6.483791456    5.154739221
    2.095158598    6.495662813    6.474074284    5.147934401
    2.102337229    6.485901901    6.464359298    5.141129119
    2.109515860    6.476143377    6.454646663    5.134323492
    2.116694491    6.466387403    6.444936541    5.127517635
    2.123873122    6.456634142    6.435229094    5.120711664
    2.131051753    6.446883754    6.425524480    5.113905692
    2.138230384    6.437136399    6.415822860    5.107099832
    2.145409015    6.427392234    6.406124390    5.100294198
    2.152587646    6.417651417    6.396429227    5.093488900
    2.159766277    6.407914102    6.386737524    5.086684050
    2.166944908    6.398180445    6.377049435    5.079879758
    2.174123539    6.388450596    6.367365113    5.073076133
    2.181302170    6.378724709    6.357684708    5.066273283
    2.188480801    6.369002934    6.348008370    5.059471317
    2.195659432    6.359285419    6.338336248    5.052670342
    2.202838063    6.349572311    6.328668487    5.045870463
    2.210016694    6.339863758    6.319005234    5.039071787
    2.217195326    6.330159905    6.309346633    5.032274417
    2.224373957    6.320460895    6.299692828    5.025478458
    2.231552588    6.310766870    6.290043960    5.018684013
    2.238731219    6.301077973    6.280400171    5.011891185
    2.245909850    6.291394343    6.270761599    5.005100074
    2.253088481    6.281716119    6.261128383    4.998310781
    2.260267112    6.272043439    6.251500659    4.991523408
    2.267445743    6.262376439    6.241878564    4.984738052
    2.274624374    6.252715253    6.232262232    4.977954813
    2.281803005    6.243060016    6.222651795    4.971173788
    2.288981636    6.233410860    6.213047387    4.964395074
    2.296160267    6.223767917    6.203449138    4.957618768
    2.303338898    6.214131317    6.193857177    4.950844964
    2.310517529    6.204501188    6.184271633    4.944073759
    2.317696160    6.194877659    6.174692633    4.937305244
    2.324874791    6.185260856    6.165120303    4.930539515
    2.332053422    6.175650903    6.155554767    4.923776662
    2.339232053    6.166047926    6.145996150    4.917016779
    2.346410684    6.156452047    6.136444573    4.910259955
    2.353589316    6.146863387    6.126900157    4.903506281
    2.360767947    6.137282067    6.117363024    4.896755847
    2.367946578    6.127708207    6.107833290    4.890008741
    2.375125209    6.118141925    6.098311075    4.883265051
    2.382303840    6.108583337    6.088796495    4.876524864
    2.389482471    6.099032559    6.079289664    4.869788267
    2.396661102    6.089489706    6.069790697    4.863055346
    2.403839733    6.079954892    6.060299707    4.856326186
    2.411018364    6.070428228    6.050816806    4.849600870
    2.418196995    6.060909826    6.041342105    4.842879483
    2.425375626    6.051399796    6.031875712    4.836162108
    2.432554257    6.041898246    6.022417737    4.829448826
    2.439732888    6.032405285    6.012968287    4.822739719
    2.446911519    6.022921019    6.003527468    4.816034867
    2.454090150    6.013445554    5.994095386    4.809334351
    2.461268781    6.003978994    5.984672143    4.802638250
    2.468447412    5.994521441    5.975257843    4.795946642
    2.475626043    5.985072999    5.965852588    4.789259606
    2.482804674    5.975633769    5.956456478    4.782577218
    2.489983306    5.966203849    5.947069613    4.775899555
    2.497161937    5.956783340    5.937692091    4.769226692
    2.504340568    5.947372339    5.928324010    4.762558704
    2.511519199    5.937970943    5.918965467    4.755895667
    2.518697830    5.928579247    5.909616555    4.749237653
    2.525876461    5.919197346    5.900277371    4.742584736
    2.533055092    5.909825333    5.890948006    4.735936987
    2.540233723    5.900463302    5.881628553    4.729294479
