# energy grid [eV]     ieps_x  ieps_y  ieps_z
#
    0.200000000    7.680486364    7.732334795    7.425229849
    0.207178631    7.678993894    7.730829058    7.423897406
    0.214357262    7.677449530    7.729270967    7.422518584
    0.221535893    7.675853347    7.727660597    7.421093446
    0.228714524    7.674205423    7.725998027    7.419622055
    0.235893155    7.672505838    7.724283338    7.418104478
    0.243071786    7.670754675    7.722516614    7.416540784
    0.250250417    7.668952020    7.720697940    7.414931042
    0.257429048    7.667097959    7.718827405    7.413275326
    0.264607679    7.665192583    7.716905100    7.411573710
    0.271786311    7.663235985    7.714931118    7.409826270
    0.278964942    7.661228258    7.712905555    7.408033084
    0.286143573    7.659169501    7.710828509    7.406194234
    0.293322204    7.657059813    7.708700081    7.404309801
    0.300500835    7.654899295    7.706520374    7.402379870
    0.307679466    7.652688053    7.704289493    7.400404527
    0.314858097    7.650426193    7.702007546    7.398383861
    0.322036728    7.648113823    7.699674642    7.396317961
    0.329215359    7.645751055    7.697290894    7.394206919
    0.336393990    7.643338002    7.694856417    7.392050831
    0.343572621    7.640874781    7.692371327    7.389849790
    0.350751252    7.638361509    7.689835745    7.387603896
    0.357929883    7.635798307    7.687249790    7.385313248
    0.365108514    7.633185297    7.684613588    7.382977948
    0.372287145    7.630522604    7.681927264    7.380598098
    0.379465776    7.627810355    7.679190946    7.378173805
    0.386644407    7.625048680    7.676404765    7.375705174
    0.393823038    7.622237708    7.673568853    7.373192316
    0.401001669    7.619377575    7.670683345    7.370635341
    0.408180301    7.616468415    7.667748379    7.368034361
    0.415358932    7.613510367    7.664764092    7.365389491
    0.422537563    7.610503570    7.661730628    7.362700846
    0.429716194    7.607448166    7.658648128    7.359968544
    0.436894825    7.604344300    7.655516738    7.357192706
    0.444073456    7.601192117    7.652336606    7.354373451
    0.451252087    7.597991765    7.649107882    7.351510904
    0.458430718    7.594743395    7.645830717    7.348605189
    0.465609349    7.591447159    7.642505264    7.345656433
    0.472787980    7.588103211    7.639131680    7.342664762
    0.479966611    7.584711707    7.635710121    7.339630308
    0.487145242    7.581272805    7.632240749    7.336553201
    0.494323873    7.577786665    7.628723723    7.333433575
    0.501502504    7.574253450    7.625159208    7.330271564
    0.508681135    7.570673322    7.621547369    7.327067304
    0.515859766    7.567046448    7.617888374    7.323820933
    0.523038397    7.563372995    7.614182391    7.320532591
    0.530217028    7.559653133    7.610429592    7.317202418
    0.537395659    7.555887032    7.606630149    7.313830558
    0.544574290    7.552074866    7.602784237    7.310417154
    0.551752922    7.548216809    7.598892033    7.306962351
    0.558931553    7.544313038    7.594953714    7.303466297
    0.566110184    7.540363732    7.590969461    7.299929140
    0.573288815    7.536369070    7.586939456    7.296351030
    0.580467446    7.532329234    7.582863882    7.292732119
    0.587646077    7.528244406    7.578742924    7.289072560
    0.594824708    7.524114774    7.574576769    7.285372506
    0.602003339    7.519940522    7.570365605    7.281632114
    0.609181970    7.515721839    7.566109623    7.277851541
    0.616360601    7.511458915    7.561809013    7.274030944
    0.623539232    7.507151942    7.557463971    7.270170485
    0.630717863    7.502801112    7.553074689    7.266270324
    0.637896494    7.498406620    7.548641366    7.262330624
    0.645075125    7.493968661    7.544164197    7.258351548
    0.652253756    7.489487435    7.539643384    7.254333261
    0.659432387    7.484963138    7.535079127    7.250275930
    0.666611018    7.480395973    7.530471628    7.246179723
    0.673789649    7.475786140    7.525821091    7.242044808
    0.680968280    7.471133842    7.521127721    7.237871355
    0.688146912    7.466439286    7.516391725    7.233659536
    0.695325543    7.461702675    7.511613311    7.229409524
    0.702504174    7.456924219    7.506792688    7.225121490
    0.709682805    7.452104124    7.501930066    7.220795612
    0.716861436    7.447242602    7.497025659    7.216432064
    0.724040067    7.442339864    7.492079678    7.212031023
    0.731218698    7.437396121    7.487092338    7.207592668
    0.738397329    7.432411587    7.482063856    7.203117177
    0.745575960    7.427386478    7.476994447    7.198604732
    0.752754591    7.422321010    7.471884331    7.194055513
    0.759933222    7.417215398    7.466733726    7.189469703
    0.767111853    7.412069863    7.461542853    7.184847485
    0.774290484    7.406884623    7.456311933    7.180189043
    0.781469115    7.401659899    7.451041189    7.175494563
    0.788647746    7.396395912    7.445730845    7.170764232
    0.795826377    7.391092885    7.440381125    7.165998236
    0.803005008    7.385751042    7.434992256    7.161196763
    0.810183639    7.380370607    7.429564463    7.156360003
    0.817362270    7.374951806    7.424097976    7.151488146
    0.824540902    7.369494866    7.418593023    7.146581382
    0.831719533    7.364000014    7.413049833    7.141639903
    0.838898164    7.358467478    7.407468637    7.136663901
    0.846076795    7.352897489    7.401849666    7.131653571
    0.853255426    7.347290275    7.396193154    7.126609106
    0.860434057    7.341646069    7.390499333    7.121530701
    0.867612688    7.335965102    7.384768438    7.116418552
    0.874791319    7.330247607    7.379000703    7.111272855
    0.881969950    7.324493816    7.373196364    7.106093807
    0.889148581    7.318703966    7.367355658    7.100881607
    0.896327212    7.312878289    7.361478821    7.095636452
    0.903505843    7.307017023    7.355566092    7.090358543
    0.910684474    7.301120403    7.349617709    7.085048079
    0.917863105    7.295188666    7.343633912    7.079705260
    0.925041736    7.289222051    7.337614940    7.074330288
    0.932220367    7.283220795    7.331561035    7.068923364
    0.939398998    7.277185137    7.325472436    7.063484692
    0.946577629    7.271115317    7.319349387    7.058014473
    0.953756260    7.265011575    7.313192129    7.052512912
    0.960934891    7.258874152    7.307000905    7.046980212
    0.968113523    7.252703287    7.300775960    7.041416578
    0.975292154    7.246499225    7.294517535    7.035822215
    0.982470785    7.240262205    7.288225877    7.030197329
    0.989649416    7.233992471    7.281901229    7.024542125
    0.996828047    7.227690265    7.275543838    7.018856811
    1.004006678    7.221355832    7.269153948    7.013141593
    1.011185309    7.214989415    7.262731807    7.007396678
    1.018363940    7.208591258    7.256277659    7.001622274
    1.025542571    7.202161605    7.249791753    6.995818589
    1.032721202    7.195700702    7.243274336    6.989985832
    1.039899833    7.189208793    7.236725654    6.984124211
    1.047078464    7.182686124    7.230145955    6.978233937
    1.054257095    7.176132940    7.223535488    6.972315217
    1.061435726    7.169549489    7.216894501    6.966368262
    1.068614357    7.162936014    7.210223243    6.960393283
    1.075792988    7.156292764    7.203521961    6.954390488
    1.082971619    7.149619985    7.196790906    6.948360090
    1.090150250    7.142917923    7.190030325    6.942302299
    1.097328881    7.136186826    7.183240469    6.936217325
    1.104507513    7.129426939    7.176421587    6.930105380
    1.111686144    7.122638512    7.169573927    6.923966676
    1.118864775    7.115821789    7.162697740    6.917801424
    1.126043406    7.108977020    7.155793276    6.911609836
    1.133222037    7.102104451    7.148860783    6.905392124
    1.140400668    7.095204330    7.141900513    6.899148500
    1.147579299    7.088276904    7.134912713    6.892879175
    1.154757930    7.081322421    7.127897635    6.886584363
    1.161936561    7.074341127    7.120855528    6.880264276
    1.169115192    7.067333271    7.113786641    6.873919126
    1.176293823    7.060299099    7.106691224    6.867549124
    1.183472454    7.053238859    7.099569527    6.861154485
    1.190651085    7.046152797    7.092421799    6.854735420
    1.197829716    7.039041162    7.085248290    6.848292143
    1.205008347    7.031904199    7.078049248    6.841824864
    1.212186978    7.024742156    7.070824923    6.835333797
    1.219365609    7.017555279    7.063575564    6.828819155
    1.226544240    7.010343815    7.056301418    6.822281149
    1.233722871    7.003108009    7.049002736    6.815719992
    1.240901503    6.995848107    7.041679765    6.809135896
    1.248080134    6.988564356    7.034332753    6.802529074
    1.255258765    6.981257002    7.026961948    6.795899737
    1.262437396    6.973926288    7.019567597    6.789248097
    1.269616027    6.966572460    7.012149948    6.782574366
    1.276794658    6.959195764    7.004709248    6.775878755
    1.283973289    6.951796442    6.997245744    6.769161477
    1.291151920    6.944374740    6.989759681    6.762422742
    1.298330551    6.936930901    6.982251305    6.755662761
    1.305509182    6.929465168    6.974720864    6.748881745
    1.312687813    6.921977785    6.967168600    6.742079906
    1.319866444    6.914468993    6.959594760    6.735257453
    1.327045075    6.906939036    6.951999588    6.728414596
    1.334223706    6.899388155    6.944383328    6.721551546
    1.341402337    6.891816591    6.936746224    6.714668513
    1.348580968    6.884224585    6.929088518    6.707765704
    1.355759599    6.876612378    6.921410454    6.700843331
    1.362938230    6.868980209    6.913712273    6.693901601
    1.370116861    6.861328319    6.905994217    6.686940723
    1.377295492    6.853656946    6.898256528    6.679960906
    1.384474124    6.845966328    6.890499446    6.672962356
    1.391652755    6.838256705    6.882723211    6.665945282
    1.398831386    6.830528312    6.874928063    6.658909890
    1.406010017    6.822781387    6.867114242    6.651856388
    1.413188648    6.815016166    6.859281984    6.644784982
    1.420367279    6.807232885    6.851431530    6.637695877
    1.427545910    6.799431780    6.843563115    6.630589280
    1.434724541    6.791613084    6.835676976    6.623465395
    1.441903172    6.783777032    6.827773350    6.616324428
    1.449081803    6.775923856    6.819852472    6.609166582
    1.456260434    6.768053790    6.811914576    6.601992061
    1.463439065    6.760167066    6.803959898    6.594801069
    1.470617696    6.752263915    6.795988670    6.587593808
    1.477796327    6.744344567    6.788001125    6.580370482
    1.484974958    6.736409253    6.779997495    6.573131292
    1.492153589    6.728458202    6.771978012    6.565876439
    1.499332220    6.720491643    6.763942907    6.558606125
    1.506510851    6.712509803    6.755892409    6.551320550
    1.513689482    6.704512910    6.747826748    6.544019914
    1.520868114    6.696501190    6.739746152    6.536704416
    1.528046745    6.688474869    6.731650848    6.529374255
    1.535225376    6.680434171    6.723541065    6.522029629
    1.542404007    6.672379322    6.715417028    6.514670737
    1.549582638    6.664310544    6.707278963    6.507297774
    1.556761269    6.656228060    6.699127093    6.499910939
    1.563939900    6.648132091    6.690961644    6.492510426
    1.571118531    6.640022860    6.682782838    6.485096432
    1.578297162    6.631900586    6.674590898    6.477669150
    1.585475793    6.623765488    6.666386044    6.470228776
    1.592654424    6.615617785    6.658168497    6.462775503
    1.599833055    6.607457695    6.649938478    6.455309523
    1.607011686    6.599285435    6.641696204    6.447831030
    1.614190317    6.591101221    6.633441894    6.440340214
    1.621368948    6.582905267    6.625175766    6.432837266
    1.628547579    6.574697789    6.616898034    6.425322378
    1.635726210    6.566479000    6.608608916    6.417795739
    1.642904841    6.558249112    6.600308624    6.410257537
    1.650083472    6.550008338    6.591997373    6.402707962
    1.657262104    6.541756887    6.583675376    6.395147200
    1.664440735    6.533494969    6.575342844    6.387575440
    1.671619366    6.525222795    6.566999988    6.379992866
    1.678797997    6.516940571    6.558647018    6.372399665
    1.685976628    6.508648505    6.550284143    6.364796022
    1.693155259    6.500346804    6.541911571    6.357182120
    1.700333890    6.492035671    6.533529509    6.349558143
    1.707512521    6.483715313    6.525138164    6.341924274
    1.714691152    6.475385932    6.516737740    6.334280695
    1.721869783    6.467047730    6.508328442    6.326627588
    1.729048414    6.458700909    6.499910474    6.318965131
    1.736227045    6.450345670    6.491484036    6.311293506
    1.743405676    6.441982212    6.483049332    6.303612891
    1.750584307    6.433610734    6.474606560    6.295923465
    1.757762938    6.425231434    6.466155921    6.288225404
    1.764941569    6.416844507    6.457697613    6.280518886
    1.772120200    6.408450150    6.449231833    6.272804087
    1.779298831    6.400048558    6.440758778    6.265081181
    1.786477462    6.391639923    6.432278642    6.257350344
    1.793656093    6.383224439    6.423791621    6.249611748
    1.800834725    6.374802297    6.415297908    6.241865566
    1.808013356    6.366373688    6.406797694    6.234111971
    1.815191987    6.357938802    6.398291172    6.226351134
    1.822370618    6.349497827    6.389778532    6.218583224
    1.829549249    6.341050951    6.381259962    6.210808412
    1.836727880    6.332598360    6.372735651    6.203026866
    1.843906511    6.324140240    6.364205787    6.195238754
    1.851085142    6.315676775    6.355670555    6.187444243
    1.858263773    6.307208149    6.347130140    6.179643501
    1.865442404    6.298734545    6.338584727    6.171836691
    1.872621035    6.290256144    6.330034499    6.164023978
    1.879799666    6.281773125    6.321479637    6.156205528
    1.886978297    6.273285670    6.312920323    6.148381502
    1.894156928    6.264793955    6.304356736    6.140552062
    1.901335559    6.256298158    6.295789055    6.132717370
    1.908514190    6.247798456    6.287217457    6.124877587
    1.915692821    6.239295023    6.278642121    6.117032871
    1.922871452    6.230788034    6.270063220    6.109183383
    1.930050083    6.222277661    6.261480930    6.101329278
    1.937228715    6.213764077    6.252895425    6.093470716
    1.944407346    6.205247452    6.244306876    6.085607851
    1.951585977    6.196727957    6.235715455    6.077740840
    1.958764608    6.188205761    6.227121332    6.069869836
    1.965943239    6.179681030    6.218524676    6.061994993
    1.973121870    6.171153932    6.209925657    6.054116464
    1.980300501    6.162624633    6.201324439    6.046234402
    1.987479132    6.154093296    6.192721191    6.038348956
    1.994657763    6.145560086    6.184116076    6.030460277
    2.001836394    6.137025165    6.175509258    6.022568514
    2.009015025    6.128488694    6.166900901    6.014673816
    2.016193656    6.119950834    6.158291166    6.006776331
    2.023372287    6.111411744    6.149680213    5.998876204
    2.030550918    6.102871582    6.141068202    5.990973582
    2.037729549    6.094330505    6.132455291    5.983068609
    2.044908180    6.085788669    6.123841638    5.975161431
    2.052086811    6.077246229    6.115227400    5.967252188
    2.059265442    6.068703340    6.106612731    5.959341025
    2.066444073    6.060160154    6.097997785    5.951428083
    2.073622705    6.051616822    6.089382716    5.943513501
    2.080801336    6.043073496    6.080767676    5.935597420
    2.087979967    6.034530325    6.072152815    5.927679978
    2.095158598    6.025987458    6.063538284    5.919761314
    2.102337229    6.017445042    6.054924231    5.911841564
    2.109515860    6.008903224    6.046310803    5.903920864
    2.116694491    6.000362149    6.037698149    5.895999349
    2.123873122    5.991821962    6.029086412    5.888077155
    2.131051753    5.983282805    6.020475738    5.880154414
    2.138230384    5.974744822    6.011866270    5.872231259
    2.145409015    5.966208153    6.003258151    5.864307821
    2.152587646    5.957672938    5.994651521    5.856384232
    2.159766277    5.949139316    5.986046521    5.848460621
    2.166944908    5.940607427    5.977443290    5.840537118
    2.174123539    5.932077405    5.968841967    5.832613851
    2.181302170    5.923549388    5.960242687    5.824690946
    2.188480801    5.915023510    5.951645588    5.816768531
    2.195659432    5.906499905    5.943050804    5.808846731
    2.202838063    5.897978706    5.934458469    5.800925670
    2.210016694    5.889460045    5.925868717    5.793005473
    2.217195326    5.880944052    5.917281677    5.785086262
    2.224373957    5.872430857    5.908697482    5.777168160
    2.231552588    5.863920588    5.900116262    5.769251287
    2.238731219    5.855413373    5.891538144    5.761335763
    2.245909850    5.846909339    5.882963256    5.753421709
    2.253088481    5.838408612    5.874391725    5.745509243
    2.260267112    5.829911315    5.865823677    5.737598482
    2.267445743    5.821417572    5.857259236    5.729689544
    2.274624374    5.812927506    5.848698525    5.721782544
    2.281803005    5.804441238    5.840141666    5.713877597
    2.288981636    5.795958888    5.831588782    5.705974818
    2.296160267    5.787480577    5.823039993    5.698074319
    2.303338898    5.779006422    5.814495418    5.690176214
    2.310517529    5.770536540    5.805955174    5.682280614
    2.317696160    5.762071049    5.797419381    5.674387630
    2.324874791    5.753610063    5.788888153    5.666497372
    2.332053422    5.745153697    5.780361607    5.658609948
    2.339232053    5.736702064    5.771839856    5.650725468
    2.346410684    5.728255277    5.763323014    5.642844038
    2.353589316    5.719813447    5.754811193    5.634965765
    2.360767947    5.711376684    5.746304505    5.627090754
    2.367946578    5.702945098    5.737803059    5.619219111
    2.375125209    5.694518798    5.729306966    5.611350939
    2.382303840    5.686097890    5.720816332    5.603486342
    2.389482471    5.677682481    5.712331267    5.595625422
    2.396661102    5.669272678    5.703851875    5.587768280
    2.403839733    5.660868583    5.695378263    5.579915018
    2.411018364    5.652470302    5.686910535    5.572065733
    2.418196995    5.644077936    5.678448794    5.564220527
    2.425375626    5.635691587    5.669993143    5.556379497
    2.432554257    5.627311357    5.661543683    5.548542740
    2.439732888    5.618937344    5.653100515    5.540710353
    2.446911519    5.610569647    5.644663739    5.532882431
    2.454090150    5.602208365    5.636233452    5.525059069
    2.461268781    5.593853594    5.627809754    5.517240362
    2.468447412    5.585505431    5.619392740    5.509426403
    2.475626043    5.577163970    5.610982506    5.501617283
    2.482804674    5.568829306    5.602579148    5.493813096
    2.489983306    5.560501531    5.594182758    5.486013930
    2.497161937    5.552180739    5.585793431    5.478219878
    2.504340568    5.543867020    5.577411258    5.470431027
    2.511519199    5.535560464    5.569036331    5.462647466
    2.518697830    5.527261163    5.560668739    5.454869283
    2.525876461    5.518969203    5.552308573    5.447096565
    2.533055092    5.510684674    5.543955920    5.439329397
    2.540233723    5.502407661    5.535610868    5.431567865
