# energy grid [eV]     epsr_x  epsr_y  epsr_z
#
    0.200000000   18.610076046   16.590480096   18.514231927
    0.207178631   18.615891131   16.596363302   18.520133106
    0.214357262   18.621922729   16.602475116   18.526256982
    0.221535893   18.628172169   16.608818084   18.532605296
    0.228714524   18.634640853   16.615394911   18.539179891
    0.235893155   18.641330257   16.622208464   18.545982720
    0.243071786   18.648241938   16.629261787   18.553015854
    0.250250417   18.655377535   16.636558114   18.560281485
    0.257429048   18.662738779   16.644100875   18.567781938
    0.264607679   18.670327489   16.651893716   18.575519679
    0.271786311   18.678145588   16.659940513   18.583497324
    0.278964942   18.686195102   16.668245387   18.591717650
    0.286143573   18.694478169   16.676812721   18.600183609
    0.293322204   18.702997045   16.685647187   18.608898340
    0.300500835   18.711754114   16.694753761   18.617865180
    0.307679466   18.720751897   16.704137752   18.627087688
    0.314858097   18.729993056   16.713804829   18.636569655
    0.322036728   18.739480415   16.723761051   18.646315132
    0.329215359   18.749216960   16.734012901   18.656328444
    0.336393990   18.759205862   16.744567327   18.666614225
    0.343572621   18.769450485   16.755431780   18.677177436
    0.350751252   18.779954405   16.766614266   18.688023407
    0.357929883   18.790721429   16.778123398   18.699157864
    0.365108514   18.801755611   16.789968459   18.710586977
    0.372287145   18.813061279   16.802159467   18.722317400
    0.379465776   18.824643059   16.814707256   18.734356330
    0.386644407   18.836505901   16.827623565   18.746711560
    0.393823038   18.848655115   16.840921137   18.759391554
    0.401001669   18.861096407   16.854613835   18.772405522
    0.408180301   18.873835920   16.868716780   18.785763511
    0.415358932   18.886880280   16.883246498   18.799476514
    0.422537563   18.900236657   16.898221103   18.813556589
    0.429716194   18.913912822   16.913660501   18.828017004
    0.436894825   18.927917223   16.929586635   18.842872403
    0.444073456   18.942259070   16.946023764   18.858139009
    0.451252087   18.956948435   16.962998805   18.873834850
    0.458430718   18.971996367   16.980541721   18.889980048
    0.465609349   18.987415034   16.998686001   18.906597144
    0.472787980   19.003217880   17.017469223   18.923711509
    0.479966611   19.019419829   17.036933740   18.941351824
    0.487145242   19.036037514   17.057127512   18.959550682
    0.494323873   19.053089564   17.078105119   18.978345317
    0.501502504   19.070596955   17.099929016   18.997778510
    0.508681135   19.088583437   17.122671090   19.017899718
    0.515859766   19.107076064   17.146414604   19.038766500
    0.523038397   19.126105864   17.171256670   19.060446321
    0.530217028   19.145708683   17.197311387   19.083018871
    0.537395659   19.165926263   17.224713903   19.106579065
    0.544574290   19.186807640   17.253625705   19.131240973
    0.551752922   19.208410973   17.284241601   19.157143027
    0.558931553   19.230805965   17.316799038   19.184454996
    0.566110184   19.254077122   17.351590701   19.213387453
    0.573288815   19.278328178   17.388981757   19.244204775
    0.580467446   19.303688195   17.429433746   19.277243207
    0.587646077   19.330320055   17.473537996   19.312936206
    0.594824708   19.358432348   17.522062609   19.351850152
    0.602003339   19.388295942   17.576018178   19.394734405
    0.609181970   19.420266402   17.636746890   19.442589237
    0.616360601   19.454811381   17.706031392   19.496748829
    0.623539232   19.492532432   17.786180607   19.558946157
    0.630717863   19.534131517   17.879890914   19.631204012
    0.637896494   19.580117531   17.989053529   19.714911536
    0.645075125   19.629432310   18.109184251   19.806518791
    0.652253756   19.673903151   18.206947273   19.880172129
    0.659432387   19.681255156   18.151339002   19.834554936
    0.666611018   19.593515893   17.707215947   19.487881766
    0.673789649   19.471831205   17.121855597   19.030953862
    0.680968280   19.447984319   16.928567832   18.875454476
    0.688146912   19.490732830   17.000223241   18.922868826
    0.695325543   19.551656258   17.139975036   19.020738654
    0.702504174   19.615460637   17.284974260   19.119979625
    0.709682805   19.679685779   17.424115176   19.211299058
    0.716861436   19.745189054   17.559406651   19.295291332
    0.724040067   19.813660864   17.695788596   19.374480586
    0.731218698   19.887130047   17.838949762   19.451525255
    0.738397329   19.967970783   17.995071884   19.528943178
    0.745575960   20.058974446   18.170612997   19.609134328
    0.752754591   20.163109626   18.370219129   19.694185349
    0.759933222   20.281781618   18.586515033   19.784470583
    0.767111853   20.407126944   18.758642190   19.872567606
    0.774290484   20.496459652   18.647160490   19.924082547
    0.781469115   20.445214955   17.835892417   19.869612332
    0.788647746   20.166267841   16.757694628   19.722681241
    0.795826377   19.593442860   16.246297001   19.539892969
    0.803005008   19.080595460   16.169199211   19.417619200
    0.810183639   18.981193472   16.314666317   19.445037690
    0.817362270   19.085308810   16.519592299   19.544373952
    0.824540902   19.229191263   16.716009245   19.660923808
    0.831719533   19.367460529   16.891411110   19.781437880
    0.838898164   19.493502064   17.048560800   19.905900019
    0.846076795   19.608976309   17.192465162   20.035378584
    0.853255426   19.713429527   17.325961727   20.161257581
    0.860434057   19.792494775   17.443780568   20.234826972
    0.867612688   19.799607315   17.522801335   20.113963619
    0.874791319   19.721067891   17.557706291   19.754832219
    0.881969950   19.689490005   17.622495719   19.545896484
    0.889148581   19.740677596   17.734478666   19.588508508
    0.896327212   19.818370226   17.845194171   19.703739136
    0.903505843   19.888262110   17.872554820   19.750657370
    0.910684474   19.934416608   17.735003432   19.637020862
    0.917863105   19.979505716   17.608904872   19.524965161
    0.925041736   20.045236420   17.654512141   19.564388604
    0.932220367   20.121941798   17.788908026   19.678249523
    0.939398998   20.202678923   17.950154161   19.808598684
    0.946577629   20.286736038   18.124164416   19.941491900
    0.953756260   20.375572570   18.313138887   20.077364734
    0.960934891   20.471151635   18.523511373   20.219493254
    0.968113523   20.574455283   18.760101251   20.367825382
    0.975292154   20.680496147   19.012283968   20.504074317
    0.982470785   20.760886903   19.203916831   20.543724342
    0.989649416   20.736668281   19.073296906   20.293506329
    0.996828047   20.560028488   18.218623744   19.828017155
    1.004006678   20.348328745   16.935878220   19.592314238
    1.011185309   20.207761062   16.275867708   19.529417458
    1.018363940   20.137862610   16.210909185   19.508372836
    1.025542571   20.182380947   16.392389446   19.578473400
    1.032721202   20.291406042   16.634197520   19.701205295
    1.039899833   20.413791262   16.863868554   19.829941655
    1.047078464   20.532618113   17.066485574   19.948308150
    1.054257095   20.636888622   17.238901816   20.041426128
    1.061435726   20.705775890   17.372287632   20.078395522
    1.068614357   20.750284026   17.477906679   20.072925877
    1.075792988   20.831612303   17.599030625   20.109744383
    1.082971619   20.951966989   17.739664547   20.189096001
    1.090150250   21.091795711   17.888764131   20.280892937
    1.097328881   21.240354327   18.038961686   20.373339402
    1.104507513   21.371915209   18.165525920   20.459449258
    1.111686144   21.390580850   18.173656958   20.519989529
    1.118864775   21.131188826   17.900758780   20.522228150
    1.126043406   20.783243139   17.539246468   20.506708619
    1.133222037   20.693044773   17.450980124   20.549047207
    1.140400668   20.729445943   17.533611250   20.629351309
    1.147579299   20.811748106   17.657732720   20.721717889
    1.154757930   20.966272352   17.787769851   20.819610961
    1.161936561   21.158508300   17.913601621   20.922099873
    1.169115192   21.353748065   18.032655814   21.027601064
    1.176293823   21.494974040   18.141216556   21.124555930
    1.183472454   21.418337722   18.224607884   21.171819228
    1.190651085   20.954593529   18.264109695   21.108646254
    1.197829716   20.443276974   18.258828905   20.936155043
    1.205008347   20.298193934   18.252996411   20.784352342
    1.212186978   20.395268609   18.309886870   20.787380832
    1.219365609   20.556966929   18.406938677   20.881240586
    1.226544240   20.718771096   18.516354188   20.997574268
    1.233722871   20.867704529   18.630760345   21.116171372
    1.240901503   21.004478553   18.750520478   21.234567712
    1.248080134   21.132281998   18.877149619   21.354061656
    1.255258765   21.253568213   19.007848898   21.473476293
    1.262437396   21.367169865   19.119614979   21.577721720
    1.269616027   21.461902389   19.128143528   21.609585974
    1.276794658   21.523512014   18.931258045   21.499470194
    1.283973289   21.587571576   18.745356785   21.395655901
    1.291151920   21.687539132   18.777839355   21.440421660
    1.298330551   21.802097127   18.906090789   21.551286886
    1.305509182   21.895368774   18.977724424   21.629292992
    1.312687813   21.920288868   18.837407206   21.579657752
    1.319866444   21.916539325   18.591602507   21.469578025
    1.327045075   21.968202988   18.540467602   21.478296437
    1.334223706   21.995598788   18.603637427   21.557694468
    1.341402337   21.904121904   18.641466165   21.626723619
    1.348580968   21.836046567   18.688144982   21.702162764
    1.355759599   21.901747399   18.788369326   21.806981736
    1.362938230   22.026079873   18.904753368   21.916086351
    1.370116861   22.151351187   19.004516010   21.997047437
    1.377295492   22.261957633   19.079954578   22.041720443
    1.384474124   22.377369552   19.162522528   22.106865389
    1.391652755   22.478289479   19.257422165   22.197928412
    1.398831386   22.477737284   19.340950112   22.262526362
    1.406010017   22.343619810   19.403365527   22.278047439
    1.413188648   22.284188868   19.476951781   22.322480358
    1.420367279   22.361709579   19.573150113   22.423023350
    1.427545910   22.489949725   19.679608543   22.547740641
    1.434724541   22.627347705   19.791017609   22.681602046
    1.441903172   22.764664960   19.907317761   22.821759286
    1.449081803   22.901788878   20.029490132   22.965235019
    1.456260434   23.039992320   20.156161648   23.094053624
    1.463439065   23.178452639   20.277837441   23.150641274
    1.470617696   23.312103880   20.379923629   23.099789782
    1.477796327   23.423565989   20.439718688   23.045447307
    1.484974958   23.472344210   20.372863383   22.950653474
    1.492153589   23.501806289   20.241849148   22.847388179
    1.499332220   23.614949316   20.266035517   22.899821772
    1.506510851   23.790181510   20.419421025   23.053556013
    1.513689482   23.966010464   20.595921233   23.226301260
    1.520868114   24.049967280   20.685904406   23.366740621
    1.528046745   23.925200152   20.536939581   23.432165483
    1.535225376   23.700497398   20.221762651   23.451210504
    1.542404007   23.649287430   20.037894873   23.488801424
    1.549582638   23.754823034   19.999259981   23.560355801
    1.556761269   23.961703268   20.107309848   23.707479537
    1.563939900   24.184834298   20.289904976   23.888361668
    1.571118531   24.279046300   20.482858417   24.017631055
    1.578297162   24.084804552   20.658392016   24.021042824
    1.585475793   23.798642714   20.786140772   23.966049821
    1.592654424   23.649175217   20.798139159   23.872929614
    1.599833055   23.625638871   20.717159857   23.754263768
    1.607011686   23.743388886   20.725506825   23.770980901
    1.614190317   23.956759417   20.858167307   23.935385257
    1.621368948   24.174539933   21.041256372   24.147704145
    1.628547579   24.306767237   21.233137995   24.337337122
    1.635726210   24.354177897   21.417551780   24.490120222
    1.642904841   24.464579104   21.565969863   24.637011891
    1.650083472   24.619222960   21.586634748   24.702010424
    1.657262104   24.737341009   21.492642559   24.680281681
    1.664440735   24.874598943   21.528501131   24.781636369
    1.671619366   25.084388030   21.711858825   25.015162538
    1.678797997   25.312070365   21.916960968   25.277336867
    1.685976628   25.504249789   22.011699956   25.469852024
    1.693155259   25.613770795   21.904179023   25.526214874
    1.700333890   25.569145864   21.676956492   25.495545940
    1.707512521   25.426637914   21.486987234   25.387836890
    1.714691152   25.218424635   21.406991485   25.026709545
    1.721869783   25.001483549   21.394358437   24.572684973
    1.729048414   25.056326375   21.527400694   24.542507972
    1.736227045   25.315374290   21.755421059   24.803021275
    1.743405676   25.633386995   21.989059873   25.116338127
    1.750584307   25.960131374   22.206948456   25.414154478
    1.757762938   26.278137026   22.435041517   25.717519546
    1.764941569   26.514066709   22.621849582   25.929268919
    1.772120200   26.510162866   22.663174935   25.815912013
    1.779298831   26.276698840   22.581504587   25.413866973
    1.786477462   26.133241681   22.495455353   25.162069719
    1.793656093   26.214207471   22.387771877   25.229223820
    1.800834725   26.417397963   22.284987229   25.490706012
    1.808013356   26.690489610   22.350843257   25.790674800
    1.815191987   26.948352641   22.494362293   26.045443174
    1.822370618   27.138196666   22.651746139   26.256361041
    1.829549249   27.190878286   22.785788374   26.434154137
    1.836727880   27.067155264   22.878217908   26.509828234
    1.843906511   26.736643730   22.971936853   26.427326539
    1.851085142   26.552087848   23.144212529   26.414803344
    1.858263773   26.777795176   23.405569552   26.650786604
    1.865442404   27.157653608   23.685573749   26.996540950
    1.872621035   27.489332545   23.931219114   27.345447742
    1.879799666   27.773892191   24.162419376   27.695482921
    1.886978297   27.990993211   24.371674336   28.018861713
    1.894156928   28.073488066   24.486497915   28.178888730
    1.901335559   28.019590874   24.434980225   28.040847032
    1.908514190   27.870069404   24.198535316   27.905289385
    1.915692821   27.700928092   23.893971839   27.939208928
    1.922871452   27.577623650   23.644145488   27.869144986
    1.930050083   27.356927877   23.442709961   27.460438291
    1.937228715   27.143033223   23.416700973   27.137043905
    1.944407346   27.061368968   23.525359491   27.009143624
    1.951585977   27.077795645   23.634565219   26.832637748
    1.958764608   27.164388443   23.736051593   26.822563818
    1.965943239   27.314672141   23.892775786   27.097936481
    1.973121870   27.603733454   24.125398928   27.480235815
    1.980300501   27.967072819   24.380586091   27.726782681
    1.987479132   28.338384691   24.631581330   27.789617888
    1.994657763   28.753013107   24.901821786   27.950419116
    2.001836394   29.219961476   25.231759891   28.293226152
    2.009015025   29.694626583   25.600494558   28.671998876
    2.016193656   30.110780246   25.928833916   28.950039045
    2.023372287   30.351879049   25.984723323   29.036007932
    2.030550918   30.393436225   25.644599952   28.962002189
    2.037729549   30.610008287   25.414266495   28.969568342
    2.044908180   30.875972667   25.392452147   28.972914646
    2.052086811   30.460091560   25.263987966   28.749854710
    2.059265442   29.321497084   25.083259689   28.417895997
    2.066444073   28.604072598   24.980272779   28.310773823
    2.073622705   28.146682075   24.784168958   28.192755000
    2.080801336   27.671362773   24.598240624   28.050705108
    2.087979967   27.732763390   24.737031931   28.263146868
    2.095158598   28.087643231   25.047225384   28.698293797
    2.102337229   28.442691511   25.386484988   29.137677716
    2.109515860   28.820222365   25.754678875   29.512326211
    2.116694491   29.095675733   26.043120848   29.810588663
    2.123873122   29.173461974   26.181910356   30.001832205
    2.131051753   29.284334671   26.261322251   30.169187904
    2.138230384   29.579672769   26.225833024   30.398394720
    2.145409015   29.955138543   26.163049425   30.682926633
    2.152587646   30.343358914   26.230248447   30.949432178
    2.159766277   30.765013195   26.336258566   31.072303746
    2.166944908   31.219454583   26.532453485   31.172203421
    2.174123539   31.661843232   26.788186717   31.391979748
    2.181302170   31.989890126   26.856763552   31.659959810
    2.188480801   32.141075609   26.825504467   31.816215390
    2.195659432   32.062964063   26.873940510   31.699985393
    2.202838063   31.958515606   27.014801918   31.596022466
    2.210016694   32.129224280   27.215037310   31.852778166
    2.217195326   32.469488909   27.345043670   32.283298209
    2.224373957   32.828985884   27.514503658   32.698032187
    2.231552588   33.075511549   27.779594474   32.951062429
    2.238731219   33.019844660   28.000456014   32.808316723
    2.245909850   32.804175459   28.168110120   32.522756902
    2.253088481   32.946415495   28.431983370   32.611775635
    2.260267112   33.381560374   28.760916908   32.997312700
    2.267445743   33.833218730   29.027483767   33.401637647
    2.274624374   34.262554554   29.289460760   33.830571659
    2.281803005   34.634229287   29.537163915   34.323112840
    2.288981636   34.828646975   29.664061165   34.827037321
    2.296160267   35.017108579   29.825832319   35.352782021
    2.303338898   35.280286277   30.055690400   35.836634670
    2.310517529   35.595618786   30.299157251   36.264043351
    2.317696160   36.032662214   30.628980194   36.697663438
    2.324874791   36.464313451   30.967902321   36.983232521
    2.332053422   36.814503264   31.307362072   37.113121769
    2.339232053   37.010594482   31.620328422   37.024985530
    2.346410684   37.121648634   31.791329622   36.933753269
    2.353589316   37.188762634   31.758502100   36.954685553
    2.360767947   37.318021164   31.724739852   36.812841550
    2.367946578   37.676821608   31.959511423   36.744308619
    2.375125209   38.147055935   32.416178138   37.019983952
    2.382303840   38.691824694   32.937967276   37.588981048
    2.389482471   39.300265496   33.425655274   38.321998314
    2.396661102   39.887928808   33.849921200   38.984309599
    2.403839733   40.359288450   34.257976850   39.530095874
    2.411018364   40.705051235   34.632126128   39.867964281
    2.418196995   41.043920231   34.974133613   39.617971387
    2.425375626   41.344646773   35.372118387   38.758004664
    2.432554257   41.827337410   35.898689632   38.584814478
    2.439732888   42.491090379   36.458141683   39.236261946
    2.446911519   43.239158135   37.016105159   40.109851488
    2.454090150   44.058917799   37.588432652   40.864115204
    2.461268781   44.873878504   38.173931054   41.327511105
    2.468447412   45.579232071   38.791885562   41.671190990
    2.475626043   46.120866807   39.414841311   41.958171232
    2.482804674   46.606034709   40.066755851   42.293396131
    2.489983306   47.264304907   40.636492812   42.825143794
    2.497161937   48.120605780   41.008148826   43.507777197
    2.504340568   49.031932587   41.558815598   44.391063298
    2.511519199   49.648331667   42.105301844   45.338408814
    2.518697830   49.837689228   42.152519147   46.147176288
    2.525876461   50.290078123   42.197285119   46.856433191
    2.533055092   51.254248989   42.536622287   47.371319054
    2.540233723   52.265630294   43.072940622   47.536881504
