# energy grid [eV]     epsr_x  epsr_y  epsr_z
#
    0.200000000   11.254604363   11.457651587    3.513005953
    0.207178631   11.256896344   11.459803972    3.513404697
    0.214357262   11.259270332   11.462033247    3.513817657
    0.221535893   11.261726450   11.464339518    3.514244851
    0.228714524   11.264264829   11.466722891    3.514686294
    0.235893155   11.266885601   11.469183479    3.515142004
    0.243071786   11.269588905   11.471721397    3.515611999
    0.250250417   11.272374883   11.474336765    3.516096299
    0.257429048   11.275243684   11.477029705    3.516594923
    0.264607679   11.278195457   11.479800344    3.517107889
    0.271786311   11.281230359   11.482648812    3.517635219
    0.278964942   11.284348552   11.485575244    3.518176934
    0.286143573   11.287550200   11.488579778    3.518733056
    0.293322204   11.290835474   11.491662555    3.519303606
    0.300500835   11.294204548   11.494823722    3.519888608
    0.307679466   11.297657602   11.498063428    3.520488084
    0.314858097   11.301194819   11.501381827    3.521102060
    0.322036728   11.304816388   11.504779075    3.521730559
    0.329215359   11.308522502   11.508255334    3.522373608
    0.336393990   11.312313361   11.511810770    3.523031231
    0.343572621   11.316189167   11.515445551    3.523703455
    0.350751252   11.320150128   11.519159852    3.524390308
    0.357929883   11.324196456   11.522953848    3.525091817
    0.365108514   11.328328371   11.526827721    3.525808010
    0.372287145   11.332546093   11.530781657    3.526538916
    0.379465776   11.336849851   11.534815845    3.527284566
    0.386644407   11.341239877   11.538930478    3.528044989
    0.393823038   11.345716410   11.543125753    3.528820216
    0.401001669   11.350279691   11.547401873    3.529610279
    0.408180301   11.354929969   11.551759044    3.530415209
    0.415358932   11.359667496   11.556197474    3.531235041
    0.422537563   11.364492531   11.560717380    3.532069806
    0.429716194   11.369405338   11.565318979    3.532919539
    0.436894825   11.374406184   11.570002494    3.533784276
    0.444073456   11.379495344   11.574768153    3.534664051
    0.451252087   11.384673098   11.579616186    3.535558900
    0.458430718   11.389939729   11.584546830    3.536468861
    0.465609349   11.395295529   11.589560325    3.537393970
    0.472787980   11.400740792   11.594656916    3.538334267
    0.479966611   11.406275820   11.599836852    3.539289789
    0.487145242   11.411900920   11.605100387    3.540260576
    0.494323873   11.417616403   11.610447778    3.541246669
    0.501502504   11.423422589   11.615879289    3.542248108
    0.508681135   11.429319801   11.621395188    3.543264935
    0.515859766   11.435308368   11.626995745    3.544297193
    0.523038397   11.441388626   11.632681239    3.545344924
    0.530217028   11.447560916   11.638451950    3.546408172
    0.537395659   11.453825585   11.644308164    3.547486981
    0.544574290   11.460182986   11.650250173    3.548581398
    0.551752922   11.466633479   11.656278273    3.549691467
    0.558931553   11.473177428   11.662392763    3.550817235
    0.566110184   11.479815206   11.668593951    3.551958750
    0.573288815   11.486547189   11.674882146    3.553116061
    0.580467446   11.493373763   11.681257663    3.554289215
    0.587646077   11.500295317   11.687720824    3.555478263
    0.594824708   11.507312248   11.694271955    3.556683255
    0.602003339   11.514424958   11.700911385    3.557904242
    0.609181970   11.521633859   11.707639452    3.559141277
    0.616360601   11.528939366   11.714456496    3.560394412
    0.623539232   11.536341902   11.721362863    3.561663701
    0.630717863   11.543841896   11.728358906    3.562949199
    0.637896494   11.551439787   11.735444982    3.564250959
    0.645075125   11.559136016   11.742621454    3.565569040
    0.652253756   11.566931035   11.749888689    3.566903497
    0.659432387   11.574825300   11.757247061    3.568254388
    0.666611018   11.582819277   11.764696949    3.569621771
    0.673789649   11.590913437   11.772238738    3.571005707
    0.680968280   11.599108260   11.779872819    3.572406255
    0.688146912   11.607404231   11.787599588    3.573823476
    0.695325543   11.615801846   11.795419447    3.575257433
    0.702504174   11.624301604   11.803332804    3.576708188
    0.709682805   11.632904015   11.811340073    3.578175804
    0.716861436   11.641609596   11.819441673    3.579660348
    0.724040067   11.650418872   11.827638030    3.581161883
    0.731218698   11.659332374   11.835929577    3.582680477
    0.738397329   11.668350644   11.844316751    3.584216196
    0.745575960   11.677474230   11.852799997    3.585769109
    0.752754591   11.686703689   11.861379766    3.587339286
    0.759933222   11.696039585   11.870056514    3.588926796
    0.767111853   11.705482491   11.878830705    3.590531711
    0.774290484   11.715032991   11.887702808    3.592154102
    0.781469115   11.724691674   11.896673302    3.593794042
    0.788647746   11.734459140   11.905742668    3.595451606
    0.795826377   11.744335996   11.914911397    3.597126869
    0.803005008   11.754322859   11.924179985    3.598819906
    0.810183639   11.764420356   11.933548936    3.600530795
    0.817362270   11.774629121   11.943018760    3.602259614
    0.824540902   11.784949799   11.952589976    3.604006441
    0.831719533   11.795383044   11.962263107    3.605771357
    0.838898164   11.805929518   11.972038686    3.607554443
    0.846076795   11.816589896   11.981917252    3.609355781
    0.853255426   11.827364859   11.991899352    3.611175455
    0.860434057   11.838255101   12.001985538    3.613013549
    0.867612688   11.849261324   12.012176374    3.614870148
    0.874791319   11.860384241   12.022472427    3.616745339
    0.881969950   11.871624575   12.032874276    3.618639211
    0.889148581   11.882983060   12.043382504    3.620551851
    0.896327212   11.894460441   12.053997704    3.622483349
    0.903505843   11.906057472   12.064720478    3.624433798
    0.910684474   11.917774920   12.075551433    3.626403289
    0.917863105   11.929613561   12.086491186    3.628391916
    0.925041736   11.941574185   12.097540363    3.630399774
    0.932220367   11.953657590   12.108699597    3.632426959
    0.939398998   11.965864587   12.119969531    3.634473567
    0.946577629   11.978196001   12.131350815    3.636539697
    0.953756260   11.990652665   12.142844109    3.638625450
    0.960934891   12.003235427   12.154450081    3.640730926
    0.968113523   12.015945146   12.166169409    3.642856227
    0.975292154   12.028782693   12.178002778    3.645001457
    0.982470785   12.041748953   12.189950885    3.647166721
    0.989649416   12.054844823   12.202014435    3.649352125
    0.996828047   12.068071213   12.214194141    3.651557776
    1.004006678   12.081429045   12.226490727    3.653783784
    1.011185309   12.094919258   12.238904928    3.656030260
    1.018363940   12.108542800   12.251437487    3.658297313
    1.025542571   12.122300636   12.264089156    3.660585059
    1.032721202   12.136193745   12.276860700    3.662893611
    1.039899833   12.150223117   12.289752892    3.665223086
    1.047078464   12.164389761   12.302766516    3.667573601
    1.054257095   12.178694698   12.315902367    3.669945275
    1.061435726   12.193138963   12.329161249    3.672338228
    1.068614357   12.207723609   12.342543979    3.674752583
    1.075792988   12.222449704   12.356051385    3.677188463
    1.082971619   12.237318328   12.369684302    3.679645994
    1.090150250   12.252330582   12.383443582    3.682125302
    1.097328881   12.267487579   12.397330085    3.684626515
    1.104507513   12.282790451   12.411344682    3.687149764
    1.111686144   12.298240346   12.425488259    3.689695180
    1.118864775   12.313838430   12.439761710    3.692262896
    1.126043406   12.329585883   12.454165944    3.694853048
    1.133222037   12.345483906   12.468701881    3.697465772
    1.140400668   12.361533717   12.483370454    3.700101206
    1.147579299   12.377736551   12.498172608    3.702759491
    1.154757930   12.394093663   12.513109301    3.705440770
    1.161936561   12.410606325   12.528181505    3.708145185
    1.169115192   12.427275831   12.543390203    3.710872882
    1.176293823   12.444103491   12.558736394    3.713624009
    1.183472454   12.461090636   12.574221087    3.716398715
    1.190651085   12.478238620   12.589845310    3.719197151
    1.197829716   12.495548813   12.605610099    3.722019472
    1.205008347   12.513022608   12.621516510    3.724865831
    1.212186978   12.530661419   12.637565609    3.727736386
    1.219365609   12.548466683   12.653758478    3.730631297
    1.226544240   12.566439857   12.670096216    3.733550724
    1.233722871   12.584582420   12.686579933    3.736494831
    1.240901503   12.602895876   12.703210759    3.739463783
    1.248080134   12.621381750   12.719989835    3.742457749
    1.255258765   12.640041593   12.736918320    3.745476897
    1.262437396   12.658876978   12.753997391    3.748521399
    1.269616027   12.677889503   12.771228238    3.751591430
    1.276794658   12.697080791   12.788612070    3.754687167
    1.283973289   12.716452491   12.806150110    3.757808787
    1.291151920   12.736006277   12.823843602    3.760956472
    1.298330551   12.755743851   12.841693804    3.764130406
    1.305509182   12.775666939   12.859701993    3.767330773
    1.312687813   12.795777297   12.877869465    3.770557763
    1.319866444   12.816076709   12.896197532    3.773811566
    1.327045075   12.836566986   12.914687527    3.777092375
    1.334223706   12.857249968   12.933340800    3.780400386
    1.341402337   12.878127525   12.952158720    3.783735798
    1.348580968   12.899201559   12.971142678    3.787098810
    1.355759599   12.920473999   12.990294083    3.790489628
    1.362938230   12.941946810   13.009614363    3.793908457
    1.370116861   12.963621984   13.029104968    3.797355506
    1.377295492   12.985501550   13.048767371    3.800830987
    1.384474124   13.007587567   13.068603061    3.804335114
    1.391652755   13.029882131   13.088613553    3.807868106
    1.398831386   13.052387371   13.108800382    3.811430183
    1.406010017   13.075105450   13.129165105    3.815021568
    1.413188648   13.098038569   13.149709304    3.818642487
    1.420367279   13.121188967   13.170434582    3.822293170
    1.427545910   13.144558917   13.191342565    3.825973850
    1.434724541   13.168150734   13.212434906    3.829684763
    1.441903172   13.191966770   13.233713278    3.833426146
    1.449081803   13.216009418   13.255179382    3.837198243
    1.456260434   13.240281112   13.276834944    3.841001299
    1.463439065   13.264784326   13.298681715    3.844835563
    1.470617696   13.289521580   13.320721471    3.848701287
    1.477796327   13.314495434   13.342956016    3.852598727
    1.484974958   13.339708495   13.365387182    3.856528142
    1.492153589   13.365163414   13.388016826    3.860489796
    1.499332220   13.390862891   13.410846836    3.864483954
    1.506510851   13.416809670   13.433879126    3.868510887
    1.513689482   13.443006545   13.457115641    3.872570868
    1.520868114   13.469456362   13.480558354    3.876664177
    1.528046745   13.496162015   13.504209271    3.880791094
    1.535225376   13.523126451   13.528070426    3.884951906
    1.542404007   13.550352669   13.552143886    3.889146901
    1.549582638   13.577843724   13.576431750    3.893376375
    1.556761269   13.605602727   13.600936148    3.897640624
    1.563939900   13.633632843   13.625659245    3.901939952
    1.571118531   13.661937299   13.650603241    3.906274665
    1.578297162   13.690519378   13.675770366    3.910645074
    1.585475793   13.719382428   13.701162891    3.915051494
    1.592654424   13.748529853   13.726783118    3.919494246
    1.599833055   13.777965121   13.752633381    3.923973653
    1.607011686   13.807691748   13.778716039    3.928490043
    1.614190317   13.837713316   13.805033488    3.933043748
    1.621368948   13.868033550   13.831588230    3.937635112
    1.628547579   13.898656237   13.858382802    3.942264483
    1.635726210   13.929585168   13.885419714    3.946932209
    1.642904841   13.960824213   13.912701526    3.951638641
    1.650083472   13.992377331   13.940230849    3.956384138
    1.657262104   14.024248563   13.968010345    3.961169066
    1.664440735   14.056442033   13.996042718    3.965993794
    1.671619366   14.088961943   14.024330717    3.970858699
    1.678797997   14.121812580   14.052877140    3.975764161
    1.685976628   14.154998317   14.081684826    3.980710569
    1.693155259   14.188523616   14.110756666    3.985698315
    1.700333890   14.222393026   14.140095597    3.990727799
    1.707512521   14.256611192   14.169704607    3.995799424
    1.714691152   14.291182851   14.199586735    4.000913604
    1.721869783   14.326112840   14.229745070    4.006070755
    1.729048414   14.361406096   14.260182755    4.011271302
    1.736227045   14.397067656   14.290902986    4.016515675
    1.743405676   14.433102666   14.321909016    4.021804312
    1.750584307   14.469516378   14.353204153    4.027137657
    1.757762938   14.506314157   14.384791763    4.032516160
    1.764941569   14.543501483   14.416675272    4.037940281
    1.772120200   14.581083951   14.448858163    4.043410484
    1.779298831   14.619067280   14.481343985    4.048927242
    1.786477462   14.657457312   14.514136346    4.054491037
    1.793656093   14.696260017   14.547238921    4.060102354
    1.800834725   14.735481495   14.580655449    4.065761692
    1.808013356   14.775127986   14.614389739    4.071469553
    1.815191987   14.815205864   14.648445667    4.077226449
    1.822370618   14.855721650   14.682827179    4.083032900
    1.829549249   14.896682010   14.717538294    4.088889436
    1.836727880   14.938093764   14.752583106    4.094796594
    1.843906511   14.979963884   14.787965783    4.100754919
    1.851085142   15.022299494   14.823690565    4.106764967
    1.858263773   15.065107863   14.859761763    4.112827301
    1.865442404   15.108396437   14.896183749    4.118942491
    1.872621035   15.152172952   14.932961030    4.125111123
    1.879799666   15.196445294   14.970098261    4.131333797
    1.886978297   15.241221445   15.007600096    4.137611117
    1.894156928   15.286509588   15.045471255    4.143943692
    1.901335559   15.332318125   15.083716569    4.150332145
    1.908514190   15.378655670   15.122340970    4.156777111
    1.915692821   15.425531053   15.161349491    4.163279235
    1.922871452   15.472953319   15.200747261    4.169839174
    1.930050083   15.520931742   15.240539511    4.176457596
    1.937228715   15.569475819   15.280731576    4.183135181
    1.944407346   15.618595265   15.321328895    4.189872619
    1.951585977   15.668300021   15.362337014    4.196670615
    1.958764608   15.718600395   15.403761596    4.203529884
    1.965943239   15.769507040   15.445608427    4.210451156
    1.973121870   15.821030721   15.487883396    4.217435173
    1.980300501   15.873182470   15.530592516    4.224482689
    1.987479132   15.925973646   15.573741923    4.231594474
    1.994657763   15.979415925   15.617337883    4.238771309
    2.001836394   16.033521301   15.661386791    4.246013993
    2.009015025   16.088302099   15.705895179    4.253323335
    2.016193656   16.143770978   15.750869713    4.260700163
    2.023372287   16.199940951   15.796317203    4.268145318
    2.030550918   16.256825394   15.842244604    4.275659658
    2.037729549   16.314438059   15.888659022    4.283244056
    2.044908180   16.372793090   15.935567714    4.290899401
    2.052086811   16.431905035   15.982978097    4.298626601
    2.059265442   16.491788864   16.030897751    4.306426579
    2.066444073   16.552459977   16.079334418    4.314300277
    2.073622705   16.613934213   16.128296012    4.322248653
    2.080801336   16.676227853   16.177790625    4.330272687
    2.087979967   16.739357719   16.227826548    4.338373369
    2.095158598   16.803341268   16.278412247    4.346551698
    2.102337229   16.868196382   16.329556352    4.354808662
    2.109515860   16.933941413   16.381267713    4.363145305
    2.116694491   17.000595330   16.433555443    4.371562837
    2.123873122   17.068177708   16.486428826    4.380062384
    2.131051753   17.136708742   16.539897330    4.388645013
    2.138230384   17.206209278   16.593970660    4.397311842
    2.145409015   17.276700838   16.648658759    4.406064031
    2.152587646   17.348205647   16.703971809    4.414902769
    2.159766277   17.420746665   16.759920242    4.423829271
    2.166944908   17.494347615   16.816514739    4.432844776
    2.174123539   17.569033019   16.873766244    4.441950550
    2.181302170   17.644828225   16.931685965    4.451147884
    2.188480801   17.721759432   16.990285378    4.460438094
    2.195659432   17.799853727   17.049576230    4.469822528
    2.202838063   17.879139095   17.109570564    4.479302563
    2.210016694   17.959644650   17.170280850    4.488879602
    2.217195326   18.041400842   17.231719872    4.498555078
    2.224373957   18.124438928   17.293900612    4.508330456
    2.231552588   18.208791131   17.356836404    4.518207233
    2.238731219   18.294490885   17.420540896    4.528186937
    2.245909850   18.381572973   17.485028139    4.538271131
    2.253088481   18.470073726   17.550312740    4.548461415
    2.260267112   18.560030729   17.616409584    4.558759423
    2.267445743   18.651482897   17.683333857    4.569166823
    2.274624374   18.744470716   17.751101195    4.579685324
    2.281803005   18.839036310   17.819727685    4.590316671
    2.288981636   18.935223506   17.889229872    4.601062652
    2.296160267   19.033077911   17.959624757    4.611925093
    2.303338898   19.132646995   18.030929808    4.622905864
    2.310517529   19.233980164   18.103162942    4.634006880
    2.317696160   19.337128941   18.176342622    4.645230097
    2.324874791   19.442147274   18.250488072    4.656577523
    2.332053422   19.549091343   18.325618978    4.668051210
    2.339232053   19.658019634   18.401755436    4.679653261
    2.346410684   19.768993263   18.478918184    4.691385828
    2.353589316   19.882076115   18.557128617    4.703251116
    2.360767947   19.997334951   18.636408791    4.715251384
    2.367946578   20.114839727   18.716781445    4.727388948
    2.375125209   20.234663897   18.798270019    4.739666182
    2.382303840   20.356884201   18.880898690    4.752085519
    2.389482471   20.481580982   18.964692396    4.764649451
    2.396661102   20.608838575   19.049676873    4.777360538
    2.403839733   20.738745539   19.135878681    4.790221402
    2.411018364   20.871394900   19.223325234    4.803234731
    2.418196995   21.006884437   19.312044801    4.816403274
    2.425375626   21.145316998   19.402066588    4.829729831
    2.432554257   21.286800956   19.493421001    4.843217305
    2.439732888   21.431450531   19.586139461    4.856868756
    2.446911519   21.579386047   19.680254236    4.870687231
    2.454090150   21.730734470   19.775798737    4.884675847
    2.461268781   21.885629931   19.872807603    4.898837895
    2.468447412   22.044214227   19.971316675    4.913176692
    2.475626043   22.206637541   20.071363251    4.927695652
    2.482804674   22.373058907   20.172985944    4.942398297
    2.489983306   22.543646806   20.276224631    4.957288224
    2.497161937   22.718580061   20.381120696    4.972369140
    2.504340568   22.898048666   20.487717113    4.987644864
    2.511519199   23.082254684   20.596058500    5.003119324
    2.518697830   23.271413244   20.706191191    5.018796545
    2.525876461   23.465753643   20.818163332    5.034680680
    2.533055092   23.665520571   20.932025005    5.050776099
    2.540233723   23.870975461   21.047828283    5.067087260
