# energy grid [eV]     ieps_x  ieps_y  ieps_z
#
    0.200000000    6.956278280    6.855800949    1.730394734
    0.207178631    6.954895687    6.854535395    1.730231259
    0.214357262    6.953465070    6.853225816    1.730062098
    0.221535893    6.951986505    6.851872276    1.729887259
    0.228714524    6.950460069    6.850474838    1.729706750
    0.235893155    6.948885841    6.849033568    1.729520580
    0.243071786    6.947263904    6.847548534    1.729328757
    0.250250417    6.945594343    6.846019806    1.729131292
    0.257429048    6.943877244    6.844447456    1.728928192
    0.264607679    6.942112698    6.842831558    1.728719468
    0.271786311    6.940300794    6.841172188    1.728505130
    0.278964942    6.938441629    6.839469423    1.728285188
    0.286143573    6.936535299    6.837723344    1.728059652
    0.293322204    6.934581902    6.835934033    1.727828532
    0.300500835    6.932581539    6.834101573    1.727591840
    0.307679466    6.930534314    6.832226050    1.727349588
    0.314858097    6.928440333    6.830307552    1.727101785
    0.322036728    6.926299704    6.828346168    1.726848444
    0.329215359    6.924112536    6.826341989    1.726589578
    0.336393990    6.921878944    6.824295110    1.726325197
    0.343572621    6.919599041    6.822205624    1.726055314
    0.350751252    6.917272944    6.820073630    1.725779943
    0.357929883    6.914900774    6.817899226    1.725499095
    0.365108514    6.912482650    6.815682512    1.725212784
    0.372287145    6.910018697    6.813423592    1.724921024
    0.379465776    6.907509040    6.811122570    1.724623827
    0.386644407    6.904953808    6.808779552    1.724321208
    0.393823038    6.902353130    6.806394647    1.724013181
    0.401001669    6.899707138    6.803967963    1.723699761
    0.408180301    6.897015967    6.801499612    1.723380960
    0.415358932    6.894279753    6.798989708    1.723056796
    0.422537563    6.891498633    6.796438367    1.722727281
    0.429716194    6.888672749    6.793845703    1.722392432
    0.436894825    6.885802243    6.791211837    1.722052264
    0.444073456    6.882887259    6.788536888    1.721706793
    0.451252087    6.879927943    6.785820979    1.721356035
    0.458430718    6.876924444    6.783064232    1.721000004
    0.465609349    6.873876911    6.780266773    1.720638719
    0.472787980    6.870785497    6.777428730    1.720272196
    0.479966611    6.867650356    6.774550229    1.719900450
    0.487145242    6.864471644    6.771631402    1.719523500
    0.494323873    6.861249519    6.768672380    1.719141362
    0.501502504    6.857984139    6.765673297    1.718754053
    0.508681135    6.854675667    6.762634287    1.718361592
    0.515859766    6.851324266    6.759555487    1.717963996
    0.523038397    6.847930100    6.756437035    1.717561283
    0.530217028    6.844493337    6.753279069    1.717153471
    0.537395659    6.841014144    6.750081733    1.716740579
    0.544574290    6.837492692    6.746845166    1.716322625
    0.551752922    6.833929154    6.743569515    1.715899627
    0.558931553    6.830323701    6.740254924    1.715471606
    0.566110184    6.826676510    6.736901539    1.715038579
    0.573288815    6.822987758    6.733509510    1.714600567
    0.580467446    6.819257622    6.730078986    1.714157588
    0.587646077    6.815486283    6.726610119    1.713709663
    0.594824708    6.811673922    6.723103059    1.713256812
    0.602003339    6.807820722    6.719557962    1.712799054
    0.609181970    6.803926869    6.715974983    1.712336409
    0.616360601    6.799992548    6.712354278    1.711868899
    0.623539232    6.796017946    6.708696005    1.711396544
    0.630717863    6.792003253    6.705000324    1.710919363
    0.637896494    6.787948659    6.701267393    1.710437380
    0.645075125    6.783854357    6.697497376    1.709950613
    0.652253756    6.779720538    6.693690435    1.709459086
    0.659432387    6.775547398    6.689846735    1.708962818
    0.666611018    6.771335134    6.685966440    1.708461832
    0.673789649    6.767083941    6.682049717    1.707956150
    0.680968280    6.762794019    6.678096734    1.707445793
    0.688146912    6.758465567    6.674107659    1.706930783
    0.695325543    6.754098787    6.670082664    1.706411143
    0.702504174    6.749693880    6.666021918    1.705886894
    0.709682805    6.745251051    6.661925595    1.705358060
    0.716861436    6.740770503    6.657793866    1.704824663
    0.724040067    6.736252443    6.653626908    1.704286726
    0.731218698    6.731697078    6.649424895    1.703744271
    0.738397329    6.727104616    6.645188004    1.703197321
    0.745575960    6.722475265    6.640916412    1.702645901
    0.752754591    6.717809236    6.636610297    1.702090032
    0.759933222    6.713106740    6.632269840    1.701529740
    0.767111853    6.708367989    6.627895220    1.700965046
    0.774290484    6.703593198    6.623486619    1.700395975
    0.781469115    6.698782578    6.619044219    1.699822550
    0.788647746    6.693936347    6.614568204    1.699244796
    0.795826377    6.689054720    6.610058757    1.698662737
    0.803005008    6.684137914    6.605516064    1.698076396
    0.810183639    6.679186146    6.600940310    1.697485798
    0.817362270    6.674199636    6.596331681    1.696890968
    0.824540902    6.669178602    6.591690366    1.696291929
    0.831719533    6.664123266    6.587016553    1.695688707
    0.838898164    6.659033848    6.582310430    1.695081326
    0.846076795    6.653910570    6.577572188    1.694469811
    0.853255426    6.648753655    6.572802016    1.693854186
    0.860434057    6.643563327    6.568000107    1.693234477
    0.867612688    6.638339808    6.563166651    1.692610710
    0.874791319    6.633083323    6.558301843    1.691982908
    0.881969950    6.627794099    6.553405875    1.691351098
    0.889148581    6.622472361    6.548478941    1.690715304
    0.896327212    6.617118335    6.543521235    1.690075552
    0.903505843    6.611732249    6.538532954    1.689431868
    0.910684474    6.606314330    6.533514293    1.688784278
    0.917863105    6.600864806    6.528465447    1.688132806
    0.925041736    6.595383907    6.523386616    1.687477479
    0.932220367    6.589871861    6.518277995    1.686818322
    0.939398998    6.584328898    6.513139782    1.686155362
    0.946577629    6.578755248    6.507972178    1.685488624
    0.953756260    6.573151142    6.502775380    1.684818135
    0.960934891    6.567516811    6.497549588    1.684143920
    0.968113523    6.561852486    6.492295002    1.683466006
    0.975292154    6.556158399    6.487011823    1.682784419
    0.982470785    6.550434781    6.481700252    1.682099185
    0.989649416    6.544681866    6.476360489    1.681410330
    0.996828047    6.538899885    6.470992737    1.680717882
    1.004006678    6.533089072    6.465597198    1.680021865
    1.011185309    6.527249660    6.460174073    1.679322308
    1.018363940    6.521381883    6.454723567    1.678619236
    1.025542571    6.515485973    6.449245881    1.677912675
    1.032721202    6.509562166    6.443741219    1.677202653
    1.039899833    6.503610694    6.438209786    1.676489197
    1.047078464    6.497631793    6.432651784    1.675772332
    1.054257095    6.491625696    6.427067419    1.675052086
    1.061435726    6.485592637    6.421456894    1.674328485
    1.068614357    6.479532852    6.415820414    1.673601557
    1.075792988    6.473446575    6.410158185    1.672871327
    1.082971619    6.467334041    6.404470411    1.672137824
    1.090150250    6.461195483    6.398757298    1.671401072
    1.097328881    6.455031138    6.393019050    1.670661101
    1.104507513    6.448841240    6.387255874    1.669917936
    1.111686144    6.442626022    6.381467975    1.669171604
    1.118864775    6.436385721    6.375655560    1.668422133
    1.126043406    6.430120571    6.369818833    1.667669549
    1.133222037    6.423830805    6.363958001    1.666913880
    1.140400668    6.417516660    6.358073270    1.666155152
    1.147579299    6.411178368    6.352164847    1.665393392
    1.154757930    6.404816164    6.346232936    1.664628627
    1.161936561    6.398430282    6.340277745    1.663860885
    1.169115192    6.392020957    6.334299480    1.663090191
    1.176293823    6.385588421    6.328298346    1.662316575
    1.183472454    6.379132909    6.322274550    1.661540061
    1.190651085    6.372654653    6.316228298    1.660760678
    1.197829716    6.366153887    6.310159797    1.659978452
    1.205008347    6.359630843    6.304069251    1.659193410
    1.212186978    6.353085754    6.297956867    1.658405580
    1.219365609    6.346518853    6.291822850    1.657614987
    1.226544240    6.339930370    6.285667407    1.656821660
    1.233722871    6.333320539    6.279490743    1.656025625
    1.240901503    6.326689590    6.273293064    1.655226909
    1.248080134    6.320037755    6.267074574    1.654425538
    1.255258765    6.313365263    6.260835479    1.653621541
    1.262437396    6.306672345    6.254575983    1.652814943
    1.269616027    6.299959232    6.248296292    1.652005771
    1.276794658    6.293226152    6.241996610    1.651194053
    1.283973289    6.286473335    6.235677141    1.650379815
    1.291151920    6.279701009    6.229338090    1.649563083
    1.298330551    6.272909403    6.222979660    1.648743885
    1.305509182    6.266098744    6.216602055    1.647922247
    1.312687813    6.259269259    6.210205478    1.647098196
    1.319866444    6.252421175    6.203790132    1.646271759
    1.327045075    6.245554719    6.197356220    1.645442961
    1.334223706    6.238670116    6.190903944    1.644611830
    1.341402337    6.231767592    6.184433508    1.643778391
    1.348580968    6.224847371    6.177945111    1.642942673
    1.355759599    6.217909677    6.171438956    1.642104700
    1.362938230    6.210954734    6.164915244    1.641264499
    1.370116861    6.203982764    6.158374176    1.640422097
    1.377295492    6.196993991    6.151815952    1.639577520
    1.384474124    6.189988636    6.145240772    1.638730793
    1.391652755    6.182966920    6.138648836    1.637881944
    1.398831386    6.175929064    6.132040342    1.637030998
    1.406010017    6.168875288    6.125415490    1.636177982
    1.413188648    6.161805811    6.118774478    1.635322920
    1.420367279    6.154720851    6.112117503    1.634465840
    1.427545910    6.147620627    6.105444764    1.633606768
    1.434724541    6.140505356    6.098756457    1.632745728
    1.441903172    6.133375254    6.092052778    1.631882746
    1.449081803    6.126230537    6.085333925    1.631017850
    1.456260434    6.119071421    6.078600091    1.630151063
    1.463439065    6.111898120    6.071851473    1.629282412
    1.470617696    6.104710847    6.065088265    1.628411922
    1.477796327    6.097509816    6.058310660    1.627539618
    1.484974958    6.090295239    6.051518853    1.626665527
    1.492153589    6.083067327    6.044713036    1.625789672
    1.499332220    6.075826291    6.037893401    1.624912080
    1.506510851    6.068572341    6.031060141    1.624032776
    1.513689482    6.061305685    6.024213447    1.623151784
    1.520868114    6.054026534    6.017353509    1.622269130
    1.528046745    6.046735093    6.010480518    1.621384838
    1.535225376    6.039431570    6.003594663    1.620498934
    1.542404007    6.032116170    5.996696133    1.619611441
    1.549582638    6.024789099    5.989785116    1.618722386
    1.556761269    6.017450560    5.982861801    1.617831792
    1.563939900    6.010100758    5.975926373    1.616939684
    1.571118531    6.002739895    5.968979020    1.616046086
    1.578297162    5.995368172    5.962019927    1.615151023
    1.585475793    5.987985791    5.955049280    1.614254519
    1.592654424    5.980592951    5.948067263    1.613356598
    1.599833055    5.973189851    5.941074061    1.612457284
    1.607011686    5.965776690    5.934069855    1.611556602
    1.614190317    5.958353664    5.927054829    1.610654575
    1.621368948    5.950920971    5.920029164    1.609751227
    1.628547579    5.943478806    5.912993043    1.608846581
    1.635726210    5.936027363    5.905946644    1.607940662
    1.642904841    5.928566837    5.898890148    1.607033493
    1.650083472    5.921097419    5.891823735    1.606125097
    1.657262104    5.913619302    5.884747582    1.605215497
    1.664440735    5.906132676    5.877661866    1.604304718
    1.671619366    5.898637732    5.870566766    1.603392782
    1.678797997    5.891134659    5.863462457    1.602479712
    1.685976628    5.883623645    5.856349114    1.601565532
    1.693155259    5.876104876    5.849226913    1.600650263
    1.700333890    5.868578540    5.842096027    1.599733930
    1.707512521    5.861044820    5.834956629    1.598816554
    1.714691152    5.853503903    5.827808893    1.597898158
    1.721869783    5.845955970    5.820652989    1.596978765
    1.729048414    5.838401205    5.813489088    1.596058396
    1.736227045    5.830839788    5.806317361    1.595137075
    1.743405676    5.823271900    5.799137977    1.594214824
    1.750584307    5.815697721    5.791951105    1.593291664
    1.757762938    5.808117428    5.784756913    1.592367617
    1.764941569    5.800531200    5.777555567    1.591442706
    1.772120200    5.792939212    5.770347234    1.590516952
    1.779298831    5.785341641    5.763132079    1.589590376
    1.786477462    5.777738660    5.755910267    1.588663001
    1.793656093    5.770130443    5.748681962    1.587734848
    1.800834725    5.762517163    5.741447326    1.586805937
    1.808013356    5.754898990    5.734206523    1.585876291
    1.815191987    5.747276096    5.726959713    1.584945930
    1.822370618    5.739648649    5.719707057    1.584014876
    1.829549249    5.732016819    5.712448715    1.583083149
    1.836727880    5.724380773    5.705184846    1.582150770
    1.843906511    5.716740676    5.697915607    1.581217760
    1.851085142    5.709096695    5.690641157    1.580284138
    1.858263773    5.701448994    5.683361651    1.579349927
    1.865442404    5.693797735    5.676077246    1.578415146
    1.872621035    5.686143083    5.668788096    1.577479815
    1.879799666    5.678485196    5.661494354    1.576543954
    1.886978297    5.670824237    5.654196175    1.575607584
    1.894156928    5.663160364    5.646893710    1.574670724
    1.901335559    5.655493736    5.639587111    1.573733395
    1.908514190    5.647824509    5.632276529    1.572795615
    1.915692821    5.640152840    5.624962112    1.571857404
    1.922871452    5.632478884    5.617644010    1.570918782
    1.930050083    5.624802795    5.610322371    1.569979769
    1.937228715    5.617124726    5.602997342    1.569040382
    1.944407346    5.609444830    5.595669070    1.568100642
    1.951585977    5.601763257    5.588337699    1.567160567
    1.958764608    5.594080157    5.581003374    1.566220177
    1.965943239    5.586395680    5.573666240    1.565279489
    1.973121870    5.578709973    5.566326438    1.564338523
    1.980300501    5.571023183    5.558984112    1.563397297
    1.987479132    5.563335457    5.551639401    1.562455830
    1.994657763    5.555646938    5.544292446    1.561514139
    2.001836394    5.547957772    5.536943387    1.560572244
    2.009015025    5.540268100    5.529592362    1.559630162
    2.016193656    5.532578064    5.522239509    1.558687910
    2.023372287    5.524887806    5.514884964    1.557745507
    2.030550918    5.517197466    5.507528863    1.556802971
    2.037729549    5.509507181    5.500171342    1.555860319
    2.044908180    5.501817089    5.492812534    1.554917569
    2.052086811    5.494127328    5.485452573    1.553974737
    2.059265442    5.486438033    5.478091591    1.553031842
    2.066444073    5.478749338    5.470729720    1.552088900
    2.073622705    5.471061378    5.463367090    1.551145928
    2.080801336    5.463374285    5.456003831    1.550202944
    2.087979967    5.455688190    5.448640073    1.549259963
    2.095158598    5.448003225    5.441275942    1.548317004
    2.102337229    5.440319518    5.433911567    1.547374081
    2.109515860    5.432637199    5.426547074    1.546431212
    2.116694491    5.424956394    5.419182587    1.545488413
    2.123873122    5.417277232    5.411818232    1.544545700
    2.131051753    5.409599836    5.404454133    1.543603089
    2.138230384    5.401924333    5.397090411    1.542660596
    2.145409015    5.394250845    5.389727190    1.541718238
    2.152587646    5.386579494    5.382364589    1.540776029
    2.159766277    5.378910404    5.375002731    1.539833985
    2.166944908    5.371243694    5.367641732    1.538892122
    2.174123539    5.363579483    5.360281713    1.537950456
    2.181302170    5.355917892    5.352922791    1.537009001
    2.188480801    5.348259036    5.345565082    1.536067772
    2.195659432    5.340603034    5.338208703    1.535126786
    2.202838063    5.332950000    5.330853769    1.534186055
    2.210016694    5.325300049    5.323500393    1.533245597
    2.217195326    5.317653296    5.316148689    1.532305424
    2.224373957    5.310009852    5.308798769    1.531365552
    2.231552588    5.302369830    5.301450746    1.530425995
    2.238731219    5.294733341    5.294104730    1.529486768
    2.245909850    5.287100495    5.286760830    1.528547884
    2.253088481    5.279471400    5.279419156    1.527609358
    2.260267112    5.271846164    5.272079816    1.526671204
    2.267445743    5.264224895    5.264742917    1.525733436
    2.274624374    5.256607698    5.257408567    1.524796067
    2.281803005    5.248994680    5.250076869    1.523859112
    2.288981636    5.241385943    5.242747931    1.522922583
    2.296160267    5.233781591    5.235421854    1.521986494
    2.303338898    5.226181727    5.228098743    1.521050859
    2.310517529    5.218586452    5.220778700    1.520115690
    2.317696160    5.210995867    5.213461826    1.519181002
    2.324874791    5.203410070    5.206148222    1.518246806
    2.332053422    5.195829161    5.198837987    1.517313116
    2.339232053    5.188253237    5.191531221    1.516379944
    2.346410684    5.180682395    5.184228022    1.515447304
    2.353589316    5.173116732    5.176928488    1.514515207
    2.360767947    5.165556341    5.169632714    1.513583666
    2.367946578    5.158001317    5.162340796    1.512652694
    2.375125209    5.150451754    5.155052830    1.511722302
    2.382303840    5.142907742    5.147768908    1.510792504
    2.389482471    5.135369375    5.140489126    1.509863310
    2.396661102    5.127836742    5.133213575    1.508934733
    2.403839733    5.120309933    5.125942346    1.508006784
    2.411018364    5.112789036    5.118675530    1.507079476
    2.418196995    5.105274140    5.111413219    1.506152819
    2.425375626    5.097765331    5.104155500    1.505226826
    2.432554257    5.090262696    5.096902462    1.504301507
    2.439732888    5.082766320    5.089654193    1.503376875
    2.446911519    5.075276286    5.082410780    1.502452939
    2.454090150    5.067792680    5.075172308    1.501529711
    2.461268781    5.060315582    5.067938864    1.500607203
    2.468447412    5.052845076    5.060710531    1.499685424
    2.475626043    5.045381241    5.053487394    1.498764386
    2.482804674    5.037924159    5.046269534    1.497844099
    2.489983306    5.030473908    5.039057035    1.496924573
    2.497161937    5.023030567    5.031849978    1.496005820
    2.504340568    5.015594214    5.024648443    1.495087850
    2.511519199    5.008164924    5.017452511    1.494170672
    2.518697830    5.000742775    5.010262260    1.493254297
    2.525876461    4.993327842    5.003077769    1.492338735
    2.533055092    4.985920198    4.995899115    1.491423996
    2.540233723    4.978519917    4.988726375    1.490510089
