# energy grid [eV]     epsr_x  epsr_y  epsr_z
#
    0.200000000    5.895388490   15.895679184   16.364449638
    0.207178631    5.896189745   15.899360947   16.368177971
    0.214357262    5.897019546   15.903174628   16.372039802
    0.221535893    5.897877925   15.907120447   16.376035343
    0.228714524    5.898764914   15.911198632   16.380164816
    0.235893155    5.899680545   15.915409420   16.384428448
    0.243071786    5.900624852   15.919753053   16.388826476
    0.250250417    5.901597871   15.924229784   16.393359145
    0.257429048    5.902599638   15.928839872   16.398026705
    0.264607679    5.903630190   15.933583585   16.402829416
    0.271786311    5.904689565   15.938461200   16.407767545
    0.278964942    5.905777804   15.943472999   16.412841368
    0.286143573    5.906894945   15.948619275   16.418051167
    0.293322204    5.908041032   15.953900329   16.423397232
    0.300500835    5.909216108   15.959316469   16.428879864
    0.307679466    5.910420215   15.964868012   16.434499367
    0.314858097    5.911653399   15.970555283   16.440256059
    0.322036728    5.912915707   15.976378617   16.446150260
    0.329215359    5.914207186   15.982338356   16.452182303
    0.336393990    5.915527883   15.988434850   16.458352527
    0.343572621    5.916877850   15.994668458   16.464661279
    0.350751252    5.918257136   16.001039550   16.471108915
    0.357929883    5.919665794   16.007548501   16.477695800
    0.365108514    5.921103876   16.014195697   16.484422306
    0.372287145    5.922571437   16.020981533   16.491288814
    0.379465776    5.924068532   16.027906411   16.498295713
    0.386644407    5.925595218   16.034970744   16.505443403
    0.393823038    5.927151553   16.042174954   16.512732290
    0.401001669    5.928737596   16.049519470   16.520162789
    0.408180301    5.930353406   16.057004732   16.527735325
    0.415358932    5.931999045   16.064631189   16.535450332
    0.422537563    5.933674576   16.072399299   16.543308251
    0.429716194    5.935380063   16.080309530   16.551309533
    0.436894825    5.937115570   16.088362358   16.559454639
    0.444073456    5.938881163   16.096558271   16.567744037
    0.451252087    5.940676911   16.104897764   16.576178208
    0.458430718    5.942502881   16.113381344   16.584757637
    0.465609349    5.944359144   16.122009525   16.593482823
    0.472787980    5.946245771   16.130782835   16.602354271
    0.479966611    5.948162834   16.139701808   16.611372499
    0.487145242    5.950110407   16.148766991   16.620538031
    0.494323873    5.952088565   16.157978939   16.629851403
    0.501502504    5.954097385   16.167338218   16.639313160
    0.508681135    5.956136943   16.176845406   16.648923857
    0.515859766    5.958207319   16.186501089   16.658684059
    0.523038397    5.960308593   16.196305865   16.668594340
    0.530217028    5.962440846   16.206260342   16.678655287
    0.537395659    5.964604161   16.216365140   16.688867493
    0.544574290    5.966798622   16.226620888   16.699231564
    0.551752922    5.969024316   16.237028229   16.709748118
    0.558931553    5.971281327   16.247587813   16.720417779
    0.566110184    5.973569746   16.258300304   16.731241185
    0.573288815    5.975889661   16.269166378   16.742218984
    0.580467446    5.978241163   16.280186721   16.753351835
    0.587646077    5.980624345   16.291362031   16.764640407
    0.594824708    5.983039300   16.302693017   16.776085381
    0.602003339    5.985486124   16.314180400   16.787687448
    0.609181970    5.987964913   16.325824916   16.799447312
    0.616360601    5.990475765   16.337627309   16.811365688
    0.623539232    5.993018779   16.349588337   16.823443301
    0.630717863    5.995594057   16.361708772   16.835680889
    0.637896494    5.998201701   16.373989395   16.848079202
    0.645075125    6.000841814   16.386431003   16.860639000
    0.652253756    6.003514502   16.399034404   16.873361058
    0.659432387    6.006219872   16.411800421   16.886246161
    0.666611018    6.008958031   16.424729887   16.899295107
    0.673789649    6.011729091   16.437823652   16.912508706
    0.680968280    6.014533162   16.451082576   16.925887781
    0.688146912    6.017370357   16.464507535   16.939433167
    0.695325543    6.020240791   16.478099419   16.953145714
    0.702504174    6.023144579   16.491859130   16.967026283
    0.709682805    6.026081840   16.505787586   16.981075749
    0.716861436    6.029052693   16.519885718   16.995294999
    0.724040067    6.032057257   16.534154474   17.009684936
    0.731218698    6.035095657   16.548594813   17.024246475
    0.738397329    6.038168016   16.563207713   17.038980544
    0.745575960    6.041274459   16.577994165   17.053888088
    0.752754591    6.044415115   16.592955174   17.068970062
    0.759933222    6.047590112   16.608091763   17.084227439
    0.767111853    6.050799581   16.623404969   17.099661206
    0.774290484    6.054043655   16.638895847   17.115272362
    0.781469115    6.057322468   16.654565467   17.131061925
    0.788647746    6.060636155   16.670414914   17.147030924
    0.795826377    6.063984856   16.686445292   17.163180406
    0.803005008    6.067368708   16.702657721   17.179511432
    0.810183639    6.070787854   16.719053338   17.196025080
    0.817362270    6.074242437   16.735633297   17.212722444
    0.824540902    6.077732601   16.752398770   17.229604632
    0.831719533    6.081258494   16.769350947   17.246672770
    0.838898164    6.084820263   16.786491036   17.263928001
    0.846076795    6.088418061   16.803820264   17.281371483
    0.853255426    6.092052038   16.821339875   17.299004393
    0.860434057    6.095722350   16.839051133   17.316827924
    0.867612688    6.099429153   16.856955323   17.334843286
    0.874791319    6.103172604   16.875053746   17.353051708
    0.881969950    6.106952865   16.893347726   17.371454436
    0.889148581    6.110770097   16.911838606   17.390052736
    0.896327212    6.114624465   16.930527748   17.408847889
    0.903505843    6.118516134   16.949416533   17.427841198
    0.910684474    6.122445274   16.968506349   17.447033979
    0.917863105    6.126412054   16.987798570   17.466427566
    0.925041736    6.130416647   17.007294608   17.486023312
    0.932220367    6.134459227   17.026996073   17.505822619
    0.939398998    6.138539972   17.046904521   17.525826895
    0.946577629    6.142659060   17.067021405   17.546037552
    0.953756260    6.146816673   17.087348230   17.566456024
    0.960934891    6.151012993   17.107886546   17.587083771
    0.968113523    6.155248206   17.128637938   17.607922276
    0.975292154    6.159522499   17.149604015   17.628973045
    0.982470785    6.163836064   17.170786412   17.650237602
    0.989649416    6.168189092   17.192186787   17.671717498
    0.996828047    6.172581778   17.213806825   17.693414304
    1.004006678    6.177014318   17.235648237   17.715329614
    1.011185309    6.181486913   17.257712760   17.737465046
    1.018363940    6.185999765   17.280002155   17.759822243
    1.025542571    6.190553076   17.302518215   17.782402868
    1.032721202    6.195147055   17.325262757   17.805208614
    1.039899833    6.199781910   17.348237626   17.828241194
    1.047078464    6.204457853   17.371444699   17.851502350
    1.054257095    6.209175098   17.394885878   17.874993846
    1.061435726    6.213933862   17.418563097   17.898717476
    1.068614357    6.218734365   17.442478320   17.922675057
    1.075792988    6.223576828   17.466633541   17.946868435
    1.082971619    6.228461477   17.491030785   17.971299483
    1.090150250    6.233388538   17.515672110   17.995970098
    1.097328881    6.238358242   17.540559605   18.020882203
    1.104507513    6.243370822   17.565695391   18.046037752
    1.111686144    6.248426513   17.591081628   18.071438751
    1.118864775    6.253525555   17.616720505   18.097087221
    1.126043406    6.258668188   17.642614247   18.122985201
    1.133222037    6.263854657   17.668765114   18.149134766
    1.140400668    6.269085208   17.695175403   18.175538023
    1.147579299    6.274360093   17.721847448   18.202197111
    1.154757930    6.279679563   17.748783618   18.229114205
    1.161936561    6.285043877   17.775986324   18.256291509
    1.169115192    6.290453291   17.803458013   18.283731263
    1.176293823    6.295908070   17.831201172   18.311435740
    1.183472454    6.301408479   17.859218331   18.339407248
    1.190651085    6.306954785   17.887512057   18.367648129
    1.197829716    6.312547262   17.916084963   18.396160762
    1.205008347    6.318186185   17.944939702   18.424947563
    1.212186978    6.323871831   17.974078972   18.454010985
    1.219365609    6.329604484   18.003505515   18.483353517
    1.226544240    6.335384427   18.033222120   18.512977688
    1.233722871    6.341211950   18.063231620   18.542886067
    1.240901503    6.347087346   18.093536897   18.573081261
    1.248080134    6.353010909   18.124140880   18.603565920
    1.255258765    6.358982939   18.155046548   18.634342732
    1.262437396    6.365003740   18.186256930   18.665414431
    1.269616027    6.371073617   18.217775107   18.696783791
    1.276794658    6.377192881   18.249604212   18.728453632
    1.283973289    6.383361845   18.281747429   18.760426818
    1.291151920    6.389580829   18.314208001   18.792706256
    1.298330551    6.395850154   18.346989224   18.825294904
    1.305509182    6.402170144   18.380094451   18.858195762
    1.312687813    6.408541131   18.413527093   18.891411883
    1.319866444    6.414963448   18.447290622   18.924946365
    1.327045075    6.421437431   18.481388570   18.958802359
    1.334223706    6.427963425   18.515824529   18.992983066
    1.341402337    6.434541773   18.550602157   19.027491737
    1.348580968    6.441172827   18.585725176   19.062331680
    1.355759599    6.447856942   18.621197373   19.097506253
    1.362938230    6.454594476   18.657022605   19.133018872
    1.370116861    6.461385793   18.693204796   19.168873008
    1.377295492    6.468231261   18.729747942   19.205072190
    1.384474124    6.475131253   18.766656110   19.241620005
    1.391652755    6.482086144   18.803933444   19.278520099
    1.398831386    6.489096318   18.841584161   19.315776182
    1.406010017    6.496162161   18.879612556   19.353392023
    1.413188648    6.503284064   18.918023005   19.391371456
    1.420367279    6.510462424   18.956819963   19.429718380
    1.427545910    6.517697642   18.996007969   19.468436760
    1.434724541    6.524990124   19.035591648   19.507530628
    1.441903172    6.532340281   19.075575711   19.547004086
    1.449081803    6.539748531   19.115964958   19.586861307
    1.456260434    6.547215294   19.156764283   19.627106533
    1.463439065    6.554740999   19.197978670   19.667744081
    1.470617696    6.562326075   19.239613202   19.708778334
    1.477796327    6.569970958   19.281673057   19.750213747
    1.484974958    6.577676096   19.324163518   19.792054887
    1.492153589    6.585441943   19.367089970   19.834306415
    1.499332220    6.593268952   19.410457903   19.876973033
    1.506510851    6.601157583   19.454272916   19.920059521
    1.513689482    6.609108302   19.498540720   19.963570758
    1.520868114    6.617121580   19.543267139   20.007511709
    1.528046745    6.625197898   19.588458114   20.051887432
    1.535225376    6.633337741   19.634119699   20.096703076
    1.542404007    6.641541600   19.680258056   20.141963884
    1.549582638    6.649809973   19.726879468   20.187675194
    1.556761269    6.658143365   19.773990442   20.233842445
    1.563939900    6.666542286   19.821597610   20.280471177
    1.571118531    6.675007254   19.869707652   20.327567031
    1.578297162    6.683538794   19.918327400   20.375135751
    1.585475793    6.692137438   19.967463858   20.423183190
    1.592654424    6.700803723   20.017124172   20.471715314
    1.599833055    6.709538196   20.067315641   20.520738199
    1.607011686    6.718341410   20.118045725   20.570258038
    1.614190317    6.727213924   20.169322046   20.620281145
    1.621368948    6.736156307   20.221152393   20.670813951
    1.628547579    6.745169135   20.273544727   20.721863015
    1.635726210    6.754252989   20.326507182   20.773435022
    1.642904841    6.763408462   20.380048066   20.825536787
    1.650083472    6.772636153   20.434175850   20.878175249
    1.657262104    6.781936668   20.488899180   20.931357485
    1.664440735    6.791310624   20.544227026   20.985090742
    1.671619366    6.800758643   20.600168581   21.039382422
    1.678797997    6.810281355   20.656733098   21.094240031
    1.685976628    6.819879405   20.713930085   21.149671238
    1.693155259    6.829553444   20.771769314   21.205683875
    1.700333890    6.839304128   20.830260744   21.262285928
    1.707512521    6.849132129   20.889414591   21.319485554
    1.714691152    6.859038127   20.949241320   21.377291073
    1.721869783    6.869022807   21.009751640   21.435710964
    1.729048414    6.879086866   21.070956525   21.494753881
    1.736227045    6.889231008   21.132867225   21.554428734
    1.743405676    6.899455951   21.195495272   21.614744604
    1.750584307    6.909762422   21.258852475   21.675710710
    1.757762938    6.920151158   21.322950946   21.737336475
    1.764941569    6.930622907   21.387803101   21.799631537
    1.772120200    6.941178427   21.453421678   21.862605750
    1.779298831    6.951818489   21.519819742   21.926269183
    1.786477462    6.962543871   21.587010696   21.990632122
    1.793656093    6.973355365   21.655008295   22.055705072
    1.800834725    6.984253773   21.723826658   22.121498768
    1.808013356    6.995239915   21.793480292   22.188024248
    1.815191987    7.006314622   21.863984094   22.255292797
    1.822370618    7.017478729   21.935353355   22.323315898
    1.829549249    7.028733089   22.007603787   22.392105304
    1.836727880    7.040078566   22.080751540   22.461673048
    1.843906511    7.051516038   22.154813216   22.532031452
    1.851085142    7.063046395   22.229805887   22.603193122
    1.858263773    7.074670541   22.305747108   22.675170965
    1.865442404    7.086389396   22.382654944   22.747978198
    1.872621035    7.098203890   22.460547980   22.821628350
    1.879799666    7.110114969   22.539445343   22.896135277
    1.886978297    7.122123596   22.619366751   22.971513186
    1.894156928    7.134230750   22.700332501   23.047776628
    1.901335559    7.146437418   22.782363478   23.124940496
    1.908514190    7.158744600   22.865481160   23.203020033
    1.915692821    7.171153306   22.949707624   23.282030842
    1.922871452    7.183664581   23.035065809   23.361989015
    1.930050083    7.196279506   23.121579502   23.442911150
    1.937228715    7.208999144   23.209272929   23.524814097
    1.944407346    7.221824568   23.298171431   23.607715073
    1.951585977    7.234756891   23.388301160   23.691631826
    1.958764608    7.247797246   23.479688872   23.776582746
    1.965943239    7.260946756   23.572362198   23.862586568
    1.973121870    7.274206545   23.666349741   23.949662377
    1.980300501    7.287577806   23.761681129   24.037829940
    1.987479132    7.301061811   23.858387049   24.127109756
    1.994657763    7.314659775   23.956499236   24.217522662
    2.001836394    7.328372906   24.056050540   24.309090011
    2.009015025    7.342202453   24.157074984   24.401833797
    2.016193656    7.356149691   24.259607833   24.495776652
    2.023372287    7.370215919   24.363685651   24.590941880
    2.030550918    7.384402467   24.469346341   24.687353495
    2.037729549    7.398710663   24.576629169   24.785036128
    2.044908180    7.413141805   24.685574784   24.884014989
    2.052086811    7.427697267   24.796225559   24.984316176
    2.059265442    7.442378647   24.908626054   25.085967057
    2.066444073    7.457187428   25.022822194   25.188995476
    2.073622705    7.472125001   25.138861439   25.293429850
    2.080801336    7.487192799   25.256793287   25.399299541
    2.087979967    7.502392251   25.376669332   25.506634824
    2.095158598    7.517724826   25.498543313   25.615466919
    2.102337229    7.533192294   25.622471268   25.725828219
    2.109515860    7.548796405   25.748511803   25.837752293
    2.116694491    7.564538722   25.876726197   25.951273847
    2.123873122    7.580420815   26.007178014   26.066428106
    2.131051753    7.596444295   26.139933540   26.183251323
    2.138230384    7.612610855   26.275062826   26.301782190
    2.145409015    7.628922182   26.412639152   26.422060585
    2.152587646    7.645380085   26.552738864   26.544126524
    2.159766277    7.661986592   26.695441983   26.668021526
    2.166944908    7.678743689   26.840832452   26.793789753
    2.174123539    7.695653195   26.988998510   26.921476999
    2.181302170    7.712716957   27.140032833   27.051129842
    2.188480801    7.729936891   27.294032821   27.182796485
    2.195659432    7.747314983   27.451100813   27.316527018
    2.202838063    7.764853270   27.611344634   27.452373514
    2.210016694    7.782553836   27.774878006   27.590390082
    2.217195326    7.800418804   27.941820933   27.730632929
    2.224373957    7.818450339   28.112300150   27.873160457
    2.231552588    7.836650650   28.286449643   28.018033378
    2.238731219    7.855021990   28.464411198   28.165314837
    2.245909850    7.873566659   28.646335015   28.315070545
    2.253088481    7.892287000   28.832380368   28.467368890
    2.260267112    7.911185404   29.022716273   28.622281020
    2.267445743    7.930264300   29.217522205   28.779880852
    2.274624374    7.949526181   29.416989437   28.940245755
    2.281803005    7.968973632   29.621322719   29.103457705
    2.288981636    7.988609266   29.830739914   29.269601638
    2.296160267    8.008435729   30.045473195   29.438765472
    2.303338898    8.028455729   30.265771192   29.611041398
    2.310517529    8.048672041   30.491900498   29.786526122
    2.317696160    8.069087504   30.724147282   29.965321016
    2.324874791    8.089705017   30.962819185   30.147532386
    2.332053422    8.110527550   31.208247474   30.333271796
    2.339232053    8.131558136   31.460789474   30.522656423
    2.346410684    8.152799879   31.720831255   30.715809435
    2.353589316    8.174255948   31.988790609   30.912860404
    2.360767947    8.195929579   32.265120203   31.113945669
    2.367946578    8.217824064   32.550311610   31.319208838
    2.375125209    8.239942845   32.844903158   31.528802233
    2.382303840    8.262289468   33.149483708   31.742886979
    2.389482471    8.284867470   33.464693779   31.961632454
    2.396661102    8.307680496   33.791235812   32.185219181
    2.403839733    8.330732323   34.129883279   32.413838921
    2.411018364    8.354026782   34.481489382   32.647694312
    2.418196995    8.377567749   34.846997534   32.887001059
    2.425375626    8.401359202   35.227454190   33.131989253
    2.432554257    8.425405411   35.624024224   33.382904628
    2.439732888    8.449710748   36.038008030   33.640010370
    2.446911519    8.474279519   36.470861968   33.903588647
    2.454090150    8.499116165   36.924223662   34.173942111
    2.461268781    8.524225277   37.399941814   34.451396522
    2.468447412    8.549611591   37.900112017   34.736303510
    2.475626043    8.575279975   38.427120332   35.029043797
    2.482804674    8.601235436   38.983696166   35.330030594
    2.489983306    8.627483104   39.572977251   35.639713868
    2.497161937    8.654028258   40.198590131   35.958585551
    2.504340568    8.680876387   40.864750682   36.287184853
    2.511519199    8.708033159   41.576389174   36.626105730
    2.518697830    8.735504345   42.339307885   36.976005813
    2.525876461    8.763295893   43.160383694   37.337617054
    2.533055092    8.791413946   44.047825796   37.711758890
    2.540233723    8.819864835   45.011523496   38.099354786
