# energy grid [eV]     epsr_x  epsr_y  epsr_z
#
    0.200000000    6.198311793   16.332853791   16.913867569
    0.207178631    6.199376219   16.336920325   16.918103828
    0.214357262    6.200479406   16.341132983   16.922492759
    0.221535893    6.201621489   16.345492054   16.927034718
    0.228714524    6.202802611   16.349997837   16.931730071
    0.235893155    6.204022922   16.354650643   16.936579201
    0.243071786    6.205282579   16.359450792   16.941582505
    0.250250417    6.206581745   16.364398615   16.946740394
    0.257429048    6.207920591   16.369494456   16.952053294
    0.264607679    6.209299295   16.374738666   16.957521648
    0.271786311    6.210718042   16.380131611   16.963145912
    0.278964942    6.212177028   16.385673666   16.968926560
    0.286143573    6.213676456   16.391365218   16.974864081
    0.293322204    6.215216535   16.397206666   16.980958982
    0.300500835    6.216797489   16.403198420   16.987211787
    0.307679466    6.218419546   16.409340900   16.993623035
    0.314858097    6.220082948   16.415634540   17.000193286
    0.322036728    6.221787945   16.422079785   17.006923117
    0.329215359    6.223534800   16.428677093   17.013813124
    0.336393990    6.225323787   16.435426932   17.020863922
    0.343572621    6.227155190   16.442329784   17.028076148
    0.350751252    6.229029310   16.449386144   17.035450457
    0.357929883    6.230946458   16.456596517   17.042987527
    0.365108514    6.232906962   16.463961424   17.050688057
    0.372287145    6.234911161   16.471481395   17.058552771
    0.379465776    6.236959415   16.479156978   17.066582413
    0.386644407    6.239052096   16.486988730   17.074777754
    0.393823038    6.241189598   16.494977224   17.083139590
    0.401001669    6.243372332   16.503123045   17.091668743
    0.408180301    6.245600729   16.511426793   17.100366064
    0.415358932    6.247875241   16.519889082   17.109232429
    0.422537563    6.250196345   16.528510540   17.118268749
    0.429716194    6.252564540   16.537291809   17.127475962
    0.436894825    6.254980354   16.546233548   17.136855041
    0.444073456    6.257444340   16.555336429   17.146406994
    0.451252087    6.259957084   16.564601139   17.156132864
    0.458430718    6.262519201   16.574028382   17.166033733
    0.465609349    6.265131345   16.583618878   17.176110724
    0.472787980    6.267794203   16.593373362   17.186365000
    0.479966611    6.270508507   16.603292588   17.196797773
    0.487145242    6.273275031   16.613377323   17.207410301
    0.494323873    6.276094595   16.623628355   17.218203894
    0.501502504    6.278968074   16.634046488   17.229179916
    0.508681135    6.281896398   16.644632546   17.240339790
    0.515859766    6.284880560   16.655387369   17.251685002
    0.523038397    6.287921618   16.666311817   17.263217104
    0.530217028    6.291020706   16.677406772   17.274937724
    0.537395659    6.294179039   16.688673133   17.286848566
    0.544574290    6.297397922   16.700111823   17.298951421
    0.551752922    6.300678760   16.711723783   17.311248170
    0.558931553    6.304023065   16.723509979   17.323740799
    0.566110184    6.307432475   16.735471401   17.336431402
    0.573288815    6.310908761   16.747609059   17.349322198
    0.580467446    6.314453847   16.759923993   17.362415537
    0.587646077    6.318069830   16.772417265   17.375713919
    0.594824708    6.321758995   16.785089966   17.389220010
    0.602003339    6.325523848   16.797943217   17.402936660
    0.609181970    6.329367138   16.810978168   17.416866923
    0.616360601    6.333291897   16.824195999   17.431014090
    0.623539232    6.337301473   16.837597928   17.445381710
    0.630717863    6.341399586   16.851185206   17.459973633
    0.637896494    6.345590377   16.864959126   17.474794049
    0.645075125    6.349878482   16.878921019   17.489847540
    0.652253756    6.354269106   16.893072266   17.505139138
    0.659432387    6.358768130   16.907414296   17.520674403
    0.666611018    6.363382223   16.921948592   17.536459507
    0.673789649    6.368118997   16.936676702   17.552501348
    0.680968280    6.372987187   16.951600241   17.568807681
    0.688146912    6.377996876   16.966720901   17.585387286
    0.695325543    6.383159792   16.982040468   17.602250181
    0.702504174    6.388489661   16.997560830   17.619407887
    0.709682805    6.394002686   17.013284000   17.636873769
    0.716861436    6.399718151   17.029212137   17.654663480
    0.724040067    6.405659214   17.045347580   17.672795536
    0.731218698    6.411853967   17.061692887   17.691292085
    0.738397329    6.418336848   17.078250889   17.710179927
    0.745575960    6.425150566   17.095024767   17.729491904
    0.752754591    6.432348744   17.112018151   17.749268810
    0.759933222    6.439999593   17.129235259   17.769562040
    0.767111853    6.448191076   17.146681098   17.790437308
    0.774290484    6.457038179   17.164361737   17.811979879
    0.781469115    6.466693085   17.182284698   17.834301894
    0.788647746    6.477358898   17.200459471   17.857552233
    0.795826377    6.489306066   17.218898144   17.881928326
    0.803005008    6.502883717   17.237615830   17.907684320
    0.810183639    6.518490298   17.256629560   17.935110066
    0.817362270    6.536357810   17.275950115   17.964376415
    0.824540902    6.555566819   17.295544731   17.994828818
    0.831719533    6.570133012   17.315188923   18.022180565
    0.838898164    6.557756952   17.334040508   18.030443865
    0.846076795    6.484430816   17.350814036   17.995234055
    0.853255426    6.399833039   17.367392838   17.952189676
    0.860434057    6.376648676   17.386531444   17.953451394
    0.867612688    6.389197821   17.407259945   17.980610858
    0.874791319    6.409916161   17.428537161   18.013909794
    0.881969950    6.430485837   17.450050748   18.047396096
    0.889148581    6.449423189   17.471747225   18.080021920
    0.896327212    6.466895174   17.493635705   18.111926570
    0.903505843    6.483367343   17.515736711   18.143467746
    0.910684474    6.499300673   17.538070707   18.175005416
    0.917863105    6.515107479   17.560656432   18.206872009
    0.925041736    6.531168434   17.583511563   18.239387158
    0.932220367    6.547862948   17.606653869   18.272883065
    0.939398998    6.565603393   17.630102527   18.307734065
    0.946577629    6.584873286   17.653879581   18.344390932
    0.953756260    6.606270173   17.678011584   18.383420526
    0.960934891    6.630546026   17.702531153   18.425543608
    0.968113523    6.658603437   17.727476844   18.471630268
    0.975292154    6.691269626   17.752884630   18.522480471
    0.982470785    6.728129388   17.778743728   18.577693420
    0.989649416    6.762607836   17.804810403   18.630905025
    0.996828047    6.764653974   17.829952140   18.653016965
    1.004006678    6.656185689   17.851217674   18.568415351
    1.011185309    6.437403336   17.868621313   18.377305401
    1.018363940    6.313565565   17.889944788   18.278493979
    1.025542571    6.309033926   17.916118993   18.295593442
    1.032721202    6.342892580   17.944088320   18.350260149
    1.039899833    6.380900110   17.972566213   18.409360842
    1.047078464    6.415217831   18.001267679   18.465341618
    1.054257095    6.445166468   18.030180865   18.517593702
    1.061435726    6.471569540   18.059353403   18.566979129
    1.068614357    6.495397270   18.088841844   18.614523022
    1.075792988    6.517499234   18.118702552   18.661161868
    1.082971619    6.538594471   18.148992372   18.707740914
    1.090150250    6.559302219   18.179769830   18.755041326
    1.097328881    6.580118873   18.211088908   18.803706612
    1.104507513    6.601150083   18.242960437   18.853725802
    1.111686144    6.620892527   18.275185406   18.902177952
    1.118864775    6.631966305   18.306775129   18.935381627
    1.126043406    6.615901131   18.335243714   18.919310153
    1.133222037    6.575918632   18.361059312   18.859786114
    1.140400668    6.560151497   18.390798047   18.845115040
    1.147579299    6.571208586   18.424870423   18.880002171
    1.154757930    6.590693467   18.460854230   18.930572505
    1.161936561    6.611336476   18.497862795   18.983371709
    1.169115192    6.631673304   18.535830543   19.035585542
    1.176293823    6.651821331   18.574946636   19.087276458
    1.183472454    6.672250529   18.615481476   19.139131733
    1.190651085    6.693392301   18.657660800   19.191808216
    1.197829716    6.715101770   18.701242694   19.245249264
    1.205008347    6.734686452   18.743814433   19.296313213
    1.212186978    6.740504915   18.775249492   19.331082847
    1.219365609    6.707905582   18.774188886   19.319988649
    1.226544240    6.652506712   18.754126094   19.281869780
    1.233722871    6.634141193   18.766817008   19.288720814
    1.240901503    6.646180729   18.806540666   19.332634940
    1.248080134    6.666442479   18.854135455   19.387010204
    1.255258765    6.687124603   18.902895916   19.442543514
    1.262437396    6.706637925   18.951509933   19.497414871
    1.269616027    6.724976611   19.000059147   19.551727714
    1.276794658    6.742445409   19.048925388   19.605986695
    1.283973289    6.759363697   19.098545271   19.660752609
    1.291151920    6.776013304   19.149379244   19.716593725
    1.298330551    6.792643787   19.201931841   19.774108165
    1.305509182    6.809488120   19.256769815   19.833951121
    1.312687813    6.826773019   19.314469816   19.896804892
    1.319866444    6.844700508   19.375253411   19.963087423
    1.327045075    6.863314312   19.437357513   20.031597144
    1.334223706    6.881959615   19.490963098   20.094412090
    1.341402337    6.898174746   19.506263378   20.126802421
    1.348580968    6.910610512   19.468745125   20.116581337
    1.355759599    6.925055268   19.457409564   20.128554720
    1.362938230    6.937715635   19.491507422   20.171447931
    1.370116861    6.932786957   19.516961750   20.184254134
    1.377295492    6.917266507   19.529060129   20.169382642
    1.384474124    6.913895087   19.558780607   20.171942997
    1.391652755    6.920468979   19.601778883   20.190485963
    1.398831386    6.940009974   19.661391810   20.250694541
    1.406010017    6.968263576   19.731165821   20.340694869
    1.413188648    7.000236995   19.803662979   20.441716477
    1.420367279    7.034886550   19.876987446   20.548905819
    1.427545910    7.072549664   19.951367577   20.662631242
    1.434724541    7.112627832   20.027210635   20.781387815
    1.441903172    7.148526928   20.103441681   20.888947575
    1.449081803    7.152112567   20.173372121   20.915967616
    1.456260434    7.063876715   20.222149928   20.715737190
    1.463439065    6.921668553   20.260720769   20.381319381
    1.470617696    6.870264608   20.328430491   20.269110957
    1.477796327    6.893953494   20.422695726   20.339985405
    1.484974958    6.939520847   20.531373559   20.462292292
    1.492153589    6.988485247   20.651308489   20.589941100
    1.499332220    7.036814646   20.780566027   20.713048880
    1.506510851    7.081435192   20.904712222   20.827345924
    1.513689482    7.109205606   20.959136191   20.916253740
    1.520868114    7.086307517   20.787150886   20.937745761
    1.528046745    7.011373305   20.411055144   20.901493538
    1.535225376    6.954908331   20.189619039   20.907446356
    1.542404007    6.945712866   20.181748393   20.964070449
    1.549582638    6.971951603   20.287338610   21.052007284
    1.556761269    7.010806514   20.427526823   21.153733820
    1.563939900    7.051225924   20.570126518   21.258627268
    1.571118531    7.090892503   20.709160722   21.364613581
    1.578297162    7.130218409   20.846454393   21.472730394
    1.585475793    7.170207657   20.985309165   21.584722589
    1.592654424    7.211672498   21.127847655   21.701796182
    1.599833055    7.253909362   21.269541296   21.821532813
    1.607011686    7.290024484   21.379614674   21.926623541
    1.614190317    7.296850813   21.359535448   21.960755175
    1.621368948    7.257944821   21.146529440   21.885815594
    1.628547579    7.228024164   21.007427114   21.843257827
    1.635726210    7.213299997   21.054084541   21.871384409
    1.642904841    7.182513532   21.151230416   21.904020745
    1.650083472    7.148910302   21.204118343   21.962946973
    1.657262104    7.106294934   21.201363815   22.040931545
    1.664440735    7.098582151   21.256729486   22.156212645
    1.671619366    7.129727484   21.371596330   22.278397909
    1.678797997    7.171115283   21.470126068   22.299867246
    1.685976628    7.210231581   21.507837072   22.135111372
    1.693155259    7.248334924   21.556656399   22.007438869
    1.700333890    7.288060386   21.667720494   22.067408200
    1.707512521    7.328690446   21.807922573   22.212164992
    1.714691152    7.369733287   21.954626172   22.374893731
    1.721869783    7.409782335   22.093568073   22.534658098
    1.729048414    7.442132782   22.189931789   22.672363616
    1.736227045    7.452266828   22.189502665   22.745501539
    1.743405676    7.440624077   22.139083610   22.739629292
    1.750584307    7.439724680   22.156083992   22.761027256
    1.757762938    7.466754881   22.259285545   22.868311282
    1.764941569    7.504930910   22.396173523   23.015223959
    1.772120200    7.542990177   22.536306589   23.170222869
    1.779298831    7.590406782   22.691007693   23.341249591
    1.786477462    7.645304576   22.861354650   23.521207172
    1.793656093    7.687170489   23.030928078   23.665025068
    1.800834725    7.674437831   23.164099705   23.681819054
    1.808013356    7.589296323   23.215724234   23.528495417
    1.815191987    7.524737275   23.188745539   23.328549218
    1.822370618    7.531862678   23.128964208   23.250392147
    1.829549249    7.565432632   23.073068435   23.327661564
    1.836727880    7.594661439   22.985868343   23.457560002
    1.843906511    7.644851869   23.000170892   23.609856879
    1.851085142    7.718922591   23.110539643   23.763014797
    1.858263773    7.800252141   23.266878267   23.932970621
    1.865442404    7.869224607   23.427121582   24.113254374
    1.872621035    7.908244896   23.536832937   24.261652831
    1.879799666    7.949899231   23.659545579   24.415642123
    1.886978297    7.982417328   23.818094649   24.562586719
    1.894156928    7.868241653   23.893275893   24.521182637
    1.901335559    7.576341178   23.832482681   24.238638974
    1.908514190    7.394789299   23.832412273   24.055682272
    1.915692821    7.376699847   23.906883700   24.024526391
    1.922871452    7.418986267   23.926470305   24.060346264
    1.930050083    7.438626197   23.914140479   24.127031544
    1.937228715    7.433660325   23.977886027   24.229926037
    1.944407346    7.454910496   24.137990923   24.383035790
    1.951585977    7.514307609   24.322373337   24.568910395
    1.958764608    7.602645357   24.479421998   24.766095471
    1.965943239    7.689918093   24.633464878   24.965724055
    1.973121870    7.727082221   24.785530914   25.151120901
    1.980300501    7.659588520   24.870936322   25.286944051
    1.987479132    7.580551481   24.955181547   25.419784551
    1.994657763    7.581218768   25.096623008   25.590459264
    2.001836394    7.608465845   25.244602163   25.763829738
    2.009015025    7.646320478   25.384925909   25.905492622
    2.016193656    7.657749463   25.438498554   25.906338834
    2.023372287    7.624271926   25.427367204   25.784941590
    2.030550918    7.598108613   25.513283228   25.743042210
    2.037729549    7.619453930   25.702491624   25.855431026
    2.044908180    7.666996679   25.929306541   26.064627071
    2.052086811    7.696885339   26.119997093   26.265554328
    2.059265442    7.709063126   26.215214858   26.374434721
    2.066444073    7.722460333   26.287983951   26.398387660
    2.073622705    7.761877938   26.464215425   26.512513396
    2.080801336    7.827250465   26.721890195   26.745323960
    2.087979967    7.900118058   27.001260189   27.017445018
    2.095158598    7.967993475   27.245633592   27.270347901
    2.102337229    8.020779861   27.369395541   27.449671481
    2.109515860    8.063448432   27.351063859   27.565584413
    2.116694491    8.114147374   27.364147214   27.717971599
    2.123873122    8.182647672   27.555151448   27.970984122
    2.131051753    8.236599569   27.798014526   28.197479865
    2.138230384    8.211817505   27.870649292   28.125671436
    2.145409015    8.097252968   27.709106360   27.659341423
    2.152587646    7.941631876   27.594955736   27.208783070
    2.159766277    7.838643833   27.709593736   27.082588814
    2.166944908    7.857507257   27.991200883   27.276782560
    2.174123539    7.935809155   28.300719965   27.581230298
    2.181302170    8.019150550   28.567473843   27.873924868
    2.188480801    8.085976202   28.808498457   28.134772351
    2.195659432    8.128747039   29.029004489   28.357621619
    2.202838063    8.174933437   29.295672203   28.581527264
    2.210016694    8.214911273   29.614754977   28.800224710
    2.217195326    8.223183555   29.954292554   29.015190766
    2.224373957    8.246937765   30.323768641   29.276103774
    2.231552588    8.281745187   30.647232180   29.569957280
    2.238731219    8.266982901   30.708925981   29.863707741
    2.245909850    8.201039906   30.430813060   30.139635783
    2.253088481    8.168669220   30.335229172   30.403271117
    2.260267112    8.197294479   30.574391297   30.600658652
    2.267445743    8.236683615   30.880988402   30.657483272
    2.274624374    8.279944542   31.177256681   30.679814267
    2.281803005    8.327370795   31.449075578   30.794799333
    2.288981636    8.365795775   31.628434545   30.960475078
    2.296160267    8.410790257   31.842774964   31.149089467
    2.303338898    8.458378544   32.093963038   31.379657993
    2.310517529    8.490001055   32.341952750   31.651551798
    2.317696160    8.508937189   32.665234142   31.965378129
    2.324874791    8.521972985   33.034008139   32.304986138
    2.332053422    8.536680140   33.416217697   32.642995923
    2.339232053    8.563105313   33.788453891   32.975009762
    2.346410684    8.598458595   34.142902059   33.303165713
    2.353589316    8.641193378   34.550996743   33.656745914
    2.360767947    8.682427595   34.968149824   33.986217500
    2.367946578    8.708017819   35.329880459   34.182291697
    2.375125209    8.708426680   35.625023594   34.199896895
    2.382303840    8.729940023   36.039042566   34.332012451
    2.389482471    8.787596099   36.573113209   34.672269859
    2.396661102    8.850640598   37.136920631   35.062765946
    2.403839733    8.902396610   37.768646512   35.427088322
    2.411018364    8.954062786   38.463502763   35.769369524
    2.418196995    9.023623891   39.201440194   36.102924079
    2.425375626    9.085689531   39.888187703   36.201063172
    2.432554257    9.123977445   40.494117509   36.065681922
    2.439732888    9.159802991   41.167067999   36.197299503
    2.446911519    9.156718117   41.667627291   36.470516549
    2.454090150    9.111893130   41.973871034   36.736575779
    2.461268781    9.058071519   42.326877656   37.091306063
    2.468447412    9.010900715   42.978289465   37.472072700
    2.475626043    8.975055265   44.101184713   37.807413960
    2.482804674    8.977952232   45.648754762   38.215089670
    2.489983306    9.028735888   47.583485480   38.796350329
    2.497161937    9.085293692   49.832971861   39.473505100
    2.504340568    9.155202790   52.265865121   40.199163470
    2.511519199    9.229002897   54.335487742   40.898160906
    2.518697830    9.285894989   54.217144755   41.452395536
    2.525876461    9.305583331   49.869603227   41.674802040
    2.533055092    9.319525668   45.028912374   41.804531655
    2.540233723    9.363881638   42.397343549   42.170325998
