# energy grid [eV]     ieps_x  ieps_y  ieps_z
#
    0.200000000    7.001787995    2.270968161    7.352774031
    0.207178631    7.000290754    2.270669997    7.351394141
    0.214357262    6.998741674    2.270361517    7.349966372
    0.221535893    6.997140855    2.270042739    7.348490806
    0.228714524    6.995488397    2.269713685    7.346967523
    0.235893155    6.993784405    2.269374377    7.345396608
    0.243071786    6.992028984    2.269024835    7.343778149
    0.250250417    6.990222246    2.268665083    7.342112235
    0.257429048    6.988364304    2.268295143    7.340398956
    0.264607679    6.986455273    2.267915040    7.338638408
    0.271786311    6.984495273    2.267524797    7.336830687
    0.278964942    6.982484425    2.267124440    7.334975892
    0.286143573    6.980422855    2.266713993    7.333074123
    0.293322204    6.978310690    2.266293483    7.331125485
    0.300500835    6.976148061    2.265862936    7.329130082
    0.307679466    6.973935102    2.265422379    7.327088024
    0.314858097    6.971671947    2.264971841    7.324999419
    0.322036728    6.969358737    2.264511348    7.322864381
    0.329215359    6.966995613    2.264040930    7.320683023
    0.336393990    6.964582719    2.263560616    7.318455463
    0.343572621    6.962120203    2.263070436    7.316181819
    0.350751252    6.959608213    2.262570420    7.313862212
    0.357929883    6.957046903    2.262060599    7.311496765
    0.365108514    6.954436428    2.261541003    7.309085603
    0.372287145    6.951776944    2.261011665    7.306628854
    0.379465776    6.949068612    2.260472617    7.304126645
    0.386644407    6.946311594    2.259923891    7.301579108
    0.393823038    6.943506055    2.259365521    7.298986375
    0.401001669    6.940652163    2.258797540    7.296348583
    0.408180301    6.937750087    2.258219982    7.293665867
    0.415358932    6.934800000    2.257632882    7.290938366
    0.422537563    6.931802075    2.257036274    7.288166220
    0.429716194    6.928756490    2.256430194    7.285349572
    0.436894825    6.925663423    2.255814678    7.282488566
    0.444073456    6.922523056    2.255189762    7.279583347
    0.451252087    6.919335573    2.254555482    7.276634063
    0.458430718    6.916101159    2.253911875    7.273640863
    0.465609349    6.912820002    2.253258980    7.270603899
    0.472787980    6.909492292    2.252596832    7.267523323
    0.479966611    6.906118220    2.251925471    7.264399289
    0.487145242    6.902697982    2.251244936    7.261231953
    0.494323873    6.899231773    2.250555264    7.258021472
    0.501502504    6.895719790    2.249856495    7.254768006
    0.508681135    6.892162235    2.249148669    7.251471715
    0.515859766    6.888559309    2.248431825    7.248132762
    0.523038397    6.884911216    2.247706004    7.244751309
    0.530217028    6.881218161    2.246971247    7.241327522
    0.537395659    6.877480353    2.246227594    7.237861568
    0.544574290    6.873697999    2.245475085    7.234353614
    0.551752922    6.869871313    2.244713764    7.230803830
    0.558931553    6.866000505    2.243943672    7.227212387
    0.566110184    6.862085791    2.243164850    7.223579456
    0.573288815    6.858127387    2.242377341    7.219905211
    0.580467446    6.854125511    2.241581188    7.216189827
    0.587646077    6.850080381    2.240776433    7.212433479
    0.594824708    6.845992219    2.239963120    7.208636346
    0.602003339    6.841861248    2.239141292    7.204798605
    0.609181970    6.837687691    2.238310993    7.200920436
    0.616360601    6.833471773    2.237472267    7.197002021
    0.623539232    6.829213723    2.236625158    7.193043540
    0.630717863    6.824913767    2.235769710    7.189045178
    0.637896494    6.820572135    2.234905969    7.185007119
    0.645075125    6.816189059    2.234033978    7.180929548
    0.652253756    6.811764771    2.233153783    7.176812652
    0.659432387    6.807299505    2.232265429    7.172656618
    0.666611018    6.802793495    2.231368961    7.168461636
    0.673789649    6.798246977    2.230464427    7.164227894
    0.680968280    6.793660189    2.229551870    7.159955584
    0.688146912    6.789033369    2.228631337    7.155644897
    0.695325543    6.784366756    2.227702875    7.151296026
    0.702504174    6.779660592    2.226766530    7.146909165
    0.709682805    6.774915118    2.225822348    7.142484507
    0.716861436    6.770130576    2.224870377    7.138022249
    0.724040067    6.765307211    2.223910662    7.133522586
    0.731218698    6.760445267    2.222943252    7.128985717
    0.738397329    6.755544991    2.221968193    7.124411838
    0.745575960    6.750606627    2.220985532    7.119801148
    0.752754591    6.745630425    2.219995318    7.115153848
    0.759933222    6.740616633    2.218997597    7.110470138
    0.767111853    6.735565499    2.217992418    7.105750218
    0.774290484    6.730477274    2.216979828    7.100994291
    0.781469115    6.725352208    2.215959875    7.096202560
    0.788647746    6.720190553    2.214932607    7.091375227
    0.795826377    6.714992562    2.213898073    7.086512497
    0.803005008    6.709758487    2.212856321    7.081614575
    0.810183639    6.704488582    2.211807399    7.076681665
    0.817362270    6.699183101    2.210751356    7.071713974
    0.824540902    6.693842298    2.209688239    7.066711709
    0.831719533    6.688466431    2.208618099    7.061675077
    0.838898164    6.683055754    2.207540983    7.056604285
    0.846076795    6.677610524    2.206456940    7.051499543
    0.853255426    6.672130997    2.205366020    7.046361058
    0.860434057    6.666617433    2.204268271    7.041189041
    0.867612688    6.661070088    2.203163742    7.035983701
    0.874791319    6.655489221    2.202052482    7.030745249
    0.881969950    6.649875090    2.200934540    7.025473895
    0.889148581    6.644227955    2.199809966    7.020169853
    0.896327212    6.638548076    2.198678808    7.014833332
    0.903505843    6.632835712    2.197541116    7.009464545
    0.910684474    6.627091123    2.196396939    7.004063706
    0.917863105    6.621314569    2.195246326    6.998631027
    0.925041736    6.615506312    2.194089328    6.993166722
    0.932220367    6.609666612    2.192925992    6.987671005
    0.939398998    6.603795730    2.191756368    6.982144089
    0.946577629    6.597893928    2.190580507    6.976586190
    0.953756260    6.591961466    2.189398456    6.970997522
    0.960934891    6.585998606    2.188210267    6.965378301
    0.968113523    6.580005611    2.187015987    6.959728741
    0.975292154    6.573982740    2.185815666    6.954049059
    0.982470785    6.567930258    2.184609355    6.948339471
    0.989649416    6.561848424    2.183397101    6.942600193
    0.996828047    6.555737501    2.182178956    6.936831440
    1.004006678    6.549597750    2.180954967    6.931033431
    1.011185309    6.543429434    2.179725184    6.925206381
    1.018363940    6.537232813    2.178489658    6.919350508
    1.025542571    6.531008151    2.177248436    6.913466029
    1.032721202    6.524755707    2.176001569    6.907553162
    1.039899833    6.518475743    2.174749105    6.901612123
    1.047078464    6.512168522    2.173491094    6.895643130
    1.054257095    6.505834303    2.172227585    6.889646401
    1.061435726    6.499473347    2.170958627    6.883622155
    1.068614357    6.493085916    2.169684270    6.877570608
    1.075792988    6.486672270    2.168404561    6.871491978
    1.082971619    6.480232668    2.167119552    6.865386484
    1.090150250    6.473767372    2.165829289    6.859254344
    1.097328881    6.467276640    2.164533823    6.853095775
    1.104507513    6.460760732    2.163233202    6.846910996
    1.111686144    6.454219907    2.161927475    6.840700224
    1.118864775    6.447654424    2.160616691    6.834463679
    1.126043406    6.441064541    2.159300898    6.828201576
    1.133222037    6.434450515    2.157980145    6.821914136
    1.140400668    6.427812606    2.156654480    6.815601574
    1.147579299    6.421151069    2.155323953    6.809264110
    1.154757930    6.414466162    2.153988610    6.802901961
    1.161936561    6.407758140    2.152648502    6.796515344
    1.169115192    6.401027260    2.151303675    6.790104478
    1.176293823    6.394273777    2.149954178    6.783669578
    1.183472454    6.387497946    2.148600059    6.777210863
    1.190651085    6.380700021    2.147241366    6.770728550
    1.197829716    6.373880256    2.145878147    6.764222855
    1.205008347    6.367038904    2.144510450    6.757693996
    1.212186978    6.360176218    2.143138322    6.751142188
    1.219365609    6.353292449    2.141761811    6.744567648
    1.226544240    6.346387851    2.140380964    6.737970592
    1.233722871    6.339462672    2.138995829    6.731351237
    1.240901503    6.332517165    2.137606453    6.724709797
    1.248080134    6.325551577    2.136212883    6.718046488
    1.255258765    6.318566159    2.134815166    6.711361526
    1.262437396    6.311561158    2.133413349    6.704655125
    1.269616027    6.304536823    2.132007479    6.697927499
    1.276794658    6.297493400    2.130597603    6.691178864
    1.283973289    6.290431135    2.129183767    6.684409432
    1.291151920    6.283350274    2.127766018    6.677619418
    1.298330551    6.276251062    2.126344401    6.670809036
    1.305509182    6.269133743    2.124918964    6.663978497
    1.312687813    6.261998559    2.123489752    6.657128014
    1.319866444    6.254845754    2.122056811    6.650257801
    1.327045075    6.247675570    2.120620188    6.643368068
    1.334223706    6.240488246    2.119179927    6.636459028
    1.341402337    6.233284024    2.117736074    6.629530891
    1.348580968    6.226063142    2.116288675    6.622583868
    1.355759599    6.218825839    2.114837775    6.615618170
    1.362938230    6.211572353    2.113383419    6.608634006
    1.370116861    6.204302920    2.111925652    6.601631585
    1.377295492    6.197017776    2.110464518    6.594611118
    1.384474124    6.189717157    2.109000064    6.587572812
    1.391652755    6.182401296    2.107532333    6.580516875
    1.398831386    6.175070427    2.106061369    6.573443515
    1.406010017    6.167724781    2.104587217    6.566352939
    1.413188648    6.160364592    2.103109920    6.559245355
    1.420367279    6.152990088    2.101629524    6.552120967
    1.427545910    6.145601499    2.100146071    6.544979981
    1.434724541    6.138199055    2.098659606    6.537822603
    1.441903172    6.130782982    2.097170171    6.530649038
    1.449081803    6.123353508    2.095677810    6.523459488
    1.456260434    6.115910858    2.094182567    6.516254158
    1.463439065    6.108455258    2.092684483    6.509033251
    1.470617696    6.100986930    2.091183603    6.501796969
    1.477796327    6.093506098    2.089679968    6.494545514
    1.484974958    6.086012983    2.088173621    6.487279087
    1.492153589    6.078507806    2.086664604    6.479997888
    1.499332220    6.070990788    2.085152961    6.472702118
    1.506510851    6.063462146    2.083638731    6.465391976
    1.513689482    6.055922099    2.082121958    6.458067662
    1.520868114    6.048370863    2.080602684    6.450729372
    1.528046745    6.040808655    2.079080948    6.443377305
    1.535225376    6.033235687    2.077556793    6.436011658
    1.542404007    6.025652175    2.076030260    6.428632627
    1.549582638    6.018058331    2.074501390    6.421240407
    1.556761269    6.010454365    2.072970224    6.413835194
    1.563939900    6.002840490    2.071436801    6.406417182
    1.571118531    5.995216912    2.069901163    6.398986565
    1.578297162    5.987583842    2.068363350    6.391543535
    1.585475793    5.979941487    2.066823401    6.384088285
    1.592654424    5.972290051    2.065281357    6.376621007
    1.599833055    5.964629741    2.063737257    6.369141892
    1.607011686    5.956960760    2.062191141    6.361651129
    1.614190317    5.949283310    2.060643047    6.354148908
    1.621368948    5.941597594    2.059093016    6.346635418
    1.628547579    5.933903813    2.057541086    6.339110848
    1.635726210    5.926202164    2.055987295    6.331575384
    1.642904841    5.918492848    2.054431683    6.324029213
    1.650083472    5.910776061    2.052874287    6.316472521
    1.657262104    5.903051999    2.051315146    6.308905494
    1.664440735    5.895320857    2.049754298    6.301328314
    1.671619366    5.887582829    2.048191780    6.293741168
    1.678797997    5.879838107    2.046627630    6.286144236
    1.685976628    5.872086884    2.045061885    6.278537702
    1.693155259    5.864329349    2.043494583    6.270921746
    1.700333890    5.856565692    2.041925761    6.263296549
    1.707512521    5.848796102    2.040355455    6.255662292
    1.714691152    5.841020764    2.038783702    6.248019153
    1.721869783    5.833239865    2.037210538    6.240367310
    1.729048414    5.825453590    2.035636000    6.232706941
    1.736227045    5.817662122    2.034060123    6.225038222
    1.743405676    5.809865643    2.032482944    6.217361330
    1.750584307    5.802064335    2.030904498    6.209676439
    1.757762938    5.794258378    2.029324820    6.201983723
    1.764941569    5.786447951    2.027743946    6.194283357
    1.772120200    5.778633232    2.026161911    6.186575513
    1.779298831    5.770814397    2.024578749    6.178860362
    1.786477462    5.762991622    2.022994495    6.171138076
    1.793656093    5.755165081    2.021409184    6.163408824
    1.800834725    5.747334947    2.019822850    6.155672777
    1.808013356    5.739501392    2.018235526    6.147930102
    1.815191987    5.731664588    2.016647247    6.140180968
    1.822370618    5.723824703    2.015058046    6.132425540
    1.829549249    5.715981907    2.013467956    6.124663986
    1.836727880    5.708136366    2.011877012    6.116896470
    1.843906511    5.700288247    2.010285245    6.109123156
    1.851085142    5.692437716    2.008692689    6.101344209
    1.858263773    5.684584935    2.007099376    6.093559790
    1.865442404    5.676730068    2.005505339    6.085770061
    1.872621035    5.668873277    2.003910610    6.077975184
    1.879799666    5.661014721    2.002315220    6.070175318
    1.886978297    5.653154560    2.000719202    6.062370623
    1.894156928    5.645292952    1.999122588    6.054561257
    1.901335559    5.637430054    1.997525408    6.046747377
    1.908514190    5.629566023    1.995927694    6.038929139
    1.915692821    5.621701012    1.994329477    6.031106700
    1.922871452    5.613835175    1.992730787    6.023280215
    1.930050083    5.605968665    1.991131656    6.015449837
    1.937228715    5.598101633    1.989532113    6.007615720
    1.944407346    5.590234229    1.987932189    5.999778016
    1.951585977    5.582366602    1.986331914    5.991936875
    1.958764608    5.574498900    1.984731317    5.984092449
    1.965943239    5.566631269    1.983130429    5.976244888
    1.973121870    5.558763855    1.981529277    5.968394339
    1.980300501    5.550896803    1.979927893    5.960540951
    1.987479132    5.543030256    1.978326304    5.952684871
    1.994657763    5.535164356    1.976724540    5.944826245
    2.001836394    5.527299244    1.975122628    5.936965217
    2.009015025    5.519435059    1.973520598    5.929101933
    2.016193656    5.511571942    1.971918477    5.921236536
    2.023372287    5.503710029    1.970316294    5.913369167
    2.030550918    5.495849457    1.968714076    5.905499970
    2.037729549    5.487990362    1.967111851    5.897629085
    2.044908180    5.480132878    1.965509646    5.889756651
    2.052086811    5.472277137    1.963907488    5.881882807
    2.059265442    5.464423273    1.962305405    5.874007693
    2.066444073    5.456571417    1.960703423    5.866131444
    2.073622705    5.448721697    1.959101568    5.858254197
    2.080801336    5.440874244    1.957499868    5.850376089
    2.087979967    5.433029185    1.955898347    5.842497252
    2.095158598    5.425186646    1.954297033    5.834617821
    2.102337229    5.417346754    1.952695951    5.826737930
    2.109515860    5.409509632    1.951095127    5.818857708
    2.116694491    5.401675405    1.949494585    5.810977289
    2.123873122    5.393844194    1.947894352    5.803096801
    2.131051753    5.386016120    1.946294452    5.795216374
    2.138230384    5.378191305    1.944694909    5.787336137
    2.145409015    5.370369867    1.943095750    5.779456217
    2.152587646    5.362551924    1.941496997    5.771576740
    2.159766277    5.354737594    1.939898676    5.763697832
    2.166944908    5.346926992    1.938300810    5.755819619
    2.174123539    5.339120233    1.936703423    5.747942224
    2.181302170    5.331317432    1.935106539    5.740065769
    2.188480801    5.323518701    1.933510182    5.732190379
    2.195659432    5.315724151    1.931914373    5.724316172
    2.202838063    5.307933894    1.930319138    5.716443271
    2.210016694    5.300148040    1.928724498    5.708571795
    2.217195326    5.292366697    1.927130476    5.700701862
    2.224373957    5.284589973    1.925537095    5.692833591
    2.231552588    5.276817975    1.923944377    5.684967097
    2.238731219    5.269050808    1.922352344    5.677102499
    2.245909850    5.261288577    1.920761018    5.669239909
    2.253088481    5.253531386    1.919170421    5.661379444
    2.260267112    5.245779337    1.917580575    5.653521216
    2.267445743    5.238032533    1.915991500    5.645665338
    2.274624374    5.230291073    1.914403219    5.637811922
    2.281803005    5.222555058    1.912815752    5.629961079
    2.288981636    5.214824587    1.911229119    5.622112918
    2.296160267    5.207099756    1.909643343    5.614267550
    2.303338898    5.199380664    1.908058442    5.606425082
    2.310517529    5.191667405    1.906474438    5.598585623
    2.317696160    5.183960075    1.904891350    5.590749277
    2.324874791    5.176258768    1.903309199    5.582916152
    2.332053422    5.168563576    1.901728005    5.575086353
    2.339232053    5.160874592    1.900147786    5.567259983
    2.346410684    5.153191906    1.898568562    5.559437145
    2.353589316    5.145515609    1.896990352    5.551617943
    2.360767947    5.137845790    1.895413176    5.543802478
    2.367946578    5.130182537    1.893837053    5.535990850
    2.375125209    5.122525938    1.892262001    5.528183159
    2.382303840    5.114876079    1.890688038    5.520379505
    2.389482471    5.107233045    1.889115183    5.512579986
    2.396661102    5.099596922    1.887543454    5.504784700
    2.403839733    5.091967792    1.885972870    5.496993742
    2.411018364    5.084345738    1.884403447    5.489207209
    2.418196995    5.076730843    1.882835204    5.481425196
    2.425375626    5.069123188    1.881268158    5.473647796
    2.432554257    5.061522852    1.879702327    5.465875104
    2.439732888    5.053929914    1.878137727    5.458107212
    2.446911519    5.046344454    1.876574376    5.450344211
    2.454090150    5.038766549    1.875012291    5.442586193
    2.461268781    5.031196274    1.873451487    5.434833247
    2.468447412    5.023633707    1.871891982    5.427085463
    2.475626043    5.016078922    1.870333792    5.419342930
    2.482804674    5.008531992    1.868776933    5.411605735
    2.489983306    5.000992991    1.867221422    5.403873965
    2.497161937    4.993461992    1.865667273    5.396147707
    2.504340568    4.985939066    1.864114502    5.388427045
    2.511519199    4.978424284    1.862563126    5.380712065
    2.518697830    4.970917715    1.861013160    5.373002850
    2.525876461    4.963419428    1.859464617    5.365299483
    2.533055092    4.955929492    1.857917515    5.357602047
    2.540233723    4.948447974    1.856371867    5.349910623
