# energy grid [eV]     ieps_x  ieps_y  ieps_z
#
    0.200000000    8.964547334    8.624427436    9.566768708
    0.207178631    8.962571134    8.622534508    9.564570737
    0.214357262    8.960526351    8.620575891    9.562296532
    0.221535893    8.958413096    8.618551692    9.559946222
    0.228714524    8.956231488    8.616462024    9.557519943
    0.235893155    8.953981647    8.614307002    9.555017834
    0.243071786    8.951663696    8.612086747    9.552440036
    0.250250417    8.949277763    8.609801381    9.549786699
    0.257429048    8.946823980    8.607451029    9.547057973
    0.264607679    8.944302481    8.605035823    9.544254014
    0.271786311    8.941713405    8.602555894    9.541374981
    0.278964942    8.939056894    8.600011379    9.538421038
    0.286143573    8.936333094    8.597402418    9.535392354
    0.293322204    8.933542153    8.594729155    9.532289098
    0.300500835    8.930684223    8.591991736    9.529111449
    0.307679466    8.927759462    8.589190311    9.525859584
    0.314858097    8.924768029    8.586325033    9.522533689
    0.322036728    8.921710085    8.583396059    9.519133950
    0.329215359    8.918585799    8.580403548    9.515660560
    0.336393990    8.915395338    8.577347664    9.512113714
    0.343572621    8.912138876    8.574228573    9.508493610
    0.350751252    8.908816590    8.571046444    9.504800452
    0.357929883    8.905428659    8.567801450    9.501034448
    0.365108514    8.901975266    8.564493766    9.497195807
    0.372287145    8.898456597    8.561123572    9.493284744
    0.379465776    8.894872841    8.557691049    9.489301477
    0.386644407    8.891224191    8.554196383    9.485246227
    0.393823038    8.887510843    8.550639762    9.481119221
    0.401001669    8.883732995    8.547021376    9.476920686
    0.408180301    8.879890849    8.543341420    9.472650855
    0.415358932    8.875984611    8.539600090    9.468309965
    0.422537563    8.872014488    8.535797588    9.463898255
    0.429716194    8.867980692    8.531934114    9.459415967
    0.436894825    8.863883437    8.528009877    9.454863348
    0.444073456    8.859722940    8.524025083    9.450240648
    0.451252087    8.855499420    8.519979945    9.445548120
    0.458430718    8.851213102    8.515874676    9.440786021
    0.465609349    8.846864210    8.511709494    9.435954609
    0.472787980    8.842452973    8.507484618    9.431054149
    0.479966611    8.837979624    8.503200271    9.426084906
    0.487145242    8.833444395    8.498856678    9.421047149
    0.494323873    8.828847525    8.494454066    9.415941151
    0.501502504    8.824189253    8.489992666    9.410767188
    0.508681135    8.819469821    8.485472712    9.405525538
    0.515859766    8.814689475    8.480894437    9.400216482
    0.523038397    8.809848462    8.476258081    9.394840306
    0.530217028    8.804947033    8.471563884    9.389397298
    0.537395659    8.799985440    8.466812089    9.383887746
    0.544574290    8.794963940    8.462002940    9.378311946
    0.551752922    8.789882789    8.457136687    9.372670192
    0.558931553    8.784742249    8.452213579    9.366962785
    0.566110184    8.779542582    8.447233869    9.361190025
    0.573288815    8.774284053    8.442197811    9.355352217
    0.580467446    8.768966930    8.437105662    9.349449669
    0.587646077    8.763591484    8.431957682    9.343482689
    0.594824708    8.758157985    8.426754132    9.337451590
    0.602003339    8.752666710    8.421495275    9.331356688
    0.609181970    8.747117933    8.416181378    9.325198298
    0.616360601    8.741511935    8.410812708    9.318976742
    0.623539232    8.735848996    8.405389536    9.312692341
    0.630717863    8.730129399    8.399912132    9.306345420
    0.637896494    8.724353430    8.394380771    9.299936305
    0.645075125    8.718521376    8.388795729    9.293465327
    0.652253756    8.712633527    8.383157284    9.286932816
    0.659432387    8.706690172    8.377465715    9.280339106
    0.666611018    8.700691607    8.371721304    9.273684533
    0.673789649    8.694638126    8.365924334    9.266969435
    0.680968280    8.688530025    8.360075091    9.260194153
    0.688146912    8.682367605    8.354173861    9.253359027
    0.695325543    8.676151164    8.348220933    9.246464403
    0.702504174    8.669881007    8.342216598    9.239510626
    0.709682805    8.663557436    8.336161146    9.232498045
    0.716861436    8.657180759    8.330054873    9.225427009
    0.724040067    8.650751281    8.323898073    9.218297869
    0.731218698    8.644269313    8.317691043    9.211110980
    0.738397329    8.637735166    8.311434080    9.203866697
    0.745575960    8.631149150    8.305127486    9.196565377
    0.752754591    8.624511581    8.298771560    9.189207377
    0.759933222    8.617822773    8.292366606    9.181793059
    0.767111853    8.611083043    8.285912928    9.174322785
    0.774290484    8.604292709    8.279410830    9.166796917
    0.781469115    8.597452090    8.272860620    9.159215820
    0.788647746    8.590561508    8.266262605    9.151579861
    0.795826377    8.583621285    8.259617094    9.143889407
    0.803005008    8.576631743    8.252924398    9.136144828
    0.810183639    8.569593207    8.246184828    9.128346494
    0.817362270    8.562506004    8.239398697    9.120494776
    0.824540902    8.555370460    8.232566318    9.112590048
    0.831719533    8.548186903    8.225688007    9.104632684
    0.838898164    8.540955662    8.218764078    9.096623059
    0.846076795    8.533677067    8.211794850    9.088561548
    0.853255426    8.526351450    8.204780639    9.080448531
    0.860434057    8.518979143    8.197721764    9.072284386
    0.867612688    8.511560479    8.190618546    9.064069491
    0.874791319    8.504095791    8.183471303    9.055804227
    0.881969950    8.496585416    8.176280359    9.047488977
    0.889148581    8.489029688    8.169046034    9.039124122
    0.896327212    8.481428945    8.161768652    9.030710045
    0.903505843    8.473783523    8.154448536    9.022247130
    0.910684474    8.466093760    8.147086010    9.013735762
    0.917863105    8.458359996    8.139681400    9.005176327
    0.925041736    8.450582570    8.132235031    8.996569210
    0.932220367    8.442761822    8.124747230    8.987914798
    0.939398998    8.434898092    8.117218322    8.979213479
    0.946577629    8.426991723    8.109648636    8.970465640
    0.953756260    8.419043055    8.102038499    8.961671670
    0.960934891    8.411052431    8.094388239    8.952831958
    0.968113523    8.403020194    8.086698186    8.943946893
    0.975292154    8.394946687    8.078968668    8.935016865
    0.982470785    8.386832254    8.071200015    8.926042263
    0.989649416    8.378677239    8.063392556    8.917023480
    0.996828047    8.370481986    8.055546622    8.907960904
    1.004006678    8.362246839    8.047662544    8.898854928
    1.011185309    8.353972145    8.039740651    8.889705943
    1.018363940    8.345658247    8.031781276    8.880514339
    1.025542571    8.337305492    8.023784749    8.871280510
    1.032721202    8.328914224    8.015751402    8.862004846
    1.039899833    8.320484791    8.007681566    8.852687739
    1.047078464    8.312017537    7.999575572    8.843329581
    1.054257095    8.303512809    7.991433752    8.833930765
    1.061435726    8.294970952    7.983256439    8.824491681
    1.068614357    8.286392313    7.975043964    8.815012722
    1.075792988    8.277777239    7.966796658    8.805494280
    1.082971619    8.269126074    7.958514853    8.795936746
    1.090150250    8.260439166    7.950198881    8.786340511
    1.097328881    8.251716859    7.941849074    8.776705968
    1.104507513    8.242959501    7.933465762    8.767033506
    1.111686144    8.234167436    7.925049278    8.757323517
    1.118864775    8.225341010    7.916599952    8.747576392
    1.126043406    8.216480569    7.908118116    8.737792520
    1.133222037    8.207586458    7.899604100    8.727972291
    1.140400668    8.198659021    7.891058234    8.718116095
    1.147579299    8.189698604    7.882480850    8.708224322
    1.154757930    8.180705550    7.873872276    8.698297359
    1.161936561    8.171680204    7.865232842    8.688335594
    1.169115192    8.162622910    7.856562878    8.678339417
    1.176293823    8.153534010    7.847862713    8.668309213
    1.183472454    8.144413847    7.839132674    8.658245369
    1.190651085    8.135262764    7.830373091    8.648148271
    1.197829716    8.126081104    7.821584290    8.638018306
    1.205008347    8.116869206    7.812766599    8.627855857
    1.212186978    8.107627414    7.803920345    8.617661308
    1.219365609    8.098356066    7.795045854    8.607435044
    1.226544240    8.089055504    7.786143451    8.597177446
    1.233722871    8.079726066    7.777213461    8.586888897
    1.240901503    8.070368091    7.768256209    8.576569778
    1.248080134    8.060981917    7.759272019    8.566220469
    1.255258765    8.051567883    7.750261214    8.555841350
    1.262437396    8.042126324    7.741224116    8.545432800
    1.269616027    8.032657577    7.732161049    8.534995196
    1.276794658    8.023161978    7.723072331    8.524528915
    1.283973289    8.013639860    7.713958286    8.514034333
    1.291151920    8.004091560    7.704819231    8.503511826
    1.298330551    7.994517408    7.695655487    8.492961768
    1.305509182    7.984917739    7.686467372    8.482384531
    1.312687813    7.975292883    7.677255203    8.471780488
    1.319866444    7.965643171    7.668019296    8.461150010
    1.327045075    7.955968934    7.658759968    8.450493466
    1.334223706    7.946270500    7.649477534    8.439811226
    1.341402337    7.936548198    7.640172308    8.429103658
    1.348580968    7.926802355    7.630844604    8.418371127
    1.355759599    7.917033297    7.621494733    8.407614001
    1.362938230    7.907241350    7.612123007    8.396832643
    1.370116861    7.897426838    7.602729737    8.386027416
    1.377295492    7.887590085    7.593315232    8.375198682
    1.384474124    7.877731412    7.583879802    8.364346803
    1.391652755    7.867851143    7.574423753    8.353472137
    1.398831386    7.857949596    7.564947393    8.342575044
    1.406010017    7.848027092    7.555451027    8.331655879
    1.413188648    7.838083949    7.545934959    8.320714999
    1.420367279    7.828120483    7.536399494    8.309752759
    1.427545910    7.818137012    7.526844934    8.298769510
    1.434724541    7.808133850    7.517271580    8.287765606
    1.441903172    7.798111311    7.507679733    8.276741395
    1.449081803    7.788069709    7.498069692    8.265697228
    1.456260434    7.778009353    7.488441755    8.254633453
    1.463439065    7.767930556    7.478796219    8.243550414
    1.470617696    7.757833626    7.469133381    8.232448457
    1.477796327    7.747718871    7.459453534    8.221327925
    1.484974958    7.737586599    7.449756973    8.210189161
    1.492153589    7.727437114    7.440043990    8.199032504
    1.499332220    7.717270722    7.430314876    8.187858293
    1.506510851    7.707087726    7.420569921    8.176666867
    1.513689482    7.696888426    7.410809414    8.165458560
    1.520868114    7.686673125    7.401033642    8.154233708
    1.528046745    7.676442121    7.391242893    8.142992643
    1.535225376    7.666195712    7.381437450    8.131735696
    1.542404007    7.655934196    7.371617598    8.120463198
    1.549582638    7.645657867    7.361783619    8.109175476
    1.556761269    7.635367020    7.351935795    8.097872857
    1.563939900    7.625061947    7.342074405    8.086555666
    1.571118531    7.614742941    7.332199729    8.075224228
    1.578297162    7.604410290    7.322312043    8.063878862
    1.585475793    7.594064284    7.312411624    8.052519891
    1.592654424    7.583705210    7.302498747    8.041147632
    1.599833055    7.573333354    7.292573685    8.029762402
    1.607011686    7.562949000    7.282636710    8.018364516
    1.614190317    7.552552432    7.272688092    8.006954289
    1.621368948    7.542143931    7.262728102    7.995532032
    1.628547579    7.531723778    7.252757007    7.984098056
    1.635726210    7.521292251    7.242775073    7.972652669
    1.642904841    7.510849628    7.232782567    7.961196178
    1.650083472    7.500396186    7.222779751    7.949728889
    1.657262104    7.489932197    7.212766889    7.938251104
    1.664440735    7.479457937    7.202744242    7.926763126
    1.671619366    7.468973675    7.192712068    7.915265255
    1.678797997    7.458479683    7.182670627    7.903757790
    1.685976628    7.447976229    7.172620175    7.892241026
    1.693155259    7.437463581    7.162560968    7.880715259
    1.700333890    7.426942003    7.152493259    7.869180783
    1.707512521    7.416411761    7.142417302    7.857637887
    1.714691152    7.405873116    7.132333347    7.846086863
    1.721869783    7.395326331    7.122241644    7.834527999
    1.729048414    7.384771665    7.112142441    7.822961579
    1.736227045    7.374209376    7.102035986    7.811387889
    1.743405676    7.363639720    7.091922522    7.799807212
    1.750584307    7.353062954    7.081802295    7.788219828
    1.757762938    7.342479331    7.071675547    7.776626017
    1.764941569    7.331889102    7.061542518    7.765026055
    1.772120200    7.321292518    7.051403448    7.753420218
    1.779298831    7.310689829    7.041258575    7.741808780
    1.786477462    7.300081282    7.031108135    7.730192014
    1.793656093    7.289467123    7.020952365    7.718570188
    1.800834725    7.278847596    7.010791496    7.706943572
    1.808013356    7.268222945    7.000625761    7.695312433
    1.815191987    7.257593410    6.990455391    7.683677034
    1.822370618    7.246959231    6.980280615    7.672037639
    1.829549249    7.236320647    6.970101661    7.660394509
    1.836727880    7.225677894    6.959918753    7.648747904
    1.843906511    7.215031208    6.949732119    7.637098081
    1.851085142    7.204380821    6.939541979    7.625445296
    1.858263773    7.193726966    6.929348556    7.613789803
    1.865442404    7.183069874    6.919152071    7.602131855
    1.872621035    7.172409773    6.908952741    7.590471701
    1.879799666    7.161746890    6.898750784    7.578809590
    1.886978297    7.151081452    6.888546416    7.567145769
    1.894156928    7.140413682    6.878339850    7.555480483
    1.901335559    7.129743804    6.868131299    7.543813976
    1.908514190    7.119072037    6.857920975    7.532146488
    1.915692821    7.108398603    6.847709087    7.520478259
    1.922871452    7.097723717    6.837495843    7.508809528
    1.930050083    7.087047598    6.827281450    7.497140529
    1.937228715    7.076370460    6.817066113    7.485471498
    1.944407346    7.065692516    6.806850036    7.473802666
    1.951585977    7.055013977    6.796633421    7.462134265
    1.958764608    7.044335054    6.786416468    7.450466523
    1.965943239    7.033655956    6.776199377    7.438799667
    1.973121870    7.022976889    6.765982345    7.427133923
    1.980300501    7.012298059    6.755765569    7.415469513
    1.987479132    7.001619670    6.745549243    7.403806661
    1.994657763    6.990941923    6.735333561    7.392145585
    2.001836394    6.980265021    6.725118714    7.380486504
    2.009015025    6.969589162    6.714904892    7.368829634
    2.016193656    6.958914544    6.704692285    7.357175190
    2.023372287    6.948241363    6.694481079    7.345523385
    2.030550918    6.937569813    6.684271461    7.333874429
    2.037729549    6.926900088    6.674063614    7.322228533
    2.044908180    6.916232379    6.663857722    7.310585904
    2.052086811    6.905566877    6.653653966    7.298946747
    2.059265442    6.894903769    6.643452525    7.287311267
    2.066444073    6.884243243    6.633253579    7.275679666
    2.073622705    6.873585484    6.623057304    7.264052145
    2.080801336    6.862930676    6.612863877    7.252428902
    2.087979967    6.852279001    6.602673470    7.240810135
    2.095158598    6.841630640    6.592486257    7.229196040
    2.102337229    6.830985772    6.582302408    7.217586809
    2.109515860    6.820344576    6.572122094    7.205982636
    2.116694491    6.809707228    6.561945483    7.194383709
    2.123873122    6.799073901    6.551772742    7.182790219
    2.131051753    6.788444771    6.541604036    7.171202351
    2.138230384    6.777820008    6.531439529    7.159620292
    2.145409015    6.767199783    6.521279384    7.148044224
    2.152587646    6.756584265    6.511123762    7.136474329
    2.159766277    6.745973621    6.500972822    7.124910788
    2.166944908    6.735368017    6.490826724    7.113353778
    2.174123539    6.724767617    6.480685623    7.101803478
    2.181302170    6.714172585    6.470549676    7.090260062
    2.188480801    6.703583081    6.460419036    7.078723703
    2.195659432    6.692999266    6.450293857    7.067194573
    2.202838063    6.682421299    6.440174289    7.055672843
    2.210016694    6.671849336    6.430060483    7.044158682
    2.217195326    6.661283534    6.419952586    7.032652255
    2.224373957    6.650724046    6.409850747    7.021153729
    2.231552588    6.640171025    6.399755112    7.009663267
    2.238731219    6.629624622    6.389665823    6.998181032
    2.245909850    6.619084989    6.379583025    6.986707183
    2.253088481    6.608552272    6.369506860    6.975241880
    2.260267112    6.598026619    6.359437467    6.963785280
    2.267445743    6.587508176    6.349374986    6.952337539
    2.274624374    6.576997088    6.339319554    6.940898811
    2.281803005    6.566493496    6.329271309    6.929469248
    2.288981636    6.555997543    6.319230383    6.918049002
    2.296160267    6.545509369    6.309196913    6.906638222
    2.303338898    6.535029112    6.299171029    6.895237056
    2.310517529    6.524556909    6.289152863    6.883845650
    2.317696160    6.514092898    6.279142544    6.872464149
    2.324874791    6.503637211    6.269140202    6.861092696
    2.332053422    6.493189983    6.259145962    6.849731434
    2.339232053    6.482751346    6.249159952    6.838380502
    2.346410684    6.472321430    6.239182296    6.827040039
    2.353589316    6.461900364    6.229213116    6.815710183
    2.360767947    6.451488276    6.219252535    6.804391069
    2.367946578    6.441085293    6.209300674    6.793082832
    2.375125209    6.430691540    6.199357651    6.781785604
    2.382303840    6.420307141    6.189423586    6.770499517
    2.389482471    6.409932219    6.179498596    6.759224700
    2.396661102    6.399566894    6.169582795    6.747961283
    2.403839733    6.389211286    6.159676299    6.736709391
    2.411018364    6.378865516    6.149779220    6.725469151
    2.418196995    6.368529699    6.139891671    6.714240686
    2.425375626    6.358203953    6.130013763    6.703024120
    2.432554257    6.347888391    6.120145605    6.691819574
    2.439732888    6.337583128    6.110287305    6.680627166
    2.446911519    6.327288276    6.100438971    6.669447017
    2.454090150    6.317003946    6.090600709    6.658279243
    2.461268781    6.306730248    6.080772622    6.647123959
    2.468447412    6.296467290    6.070954816    6.635981280
    2.475626043    6.286215180    6.061147393    6.624851319
    2.482804674    6.275974024    6.051350453    6.613734187
    2.489983306    6.265743927    6.041564096    6.602629995
    2.497161937    6.255524993    6.031788423    6.591538852
    2.504340568    6.245317324    6.022023530    6.580460864
    2.511519199    6.235121022    6.012269513    6.569396139
    2.518697830    6.224936186    6.002526470    6.558344781
    2.525876461    6.214762916    5.992794493    6.547306893
    2.533055092    6.204601309    5.983073677    6.536282578
    2.540233723    6.194451462    5.973364112    6.525271937
