# energy grid [eV]     epsr_x  epsr_y  epsr_z
#
    0.200000000   11.235855969   11.544536385   11.941079798
    0.207178631   11.238261129   11.547057970   11.943712086
    0.214357262   11.240753448   11.549670384   11.946439329
    0.221535893   11.243333184   11.552373834   11.949261760
    0.228714524   11.246000603   11.555168534   11.952179620
    0.235893155   11.248755986   11.558054708   11.955193161
    0.243071786   11.251599625   11.561032588   11.958302645
    0.250250417   11.254531821   11.564102413   11.961508346
    0.257429048   11.257552892   11.567264434   11.964810545
    0.264607679   11.260663164   11.570518909   11.968209537
    0.271786311   11.263862979   11.573866107   11.971705628
    0.278964942   11.267152693   11.577306305   11.975299135
    0.286143573   11.270532672   11.580839792   11.978990387
    0.293322204   11.274003301   11.584466863   11.982779724
    0.300500835   11.277564976   11.588187828   11.986667501
    0.307679466   11.281218110   11.592003006   11.990654085
    0.314858097   11.284963133   11.595912724   11.994739855
    0.322036728   11.288800489   11.599917324   11.998925208
    0.329215359   11.292730641   11.604017159   12.003210550
    0.336393990   11.296754068   11.608212591   12.007596307
    0.343572621   11.300871269   11.612503997   12.012082918
    0.350751252   11.305082761   11.616891767   12.016670838
    0.357929883   11.309389082   11.621376300   12.021360540
    0.365108514   11.313790791   11.625958014   12.026152514
    0.372287145   11.318288467   11.630637336   12.031047268
    0.379465776   11.322882713   11.635414711   12.036045330
    0.386644407   11.327574157   11.640290598   12.041147247
    0.393823038   11.332363450   11.645265469   12.046353588
    0.401001669   11.337251270   11.650339817   12.051664942
    0.408180301   11.342238324   11.655514147   12.057081923
    0.415358932   11.347325344   11.660788986   12.062605169
    0.422537563   11.352513098   11.666164875   12.068235342
    0.429716194   11.357802382   11.671642379   12.073973134
    0.436894825   11.363194029   11.677222078   12.079819260
    0.444073456   11.368688904   11.682904576   12.085774472
    0.451252087   11.374287915   11.688690499   12.091839547
    0.458430718   11.379992008   11.694580495   12.098015301
    0.465609349   11.385802171   11.700575239   12.104302582
    0.472787980   11.391719439   11.706675427   12.110702279
    0.479966611   11.397744895   11.712881787   12.117215319
    0.487145242   11.403879676   11.719195072   12.123842676
    0.494323873   11.410124970   11.725616068   12.130585366
    0.501502504   11.416482029   11.732145592   12.137444459
    0.508681135   11.422952166   11.738784494   12.144421074
    0.515859766   11.429536762   11.745533664   12.151516391
    0.523038397   11.436237273   11.752394026   12.158731651
    0.530217028   11.443055232   11.759366549   12.166068160
    0.537395659   11.449992259   11.766452245   12.173527298
    0.544574290   11.457050067   11.773652173   12.181110523
    0.551752922   11.464230465   11.780967445   12.188819377
    0.558931553   11.471535376   11.788399224   12.196655496
    0.566110184   11.478966836   11.795948738   12.204620615
    0.573288815   11.486527012   11.803617272   12.212716582
    0.580467446   11.494218213   11.811406187   12.220945363
    0.587646077   11.502042899   11.819316915   12.229309059
    0.594824708   11.510003700   11.827350971   12.237809916
    0.602003339   11.518103434   11.835509961   12.246450342
    0.609181970   11.526345120   11.843795586   12.255232924
    0.616360601   11.534732008   11.852209656   12.264160448
    0.623539232   11.543267597   11.860754100   12.273235920
    0.630717863   11.551955667   11.869430975   12.282462594
    0.637896494   11.560800311   11.878242485   12.291844000
    0.645075125   11.569805969   11.887190992   12.301383979
    0.652253756   11.578977475   11.896279038   12.311086723
    0.659432387   11.588320107   11.905509362   12.320956821
    0.666611018   11.597839642   11.914884931   12.330999312
    0.673789649   11.607542423   11.924408960   12.341219749
    0.680968280   11.617435444   11.934084952   12.351624276
    0.688146912   11.627526438   11.943916733   12.362219712
    0.695325543   11.637823990   11.953908501   12.373013658
    0.702504174   11.648337673   11.964064874   12.384014625
    0.709682805   11.659078200   11.974390963   12.395232180
    0.716861436   11.670057621   11.984892443   12.406677136
    0.724040067   11.681289553   11.995575651   12.418361769
    0.731218698   11.692789466   12.006447696   12.430300096
    0.738397329   11.704575031   12.017516605   12.442508209
    0.745575960   11.716666555   12.028791487   12.455004701
    0.752754591   11.729087523   12.040282757   12.467811190
    0.759933222   11.741865286   12.052002398   12.480952988
    0.767111853   11.755031930   12.063964308   12.494459958
    0.774290484   11.768625402   12.076184738   12.508367610
    0.781469115   11.782690969   12.088682858   12.522718546
    0.788647746   11.797283135   12.101481505   12.537564347
    0.795826377   11.812468201   12.114608165   12.552968097
    0.803005008   11.828327694   12.128096300   12.569007797
    0.810183639   11.844963065   12.141987147   12.585781012
    0.817362270   11.862502148   12.156332199   12.603411311
    0.824540902   11.881108190   12.171196648   12.622057253
    0.831719533   11.900992537   12.186664227   12.641925049
    0.838898164   11.922432478   12.202844007   12.663286392
    0.846076795   11.945795967   12.219879794   12.686503159
    0.853255426   11.971573910   12.237962405   12.712059715
    0.860434057   12.000414633   12.257342778   12.740597351
    0.867612688   12.033129227   12.278334129   12.772919380
    0.874791319   12.070533680   12.301252547   12.809831997
    0.881969950   12.112585779   12.326091565   12.851275708
    0.889148581   12.154678472   12.351123926   12.892596500
    0.896327212   12.173998830   12.367755253   12.910824506
    0.903505843   12.103377562   12.350658081   12.838370013
    0.910684474   11.913122743   12.288647636   12.645333401
    0.917863105   11.784893200   12.250283633   12.514391296
    0.925041736   11.780005932   12.258726116   12.507166687
    0.932220367   11.821467169   12.284957135   12.546152181
    0.939398998   11.870476073   12.314375909   12.592239392
    0.946577629   11.917621884   12.343479843   12.635859073
    0.953756260   11.961971205   12.371977448   12.675938464
    0.960934891   12.004509206   12.400318108   12.713293080
    0.968113523   12.046556557   12.429100802   12.749018855
    0.975292154   12.089472839   12.458970238   12.784173023
    0.982470785   12.134673071   12.490632715   12.819766481
    0.989649416   12.183686063   12.524885180   12.856808421
    0.996828047   12.238063304   12.562566002   12.896271964
    1.004006678   12.298584878   12.604139136   12.938673425
    1.011185309   12.361603073   12.647778822   12.982087721
    1.018363940   12.404747153   12.681872947   13.014361680
    1.025542571   12.349728179   12.665508972   12.992842544
    1.032721202   12.104937469   12.550854640   12.867598817
    1.039899833   11.868725543   12.442392003   12.746732734
    1.047078464   11.824845073   12.437033448   12.730372540
    1.054257095   11.876585097   12.484455136   12.765765620
    1.061435726   11.948730359   12.545117452   12.811932585
    1.068614357   12.017790506   12.603982339   12.856402890
    1.075792988   12.068566992   12.639795653   12.892487788
    1.082971619   12.067294076   12.595840605   12.906452496
    1.090150250   12.000108206   12.447708540   12.892793083
    1.097328881   11.960873790   12.349954718   12.890078307
    1.104507513   11.981539509   12.354630359   12.911501347
    1.111686144   12.023376045   12.396702782   12.941297707
    1.118864775   12.067009122   12.443446178   12.971601385
    1.126043406   12.107911035   12.486908014   13.000605413
    1.133222037   12.145759993   12.526208695   13.028211017
    1.140400668   12.181109050   12.561984809   13.054667168
    1.147579299   12.214579865   12.595030674   13.080242503
    1.154757930   12.246701984   12.626016247   13.105160670
    1.161936561   12.277905136   12.655462113   13.129597686
    1.169115192   12.308542660   12.683767750   13.153691482
    1.176293823   12.338917217   12.711244064   13.177551830
    1.183472454   12.369303465   12.738140257   13.201268393
    1.190651085   12.399968233   12.764664731   13.224916975
    1.197829716   12.431189946   12.791001720   13.248564475
    1.205008347   12.463278930   12.817325313   13.272273025
    1.212186978   12.496598578   12.843811683   13.296103556
    1.219365609   12.531580650   12.870647606   13.320118342
    1.226544240   12.568701689   12.898023406   13.344379504
    1.233722871   12.608283928   12.926060017   13.368930693
    1.240901503   12.649573172   12.954467809   13.393710403
    1.248080134   12.687075304   12.981190892   13.418206853
    1.255258765   12.700227077   12.998585788   13.440484798
    1.262437396   12.659252134   12.995582881   13.457736260
    1.269616027   12.612344241   12.989915126   13.474489937
    1.276794658   12.622978054   13.004931690   13.496705369
    1.283973289   12.667104052   13.031575893   13.522088199
    1.291151920   12.721161949   13.060909881   13.548374984
    1.298330551   12.778855191   13.090295075   13.574907673
    1.305509182   12.840097293   13.119283216   13.601587205
    1.312687813   12.906499782   13.147950143   13.628449358
    1.319866444   12.979842273   13.176460330   13.655554107
    1.327045075   13.059936239   13.204955143   13.682957412
    1.334223706   13.136653181   13.233477444   13.710691963
    1.341402337   13.161528091   13.261759986   13.738712060
    1.348580968   13.002074644   13.288886001   13.766804993
    1.355759599   12.636946367   13.314770451   13.794981351
    1.362938230   12.419867896   13.342160324   13.824002057
    1.370116861   12.418806685   13.371641537   13.854066806
    1.377295492   12.490863500   13.402208675   13.884965691
    1.384474124   12.571837391   13.433457979   13.916658252
    1.391652755   12.646633503   13.465367310   13.949218828
    1.398831386   12.713722860   13.498031811   13.982771408
    1.406010017   12.774454211   13.531588611   14.017475801
    1.413188648   12.830467078   13.566204517   14.053532684
    1.420367279   12.883165104   13.602081804   14.091196720
    1.427545910   12.933681905   13.639471396   14.130796363
    1.434724541   12.982950194   13.678691981   14.172761808
    1.441903172   13.031781227   13.720155952   14.217663116
    1.449081803   13.080935431   13.764402427   14.266257979
    1.456260434   13.131177525   13.812130647   14.319534747
    1.463439065   13.183289203   13.864197499   14.378679603
    1.470617696   13.237917927   13.921424377   14.444671861
    1.477796327   13.294763501   13.983585578   14.516316431
    1.484974958   13.349187855   14.045168146   14.582154255
    1.492153589   13.381198499   14.081536472   14.594230887
    1.499332220   13.349007833   14.040707547   14.452701581
    1.506510851   13.281121316   13.958234301   14.224549226
    1.513689482   13.279190695   13.957699466   14.149373130
    1.520868114   13.330989809   14.004276596   14.191038401
    1.528046745   13.398750208   13.988841652   14.239548544
    1.535225376   13.469261945   13.843272969   14.246474834
    1.542404007   13.542136165   13.729588721   14.260793331
    1.549582638   13.614380719   13.745628516   14.314187647
    1.556761269   13.664592100   13.808857296   14.375234309
    1.563939900   13.638686481   13.854477926   14.411152509
    1.571118531   13.538348616   13.870987991   14.419114758
    1.578297162   13.506346907   13.905367513   14.446940745
    1.585475793   13.559298049   13.963874205   14.500776755
    1.592654424   13.642377022   14.028664175   14.562811819
    1.599833055   13.733363897   14.092813440   14.626063221
    1.607011686   13.828490980   14.155427261   14.689608593
    1.614190317   13.929241174   14.217160619   14.754098048
    1.621368948   14.038111168   14.278849145   14.820034410
    1.628547579   14.155708715   14.340798812   14.885571212
    1.635726210   14.272688684   14.401149640   14.939714422
    1.642904841   14.349041124   14.452749628   14.952561687
    1.650083472   14.296436091   14.487608370   14.918378989
    1.657262104   13.987722857   14.505341097   14.892005272
    1.664440735   13.576020903   14.526946049   14.893358920
    1.671619366   13.452011784   14.580588488   14.938692486
    1.678797997   13.537854665   14.655342824   15.010649116
    1.685976628   13.681325044   14.739380800   15.090855431
    1.693155259   13.832126371   14.828188269   15.172511229
    1.700333890   13.979842222   14.913131706   15.247081731
    1.707512521   14.118958952   14.964714099   15.287894664
    1.714691152   14.241985180   14.949471117   15.266117733
    1.721869783   14.349236863   14.925668278   15.230654536
    1.729048414   14.415715338   14.939859003   15.206497017
    1.736227045   14.419264433   14.959127867   15.197969918
    1.743405676   14.249135879   14.897620758   15.219029981
    1.750584307   13.819644649   14.693807479   15.234615375
    1.757762938   13.516171816   14.546291157   15.264496164
    1.764941569   13.451640884   14.528428417   15.324207339
    1.772120200   13.522068199   14.591053731   15.399522168
    1.779298831   13.655554930   14.690656005   15.478649386
    1.786477462   13.799603302   14.796174173   15.558153526
    1.793656093   13.937808038   14.898333741   15.638230879
    1.800834725   14.067390350   14.996770532   15.719787115
    1.808013356   14.181296406   15.092680271   15.802535282
    1.815191987   14.246409870   15.185329837   15.881178233
    1.822370618   14.201991714   15.270290087   15.943340635
    1.829549249   14.116922499   15.345471247   15.989572446
    1.836727880   14.129498485   15.391378060   16.003198424
    1.843906511   14.200349108   15.356213847   15.925323430
    1.851085142   14.286445835   15.295619844   15.843694995
    1.858263773   14.382269194   15.323199933   15.868663486
    1.865442404   14.477758316   15.410442790   15.952870180
    1.872621035   14.556423557   15.508650495   16.044869214
    1.879799666   14.601669248   15.594851084   16.114984650
    1.886978297   14.637911501   15.666208897   16.143793926
    1.894156928   14.676256601   15.700261041   16.160625206
    1.901335559   14.698968577   15.683944663   16.216190840
    1.908514190   14.747010294   15.710283405   16.301333107
    1.915692821   14.828819153   15.799908095   16.397652532
    1.922871452   14.915765904   15.899412752   16.496252785
    1.930050083   14.978160762   15.949812957   16.590720665
    1.937228715   15.003570631   15.923272893   16.675114905
    1.944407346   15.042375762   15.917713745   16.756700943
    1.951585977   15.117188104   15.988665188   16.851454624
    1.958764608   15.199837794   16.097703070   16.946951024
    1.965943239   15.246800985   16.187041170   16.982020136
    1.973121870   15.241309624   16.199998608   16.896218954
    1.980300501   15.246738406   16.141665646   16.752130991
    1.987479132   15.303682288   16.141107398   16.710462811
    1.994657763   15.397120950   16.236959484   16.793561872
    2.001836394   15.502905365   16.371675707   16.921828195
    2.009015025   15.610286139   16.513205219   17.053020922
    2.016193656   15.712587262   16.638519975   17.163116467
    2.023372287   15.809215988   16.711379524   17.240510748
    2.030550918   15.905987881   16.745864485   17.306496938
    2.037729549   15.982640283   16.780966692   17.358126229
    2.044908180   16.000491702   16.764544830   17.345934088
    2.052086811   15.996777545   16.768884554   17.341233022
    2.059265442   15.963448672   16.813623539   17.375464267
    2.066444073   15.894287066   16.798022028   17.394587760
    2.073622705   15.899021700   16.671711215   17.406505684
    2.080801336   15.979718937   16.549933740   17.447090274
    2.087979967   16.105022534   16.595999136   17.549926996
    2.095158598   16.236742000   16.734996901   17.683747991
    2.102337229   16.345788370   16.890987599   17.822031893
    2.109515860   16.396280013   17.037784267   17.950109104
    2.116694491   16.362848904   17.127854708   18.045458242
    2.123873122   16.316119814   17.114605486   18.100906500
    2.131051753   16.321091971   17.091776102   18.173663100
    2.138230384   16.390291770   17.162329826   18.281063309
    2.145409015   16.490666412   17.289421642   18.396277274
    2.152587646   16.611682306   17.440107994   18.533826910
    2.159766277   16.741128173   17.598421811   18.680863003
    2.166944908   16.865964026   17.741748929   18.801289201
    2.174123539   16.995870514   17.824353160   18.887050152
    2.181302170   17.128974152   17.798987338   18.922663192
    2.188480801   17.238858634   17.765169129   18.936062636
    2.195659432   17.293851749   17.785724563   18.855456470
    2.202838063   17.326825664   17.844442189   18.630767959
    2.210016694   17.414305721   17.960320166   18.553179940
    2.217195326   17.545874142   18.103816644   18.635481841
    2.224373957   17.683732015   18.241301180   18.723781098
    2.231552588   17.830353500   18.392287878   18.840778571
    2.238731219   17.979104911   18.554866112   19.003107706
    2.245909850   18.130774836   18.678765967   19.181554061
    2.253088481   18.300752058   18.681556714   19.373794422
    2.260267112   18.476004392   18.617226049   19.557603234
    2.267445743   18.624324785   18.657656473   19.682734792
    2.274624374   18.722439668   18.755209210   19.724867823
    2.281803005   18.848530495   18.854664262   19.793739541
    2.288981636   19.025039849   18.919958961   19.893147419
    2.296160267   19.215798631   18.962154733   19.944665898
    2.303338898   19.346919475   19.041717473   19.951080377
    2.310517529   19.233161265   19.156328437   19.956736512
    2.317696160   18.896158840   19.259978783   19.981815901
    2.324874791   18.834786239   19.385815209   20.069402374
    2.332053422   19.089630134   19.559492911   20.235594738
    2.339232053   19.468101578   19.770411321   20.455286480
    2.346410684   19.886542071   19.970520535   20.669403094
    2.353589316   20.324503514   20.105421610   20.852685300
    2.360767947   20.781235328   20.158649909   21.024100379
    2.367946578   21.228231866   20.207542668   21.203190908
    2.375125209   21.527386858   20.258076348   21.351937726
    2.382303840   21.465639612   20.294062036   21.416798579
    2.389482471   20.724763997   20.317441682   21.365384800
    2.396661102   19.426169630   20.303951555   21.250940020
    2.403839733   18.792344639   20.372568240   21.313763112
    2.411018364   18.738229745   20.547400212   21.553334145
    2.418196995   18.812602964   20.750955530   21.822999202
    2.425375626   18.742415570   20.920842565   22.034894992
    2.432554257   18.674214863   21.040419324   22.151515469
    2.439732888   18.708648285   21.072891469   22.089018596
    2.446911519   18.779399095   21.080283384   21.981422172
    2.454090150   18.864095972   21.162551543   21.988798473
    2.461268781   18.747375369   21.273527738   22.022434588
    2.468447412   18.836181608   21.437588833   22.054312956
    2.475626043   19.254810473   21.653916254   22.139788273
    2.482804674   19.707108903   21.848027074   22.307648740
    2.489983306   19.765108021   21.878877880   22.434292743
    2.497161937   19.224116641   21.802352786   22.568884686
    2.504340568   18.802387250   21.831701427   22.794499326
    2.511519199   18.837809533   22.018307476   23.086982563
    2.518697830   19.235491095   22.313622420   23.403079314
    2.525876461   19.757762273   22.599715265   23.651298918
    2.533055092   20.228673158   22.812953369   23.781296785
    2.540233723   20.623197394   23.029803459   23.890025309
