# energy grid [eV]     ieps_x  ieps_y  ieps_z
#
    0.200000000    8.614807763    9.363940650    9.569674294
    0.207178631    8.612973960    9.361872612    9.567649938
    0.214357262    8.611076477    9.359732790    9.565555263
    0.221535893    8.609115413    9.357521300    9.563390379
    0.228714524    8.607090872    9.355238263    9.561155400
    0.235893155    8.605002963    9.352883803    9.558850441
    0.243071786    8.602851796    9.350458050    9.556475622
    0.250250417    8.600637485    9.347961134    9.554031067
    0.257429048    8.598360147    9.345393191    9.551516904
    0.264607679    8.596019903    9.342754362    9.548933262
    0.271786311    8.593616875    9.340044789    9.546280276
    0.278964942    8.591151192    9.337264620    9.543558083
    0.286143573    8.588622983    9.334414004    9.540766824
    0.293322204    8.586032381    9.331493097    9.537906644
    0.300500835    8.583379523    9.328502055    9.534977690
    0.307679466    8.580664547    9.325441041    9.531980113
    0.314858097    8.577887596    9.322310219    9.528914068
    0.322036728    8.575048816    9.319109758    9.525779713
    0.329215359    8.572148355    9.315839829    9.522577208
    0.336393990    8.569186366    9.312500609    9.519306718
    0.343572621    8.566163001    9.309092276    9.515968411
    0.350751252    8.563078420    9.305615013    9.512562458
    0.357929883    8.559932782    9.302069006    9.509089032
    0.365108514    8.556726252    9.298454443    9.505548312
    0.372287145    8.553458995    9.294771519    9.501940477
    0.379465776    8.550131181    9.291020427    9.498265712
    0.386644407    8.546742982    9.287201369    9.494524203
    0.393823038    8.543294574    9.283314547    9.490716140
    0.401001669    8.539786133    9.279360166    9.486841717
    0.408180301    8.536217842    9.275338435    9.482901128
    0.415358932    8.532589883    9.271249568    9.478894574
    0.422537563    8.528902442    9.267093779    9.474822257
    0.429716194    8.525155709    9.262871287    9.470684381
    0.436894825    8.521349876    9.258582314    9.466481154
    0.444073456    8.517485136    9.254227084    9.462212788
    0.451252087    8.513561687    9.249805827    9.457879497
    0.458430718    8.509579729    9.245318772    9.453481497
    0.465609349    8.505539463    9.240766153    9.449019007
    0.472787980    8.501441096    9.236148208    9.444492251
    0.479966611    8.497284833    9.231465176    9.439901453
    0.487145242    8.493070886    9.226717301    9.435246842
    0.494323873    8.488799466    9.221904827    9.430528648
    0.501502504    8.484470790    9.217028004    9.425747104
    0.508681135    8.480085073    9.212087083    9.420902446
    0.515859766    8.475642536    9.207082317    9.415994914
    0.523038397    8.471143402    9.202013963    9.411024749
    0.530217028    8.466587894    9.196882282    9.405992194
    0.537395659    8.461976241    9.191687535    9.400897496
    0.544574290    8.457308670    9.186429987    9.395740904
    0.551752922    8.452585414    9.181109906    9.390522670
    0.558931553    8.447806706    9.175727561    9.385243047
    0.566110184    8.442972783    9.170283226    9.379902292
    0.573288815    8.438083883    9.164777175    9.374500663
    0.580467446    8.433140245    9.159209686    9.369038422
    0.587646077    8.428142113    9.153581039    9.363515833
    0.594824708    8.423089732    9.147891516    9.357933161
    0.602003339    8.417983347    9.142141402    9.352290673
    0.609181970    8.412823208    9.136330985    9.346588642
    0.616360601    8.407609565    9.130460553    9.340827338
    0.623539232    8.402342672    9.124530398    9.335007038
    0.630717863    8.397022783    9.118540815    9.329128017
    0.637896494    8.391650154    9.112492099    9.323190554
    0.645075125    8.386225044    9.106384549    9.317194931
    0.652253756    8.380747713    9.100218464    9.311141431
    0.659432387    8.375218425    9.093994148    9.305030339
    0.666611018    8.369637442    9.087711904    9.298861942
    0.673789649    8.364005031    9.081372040    9.292636529
    0.680968280    8.358321459    9.074974864    9.286354391
    0.688146912    8.352586995    9.068520685    9.280015821
    0.695325543    8.346801911    9.062009818    9.273621114
    0.702504174    8.340966478    9.055442574    9.267170566
    0.709682805    8.335080972    9.048819272    9.260664475
    0.716861436    8.329145668    9.042140228    9.254103141
    0.724040067    8.323160843    9.035405761    9.247486867
    0.731218698    8.317126776    9.028616194    9.240815956
    0.738397329    8.311043748    9.021771849    9.234090713
    0.745575960    8.304912041    9.014873051    9.227311444
    0.752754591    8.298731937    9.007920125    9.220478458
    0.759933222    8.292503721    9.000913400    9.213592064
    0.767111853    8.286227680    8.993853205    9.206652575
    0.774290484    8.279904100    8.986739870    9.199660303
    0.781469115    8.273533271    8.979573728    9.192615562
    0.788647746    8.267115483    8.972355113    9.185518668
    0.795826377    8.260651026    8.965084359    9.178369938
    0.803005008    8.254140193    8.957761803    9.171169690
    0.810183639    8.247583277    8.950387782    9.163918245
    0.817362270    8.240980574    8.942962636    9.156615922
    0.824540902    8.234332379    8.935486705    9.149263046
    0.831719533    8.227638989    8.927960329    9.141859938
    0.838898164    8.220900702    8.920383853    9.134406924
    0.846076795    8.214117818    8.912757618    9.126904330
    0.853255426    8.207290635    8.905081971    9.119352482
    0.860434057    8.200419455    8.897357257    9.111751709
    0.867612688    8.193504581    8.889583823    9.104102339
    0.874791319    8.186546314    8.881762016    9.096404702
    0.881969950    8.179544959    8.873892186    9.088659131
    0.889148581    8.172500819    8.865974682    9.080865956
    0.896327212    8.165414201    8.858009855    9.073025510
    0.903505843    8.158285411    8.849998056    9.065138128
    0.910684474    8.151114755    8.841939638    9.057204144
    0.917863105    8.143902540    8.833834953    9.049223893
    0.925041736    8.136649076    8.825684356    9.041197713
    0.932220367    8.129354671    8.817488200    9.033125938
    0.939398998    8.122019635    8.809246841    9.025008909
    0.946577629    8.114644278    8.800960635    9.016846962
    0.953756260    8.107228910    8.792629938    9.008640437
    0.960934891    8.099773843    8.784255106    9.000389674
    0.968113523    8.092279388    8.775836499    8.992095013
    0.975292154    8.084745859    8.767374472    8.983756795
    0.982470785    8.077173567    8.758869385    8.975375361
    0.989649416    8.069562826    8.750321597    8.966951054
    0.996828047    8.061913950    8.741731467    8.958484215
    1.004006678    8.054227252    8.733099354    8.949975187
    1.011185309    8.046503046    8.724425619    8.941424313
    1.018363940    8.038741648    8.715710622    8.932831938
    1.025542571    8.030943372    8.706954722    8.924198405
    1.032721202    8.023108533    8.698158282    8.915524059
    1.039899833    8.015237446    8.689321662    8.906809243
    1.047078464    8.007330428    8.680445223    8.898054303
    1.054257095    7.999387794    8.671529326    8.889259585
    1.061435726    7.991409859    8.662574333    8.880425432
    1.068614357    7.983396940    8.653580605    8.871552190
    1.075792988    7.975349354    8.644548504    8.862640206
    1.082971619    7.967267415    8.635478391    8.853689824
    1.090150250    7.959151441    8.626370628    8.844701391
    1.097328881    7.951001747    8.617225577    8.835675253
    1.104507513    7.942818650    8.608043598    8.826611754
    1.111686144    7.934602467    8.598825053    8.817511242
    1.118864775    7.926353512    8.589570303    8.808374061
    1.126043406    7.918072103    8.580279709    8.799200559
    1.133222037    7.909758555    8.570953632    8.789991080
    1.140400668    7.901413184    8.561592433    8.780745969
    1.147579299    7.893036306    8.552196472    8.771465574
    1.154757930    7.884628236    8.542766109    8.762150238
    1.161936561    7.876189290    8.533301704    8.752800307
    1.169115192    7.867719782    8.523803616    8.743416126
    1.176293823    7.859220028    8.514272204    8.733998039
    1.183472454    7.850690341    8.504707828    8.724546391
    1.190651085    7.842131037    8.495110845    8.715061527
    1.197829716    7.833542429    8.485481613    8.705543789
    1.205008347    7.824924830    8.475820490    8.695993522
    1.212186978    7.816278554    8.466127833    8.686411068
    1.219365609    7.807603914    8.456403998    8.676796771
    1.226544240    7.798901222    8.446649342    8.667150972
    1.233722871    7.790170790    8.436864218    8.657474014
    1.240901503    7.781412929    8.427048983    8.647766238
    1.248080134    7.772627951    8.417203990    8.638027985
    1.255258765    7.763816166    8.407329592    8.628259595
    1.262437396    7.754977884    8.397426143    8.618461408
    1.269616027    7.746113414    8.387493996    8.608633764
    1.276794658    7.737223066    8.377533500    8.598777002
    1.283973289    7.728307148    8.367545007    8.588891459
    1.291151920    7.719365967    8.357528867    8.578977474
    1.298330551    7.710399831    8.347485430    8.569035383
    1.305509182    7.701409047    8.337415043    8.559065523
    1.312687813    7.692393919    8.327318055    8.549068230
    1.319866444    7.683354754    8.317194811    8.539043837
    1.327045075    7.674291855    8.307045659    8.528992681
    1.334223706    7.665205527    8.296870942    8.518915093
    1.341402337    7.656096072    8.286671006    8.508811407
    1.348580968    7.646963793    8.276446193    8.498681955
    1.355759599    7.637808992    8.266196846    8.488527069
    1.362938230    7.628631969    8.255923306    8.478347077
    1.370116861    7.619433024    8.245625913    8.468142310
    1.377295492    7.610212456    8.235305007    8.457913098
    1.384474124    7.600970564    8.224960927    8.447659766
    1.391652755    7.591707644    8.214594008    8.437382643
    1.398831386    7.582423995    8.204204589    8.427082054
    1.406010017    7.573119910    8.193793004    8.416758325
    1.413188648    7.563795686    8.183359587    8.406411779
    1.420367279    7.554451616    8.172904671    8.396042740
    1.427545910    7.545087994    8.162428588    8.385651531
    1.434724541    7.535705110    8.151931670    8.375238472
    1.441903172    7.526303257    8.141414245    8.364803883
    1.449081803    7.516882724    8.130876641    8.354348084
    1.456260434    7.507443801    8.120319188    8.343871394
    1.463439065    7.497986775    8.109742209    8.333374128
    1.470617696    7.488511935    8.099146032    8.322856604
    1.477796327    7.479019565    8.088530978    8.312319136
    1.484974958    7.469509952    8.077897370    8.301762038
    1.492153589    7.459983380    8.067245530    8.291185623
    1.499332220    7.450440130    8.056575778    8.280590203
    1.506510851    7.440880486    8.045888432    8.269976088
    1.513689482    7.431304727    8.035183809    8.259343588
    1.520868114    7.421713135    8.024462225    8.248693010
    1.528046745    7.412105987    8.013723996    8.238024662
    1.535225376    7.402483561    8.002969435    8.227338850
    1.542404007    7.392846134    7.992198852    8.216635878
    1.549582638    7.383193980    7.981412561    8.205916051
    1.556761269    7.373527374    7.970610868    8.195179669
    1.563939900    7.363846589    7.959794083    8.184427034
    1.571118531    7.354151896    7.948962512    8.173658446
    1.578297162    7.344443566    7.938116460    8.162874203
    1.585475793    7.334721869    7.927256231    8.152074602
    1.592654424    7.324987072    7.916382127    8.141259940
    1.599833055    7.315239444    7.905494449    8.130430511
    1.607011686    7.305479249    7.894593497    8.119586609
    1.614190317    7.295706752    7.883679567    8.108728525
    1.621368948    7.285922216    7.872752958    8.097856550
    1.628547579    7.276125904    7.861813963    8.086970973
    1.635726210    7.266318076    7.850862877    8.076072083
    1.642904841    7.256498992    7.839899991    8.065160166
    1.650083472    7.246668910    7.828925597    8.054235508
    1.657262104    7.236828088    7.817939982    8.043298393
    1.664440735    7.226976780    7.806943436    8.032349103
    1.671619366    7.217115242    7.795936243    8.021387919
    1.678797997    7.207243727    7.784918689    8.010415121
    1.685976628    7.197362486    7.773891056    7.999430988
    1.693155259    7.187471770    7.762853625    7.988435797
    1.700333890    7.177571828    7.751806678    7.977429823
    1.707512521    7.167662908    7.740750491    7.966413341
    1.714691152    7.157745258    7.729685343    7.955386623
    1.721869783    7.147819121    7.718611507    7.944349941
    1.729048414    7.137884743    7.707529259    7.933303565
    1.736227045    7.127942365    7.696438869    7.922247763
    1.743405676    7.117992228    7.685340609    7.911182802
    1.750584307    7.108034574    7.674234747    7.900108948
    1.757762938    7.098069640    7.663121551    7.889026464
    1.764941569    7.088097663    7.652001286    7.877935615
    1.772120200    7.078118879    7.640874217    7.866836660
    1.779298831    7.068133524    7.629740607    7.855729859
    1.786477462    7.058141828    7.618600716    7.844615471
    1.793656093    7.048144026    7.607454803    7.833493753
    1.800834725    7.038140346    7.596303127    7.822364959
    1.808013356    7.028131018    7.585145943    7.811229344
    1.815191987    7.018116269    7.573983507    7.800087160
    1.822370618    7.008096326    7.562816070    7.788938657
    1.829549249    6.998071412    7.551643885    7.777784085
    1.836727880    6.988041753    7.540467200    7.766623692
    1.843906511    6.978007569    7.529286265    7.755457724
    1.851085142    6.967969081    7.518101324    7.744286426
    1.858263773    6.957926508    7.506912624    7.733110040
    1.865442404    6.947880068    7.495720408    7.721928809
    1.872621035    6.937829978    7.484524916    7.710742974
    1.879799666    6.927776453    7.473326389    7.699552771
    1.886978297    6.917719705    7.462125064    7.688358440
    1.894156928    6.907659947    7.450921180    7.677160215
    1.901335559    6.897597391    7.439714969    7.665958331
    1.908514190    6.887532244    7.428506667    7.654753019
    1.915692821    6.877464716    7.417296504    7.643544513
    1.922871452    6.867395012    7.406084711    7.632333040
    1.930050083    6.857323338    7.394871516    7.621118828
    1.937228715    6.847249898    7.383657146    7.609902106
    1.944407346    6.837174893    7.372441826    7.598683096
    1.951585977    6.827098525    7.361225780    7.587462023
    1.958764608    6.817020993    7.350009229    7.576239109
    1.965943239    6.806942494    7.338792394    7.565014574
    1.973121870    6.796863227    7.327575493    7.553788637
    1.980300501    6.786783385    7.316358743    7.542561514
    1.987479132    6.776703164    7.305142360    7.531333423
    1.994657763    6.766622754    7.293926558    7.520104577
    2.001836394    6.756542347    7.282711548    7.508875189
    2.009015025    6.746462133    7.271497542    7.497645470
    2.016193656    6.736382300    7.260284747    7.486415629
    2.023372287    6.726303034    7.249073371    7.475185876
    2.030550918    6.716224521    7.237863620    7.463956415
    2.037729549    6.706146945    7.226655698    7.452727454
    2.044908180    6.696070489    7.215449807    7.441499194
    2.052086811    6.685995333    7.204246148    7.430271839
    2.059265442    6.675921657    7.193044920    7.419045588
    2.066444073    6.665849640    7.181846320    7.407820640
    2.073622705    6.655779459    7.170650545    7.396597194
    2.080801336    6.645711289    7.159457789    7.385375445
    2.087979967    6.635645304    7.148268245    7.374155587
    2.095158598    6.625581677    7.137082104    7.362937814
    2.102337229    6.615520580    7.125899555    7.351722316
    2.109515860    6.605462182    7.114720786    7.340509284
    2.116694491    6.595406653    7.103545984    7.329298907
    2.123873122    6.585354159    7.092375334    7.318091370
    2.131051753    6.575304867    7.081209019    7.306886860
    2.138230384    6.565258940    7.070047220    7.295685560
    2.145409015    6.555216543    7.058890118    7.284487654
    2.152587646    6.545177837    7.047737891    7.273293321
    2.159766277    6.535142981    7.036590716    7.262102741
    2.166944908    6.525112136    7.025448769    7.250916093
    2.174123539    6.515085460    7.014312223    7.239733553
    2.181302170    6.505063107    7.003181251    7.228555295
    2.188480801    6.495045234    6.992056024    7.217381494
    2.195659432    6.485031995    6.980936710    7.206212321
    2.202838063    6.475023540    6.969823477    7.195047947
    2.210016694    6.465020022    6.958716493    7.183888542
    2.217195326    6.455021591    6.947615920    7.172734272
    2.224373957    6.445028393    6.936521924    7.161585305
    2.231552588    6.435040577    6.925434664    7.150441805
    2.238731219    6.425058289    6.914354301    7.139303935
    2.245909850    6.415081671    6.903280994    7.128171857
    2.253088481    6.405110869    6.892214901    7.117045732
    2.260267112    6.395146023    6.881156175    7.105925720
    2.267445743    6.385187273    6.870104973    7.094811976
    2.274624374    6.375234759    6.859061446    7.083704659
    2.281803005    6.365288620    6.848025745    7.072603922
    2.288981636    6.355348990    6.836998021    7.061509918
    2.296160267    6.345416007    6.825978421    7.050422801
    2.303338898    6.335489802    6.814967093    7.039342720
    2.310517529    6.325570511    6.803964181    7.028269825
    2.317696160    6.315658263    6.792969830    7.017204264
    2.324874791    6.305753189    6.781984181    7.006146182
    2.332053422    6.295855418    6.771007377    6.995095725
    2.339232053    6.285965077    6.760039557    6.984053037
    2.346410684    6.276082294    6.749080858    6.973018259
    2.353589316    6.266207193    6.738131418    6.961991533
    2.360767947    6.256339898    6.727191372    6.950972998
    2.367946578    6.246480532    6.716260854    6.939962793
    2.375125209    6.236629216    6.705339996    6.928961054
    2.382303840    6.226786070    6.694428930    6.917967917
    2.389482471    6.216951214    6.683527785    6.906983515
    2.396661102    6.207124766    6.672636690    6.896007983
    2.403839733    6.197306841    6.661755772    6.885041450
    2.411018364    6.187497556    6.650885156    6.874084048
    2.418196995    6.177697025    6.640024967    6.863135906
    2.425375626    6.167905360    6.629175328    6.852197149
    2.432554257    6.158122673    6.618336360    6.841267906
    2.439732888    6.148349075    6.607508183    6.830348301
    2.446911519    6.138584676    6.596690917    6.819438458
    2.454090150    6.128829583    6.585884679    6.808538498
    2.461268781    6.119083905    6.575089586    6.797648544
    2.468447412    6.109347746    6.564305752    6.786768714
    2.475626043    6.099621212    6.553533291    6.775899128
    2.482804674    6.089904406    6.542772316    6.765039902
    2.489983306    6.080197430    6.532022937    6.754191153
    2.497161937    6.070500387    6.521285265    6.743352995
    2.504340568    6.060813377    6.510559407    6.732525543
    2.511519199    6.051136498    6.499845472    6.721708907
    2.518697830    6.041469848    6.489143565    6.710903200
    2.525876461    6.031813525    6.478453791    6.700108531
    2.533055092    6.022167624    6.467776253    6.689325008
    2.540233723    6.012532241    6.457111054    6.678552739
