# energy grid [eV]     epsr_x  epsr_y  epsr_z
#
    0.200000000   15.519756272    2.154320072   15.568158262
    0.207178631   15.523140185    2.154434828   15.571640247
    0.214357262   15.526645192    2.154553659   15.575246910
    0.221535893   15.530271477    2.154676566   15.578978451
    0.228714524   15.534019235    2.154803554   15.582835076
    0.235893155   15.537888663    2.154934624   15.586816999
    0.243071786   15.541879968    2.155069781   15.590924441
    0.250250417   15.545993364    2.155209028   15.595157630
    0.257429048   15.550229068    2.155352367   15.599516802
    0.264607679   15.554587307    2.155499803   15.604002198
    0.271786311   15.559068315    2.155651339   15.608614069
    0.278964942   15.563672331    2.155806979   15.613352673
    0.286143573   15.568399601    2.155966727   15.618218273
    0.293322204   15.573250379    2.156130586   15.623211141
    0.300500835   15.578224926    2.156298561   15.628331558
    0.307679466   15.583323508    2.156470655   15.633579810
    0.314858097   15.588546401    2.156646874   15.638956191
    0.322036728   15.593893885    2.156827220   15.644461005
    0.329215359   15.599366250    2.157011700   15.650094560
    0.336393990   15.604963790    2.157200316   15.655857174
    0.343572621   15.610686808    2.157393075   15.661749172
    0.350751252   15.616535616    2.157589980   15.667770888
    0.357929883   15.622510529    2.157791036   15.673922661
    0.365108514   15.628611872    2.157996250   15.680204842
    0.372287145   15.634839978    2.158205624   15.686617786
    0.379465776   15.641195185    2.158419166   15.693161858
    0.386644407   15.647677841    2.158636879   15.699837431
    0.393823038   15.654288300    2.158858770   15.706644886
    0.401001669   15.661026923    2.159084843   15.713584611
    0.408180301   15.667894080    2.159315105   15.720657005
    0.415358932   15.674890148    2.159549562   15.727862472
    0.422537563   15.682015512    2.159788218   15.735201427
    0.429716194   15.689270565    2.160031080   15.742674292
    0.436894825   15.696655706    2.160278155   15.750281498
    0.444073456   15.704171345    2.160529447   15.758023484
    0.451252087   15.711817898    2.160784964   15.765900699
    0.458430718   15.719595789    2.161044712   15.773913599
    0.465609349   15.727505450    2.161308697   15.782062649
    0.472787980   15.735547322    2.161576926   15.790348325
    0.479966611   15.743721854    2.161849406   15.798771110
    0.487145242   15.752029502    2.162126143   15.807331496
    0.494323873   15.760470734    2.162407145   15.816029985
    0.501502504   15.769046021    2.162692418   15.824867087
    0.508681135   15.777755847    2.162981970   15.833843322
    0.515859766   15.786600702    2.163275808   15.842959221
    0.523038397   15.795581087    2.163573940   15.852215320
    0.530217028   15.804697510    2.163876372   15.861612170
    0.537395659   15.813950487    2.164183113   15.871150328
    0.544574290   15.823340545    2.164494170   15.880830361
    0.551752922   15.832868219    2.164809551   15.890652846
    0.558931553   15.842534053    2.165129265   15.900618373
    0.566110184   15.852338600    2.165453318   15.910727537
    0.573288815   15.862282423    2.165781721   15.920980946
    0.580467446   15.872366094    2.166114480   15.931379218
    0.587646077   15.882590194    2.166451605   15.941922981
    0.594824708   15.892955314    2.166793104   15.952612873
    0.602003339   15.903462054    2.167138985   15.963449544
    0.609181970   15.914111024    2.167489259   15.974433653
    0.616360601   15.924902845    2.167843932   15.985565871
    0.623539232   15.935838145    2.168203016   15.996846879
    0.630717863   15.946917566    2.168566518   16.008277369
    0.637896494   15.958141756    2.168934449   16.019858044
    0.645075125   15.969511376    2.169306817   16.031589620
    0.652253756   15.981027097    2.169683633   16.043472823
    0.659432387   15.992689600    2.170064906   16.055508389
    0.666611018   16.004499576    2.170450646   16.067697069
    0.673789649   16.016457727    2.170840863   16.080039624
    0.680968280   16.028564766    2.171235567   16.092536825
    0.688146912   16.040821418    2.171634768   16.105189459
    0.695325543   16.053228417    2.172038477   16.117998323
    0.702504174   16.065786509    2.172446705   16.130964226
    0.709682805   16.078496453    2.172859461   16.144087990
    0.716861436   16.091359016    2.173276758   16.157370449
    0.724040067   16.104374979    2.173698605   16.170812452
    0.731218698   16.117545134    2.174125014   16.184414859
    0.738397329   16.130870286    2.174555996   16.198178543
    0.745575960   16.144351250    2.174991562   16.212104391
    0.752754591   16.157988854    2.175431724   16.226193304
    0.759933222   16.171783939    2.175876494   16.240446195
    0.767111853   16.185737357    2.176325883   16.254863993
    0.774290484   16.199849974    2.176779903   16.269447639
    0.781469115   16.214122667    2.177238567   16.284198088
    0.788647746   16.228556328    2.177701886   16.299116312
    0.795826377   16.243151861    2.178169873   16.314203295
    0.803005008   16.257910182    2.178642540   16.329460036
    0.810183639   16.272832223    2.179119900   16.344887550
    0.817362270   16.287918926    2.179601966   16.360486867
    0.824540902   16.303171251    2.180088751   16.376259032
    0.831719533   16.318590169    2.180580268   16.392205105
    0.838898164   16.334176666    2.181076530   16.408326162
    0.846076795   16.349931741    2.181577550   16.424623296
    0.853255426   16.365856410    2.182083342   16.441097615
    0.860434057   16.381951701    2.182593921   16.457750244
    0.867612688   16.398218658    2.183109299   16.474582324
    0.874791319   16.414658341    2.183629491   16.491595015
    0.881969950   16.431271824    2.184154510   16.508789491
    0.889148581   16.448060197    2.184684373   16.526166947
    0.896327212   16.465024565    2.185219092   16.543728592
    0.903505843   16.482166049    2.185758682   16.561475654
    0.910684474   16.499485787    2.186303159   16.579409382
    0.917863105   16.516984933    2.186852537   16.597531040
    0.925041736   16.534664657    2.187406832   16.615841911
    0.932220367   16.552526146    2.187966059   16.634343299
    0.939398998   16.570570604    2.188530233   16.653036527
    0.946577629   16.588799254    2.189099370   16.671922935
    0.953756260   16.607213333    2.189673487   16.691003885
    0.960934891   16.625814099    2.190252598   16.710280760
    0.968113523   16.644602827    2.190836721   16.729754961
    0.975292154   16.663580809    2.191425872   16.749427912
    0.982470785   16.682749358    2.192020066   16.769301057
    0.989649416   16.702109803    2.192619322   16.789375861
    0.996828047   16.721663496    2.193223656   16.809653812
    1.004006678   16.741411804    2.193833085   16.830136419
    1.011185309   16.761356118    2.194447626   16.850825215
    1.018363940   16.781497844    2.195067297   16.871721755
    1.025542571   16.801838414    2.195692116   16.892827616
    1.032721202   16.822379277    2.196322101   16.914144401
    1.039899833   16.843121903    2.196957269   16.935673736
    1.047078464   16.864067785    2.197597638   16.957417270
    1.054257095   16.885218436    2.198243228   16.979376678
    1.061435726   16.906575392    2.198894058   17.001553662
    1.068614357   16.928140211    2.199550144   17.023949946
    1.075792988   16.949914474    2.200211508   17.046567282
    1.082971619   16.971899783    2.200878168   17.069407448
    1.090150250   16.994097767    2.201550143   17.092472251
    1.097328881   17.016510075    2.202227454   17.115763522
    1.104507513   17.039138383    2.202910120   17.139283122
    1.111686144   17.061984389    2.203598161   17.163032940
    1.118864775   17.085049819    2.204291598   17.187014893
    1.126043406   17.108336422    2.204990451   17.211230929
    1.133222037   17.131845973    2.205694741   17.235683025
    1.140400668   17.155580274    2.206404488   17.260373187
    1.147579299   17.179541154    2.207119715   17.285303455
    1.154757930   17.203730466    2.207840442   17.310475897
    1.161936561   17.228150095    2.208566691   17.335892616
    1.169115192   17.252801950    2.209298484   17.361555745
    1.176293823   17.277687972    2.210035842   17.387467453
    1.183472454   17.302810128    2.210778790   17.413629940
    1.190651085   17.328170416    2.211527348   17.440045443
    1.197829716   17.353770864    2.212281540   17.466716233
    1.205008347   17.379613530    2.213041388   17.493644615
    1.212186978   17.405700503    2.213806917   17.520832934
    1.219365609   17.432033904    2.214578149   17.548283568
    1.226544240   17.458615885    2.215355108   17.575998936
    1.233722871   17.485448633    2.216137819   17.603981494
    1.240901503   17.512534366    2.216926305   17.632233737
    1.248080134   17.539875336    2.217720592   17.660758202
    1.255258765   17.567473831    2.218520703   17.689557463
    1.262437396   17.595332174    2.219326665   17.718634139
    1.269616027   17.623452722    2.220138501   17.747990890
    1.276794658   17.651837869    2.220956239   17.777630419
    1.283973289   17.680490048    2.221779904   17.807555473
    1.291151920   17.709411728    2.222609521   17.837768844
    1.298330551   17.738605416    2.223445117   17.868273370
    1.305509182   17.768073659    2.224286720   17.899071935
    1.312687813   17.797819045    2.225134356   17.930167471
    1.319866444   17.827844201    2.225988051   17.961562959
    1.327045075   17.858151796    2.226847835   17.993261430
    1.334223706   17.888744542    2.227713734   18.025265963
    1.341402337   17.919625192    2.228585777   18.057579692
    1.348580968   17.950796545    2.229463992   18.090205801
    1.355759599   17.982261444    2.230348407   18.123147530
    1.362938230   18.014022778    2.231239053   18.156408172
    1.370116861   18.046083482    2.232135958   18.189991076
    1.377295492   18.078446538    2.233039151   18.223899651
    1.384474124   18.111114977    2.233948664   18.258137361
    1.391652755   18.144091880    2.234864526   18.292707732
    1.398831386   18.177380377    2.235786767   18.327614350
    1.406010017   18.210983651    2.236715419   18.362860864
    1.413188648   18.244904935    2.237650513   18.398450986
    1.420367279   18.279147517    2.238592081   18.434388493
    1.427545910   18.313714740    2.239540154   18.470677228
    1.434724541   18.348610001    2.240494765   18.507321105
    1.441903172   18.383836755    2.241455946   18.544324104
    1.449081803   18.419398516    2.242423731   18.581690277
    1.456260434   18.455298855    2.243398152   18.619423749
    1.463439065   18.491541405    2.244379244   18.657528720
    1.470617696   18.528129859    2.245367041   18.696009465
    1.477796327   18.565067975    2.246361577   18.734870337
    1.484974958   18.602359576    2.247362886   18.774115768
    1.492153589   18.640008547    2.248371004   18.813750273
    1.499332220   18.678018845    2.249385968   18.853778449
    1.506510851   18.716394491    2.250407811   18.894204978
    1.513689482   18.755139581    2.251436572   18.935034632
    1.520868114   18.794258278    2.252472286   18.976272266
    1.528046745   18.833754822    2.253514991   19.017922827
    1.535225376   18.873633524    2.254564725   19.059991336
    1.542404007   18.913898772    2.255621525   19.102482883
    1.549582638   18.954555037    2.256685430   19.145402737
    1.556761269   18.995606873    2.257756478   19.188756352
    1.563939900   19.037058909    2.258834710   19.232549157
    1.571118531   19.078915858    2.259920164   19.276786656
    1.578297162   19.121182520    2.261012882   19.321474490
    1.585475793   19.163863782    2.262112902   19.366618422
    1.592654424   19.206964622    2.263220268   19.412224333
    1.599833055   19.250490109    2.264335019   19.458298221
    1.607011686   19.294445409    2.265457198   19.504846203
    1.614190317   19.338835778    2.266586848   19.551874519
    1.621368948   19.383666571    2.267724011   19.599389536
    1.628547579   19.428943228    2.268868732   19.647397749
    1.635726210   19.474671296    2.270021053   19.695905785
    1.642904841   19.520856495    2.271181019   19.744920410
    1.650083472   19.567504631    2.272348676   19.794448530
    1.657262104   19.614621572    2.273524068   19.844497190
    1.664440735   19.662213306    2.274707242   19.895073587
    1.671619366   19.710285949    2.275898245   19.946185067
    1.678797997   19.758845740    2.277097122   19.997839133
    1.685976628   19.807899037    2.278303923   20.050043447
    1.693155259   19.857452306    2.279518694   20.102805836
    1.700333890   19.907512100    2.280741484   20.156134297
    1.707512521   19.958085118    2.281972343   20.210036999
    1.714691152   20.009178420    2.283211320   20.264522291
    1.721869783   20.060799124    2.284458468   20.319598706
    1.729048414   20.112954318    2.285713837   20.375274964
    1.736227045   20.165651270    2.286977479   20.431559983
    1.743405676   20.218897433    2.288249444   20.488462879
    1.750584307   20.272700424    2.289529787   20.545992976
    1.757762938   20.327068023    2.290818561   20.604159809
    1.764941569   20.382008171    2.292115820   20.662973131
    1.772120200   20.437528980    2.293421619   20.722442920
    1.779298831   20.493638731    2.294736013   20.782579375
    1.786477462   20.550345881    2.296059059   20.843392894
    1.793656093   20.607659069    2.297390813   20.904894071
    1.800834725   20.665587125    2.298731334   20.967093924
    1.808013356   20.724139077    2.300080679   21.030003911
    1.815191987   20.783324144    2.301438907   21.093635482
    1.822370618   20.843151744    2.302806079   21.158000308
    1.829549249   20.903631509    2.304182254   21.223110404
    1.836727880   20.964773284    2.305567495   21.288978108
    1.843906511   21.026587140    2.306961862   21.355616073
    1.851085142   21.089083374    2.308365419   21.423037267
    1.858263773   21.152272519    2.309778229   21.491254987
    1.865442404   21.216165351    2.311200357   21.560282867
    1.872621035   21.280772894    2.312631869   21.630134890
    1.879799666   21.346106430    2.314072829   21.700825399
    1.886978297   21.412177509    2.315523305   21.772369111
    1.894156928   21.478997949    2.316983365   21.844781130
    1.901335559   21.546579854    2.318453077   21.918076959
    1.908514190   21.614935618    2.319932511   21.992272512
    1.915692821   21.684077934    2.321421738   22.067384134
    1.922871452   21.754019806    2.322920829   22.143428612
    1.930050083   21.824774555    2.324429855   22.220423193
    1.937228715   21.896355835    2.325948892   22.298385597
    1.944407346   21.968777638    2.327478012   22.377334041
    1.951585977   22.042054311    2.329017291   22.457287249
    1.958764608   22.116200561    2.330566805   22.538264480
    1.965943239   22.191231463    2.332126632   22.620285539
    1.973121870   22.267162460    2.333696851   22.703370804
    1.980300501   22.344009332    2.335277538   22.787541244
    1.987479132   22.421788327    2.336868776   22.872818446
    1.994657763   22.500516405    2.338470647   22.959224634
    2.001836394   22.580210813    2.340083235   23.046782701
    2.009015025   22.660889070    2.341706623   23.135516226
    2.016193656   22.742569220    2.343340895   23.225449509
    2.023372287   22.825269843    2.344986138   23.316607594
    2.030550918   22.909010039    2.346642439   23.409016296
    2.037729549   22.993809435    2.348309888   23.502702202
    2.044908180   23.079688205    2.349988573   23.597692657
    2.052086811   23.166667107    2.351678586   23.694015936
    2.059265442   23.254767516    2.353380021   23.791701627
    2.066444073   23.344011388    2.355092973   23.890780165
    2.073622705   23.434421305    2.356817535   23.991282625
    2.080801336   23.526020518    2.358553805   24.093241160
    2.087979967   23.618832960    2.360301881   24.196689060
    2.095158598   23.712883267    2.362061861   24.301660720
    2.102337229   23.808196839    2.363833846   24.408191806
    2.109515860   23.904799898    2.365617943   24.516319443
    2.116694491   24.002719424    2.367414254   24.626081863
    2.123873122   24.101983206    2.369222886   24.737518538
    2.131051753   24.202619914    2.371043946   24.850670392
    2.138230384   24.304659133    2.372877543   24.965579810
    2.145409015   24.408131392    2.374723786   25.082290687
    2.152587646   24.513068207    2.376582791   25.200848835
    2.159766277   24.619502120    2.378454669   25.321301926
    2.166944908   24.727466744    2.380339539   25.443699065
    2.174123539   24.836996811    2.382237518   25.568091216
    2.181302170   24.948128218    2.384148726   25.694531406
    2.188480801   25.060898079    2.386073285   25.823074776
    2.195659432   25.175344752    2.388011319   25.953778656
    2.202838063   25.291507845    2.389962954   26.086702638
    2.210016694   25.409428270    2.391928316   26.221908721
    2.217195326   25.529148725    2.393907539   26.359461674
    2.224373957   25.650713655    2.395900753   26.499428959
    2.231552588   25.774168857    2.397908095   26.641880936
    2.238731219   25.899561678    2.399929699   26.786890954
    2.245909850   26.026941065    2.401965702   26.934535264
    2.253088481   26.156357952    2.404016248   27.084893690
    2.260267112   26.287865359    2.406081485   27.238049859
    2.267445743   26.421518226    2.408161558   27.394090927
    2.274624374   26.557373593    2.410256607   27.553107954
    2.281803005   26.695490797    2.412366783   27.715196397
    2.288981636   26.835931598    2.414492259   27.880456466
    2.296160267   26.978760216    2.416633193   28.048993000
    2.303338898   27.124043475    2.418789740   28.220915835
    2.310517529   27.271850984    2.420962060   28.396340294
    2.317696160   27.422255276    2.423150320   28.575387529
    2.324874791   27.575331972    2.425354688   28.758184870
    2.332053422   27.731159952    2.427575339   28.944866228
    2.339232053   27.889821549    2.429812448   29.135572561
    2.346410684   28.051402755    2.432066195   29.330452366
    2.353589316   28.215993397    2.434336762   29.529662183
    2.360767947   28.383687356    2.436624332   29.733367163
    2.367946578   28.554582797    2.438929086   29.941741682
    2.375125209   28.728782600    2.441251224   30.154970025
    2.382303840   28.906394548    2.443590966   30.373246932
    2.389482471   29.087531249    2.445948509   30.596778396
    2.396661102   29.272311420    2.448324049   30.825784191
    2.403839733   29.460860033    2.450717803   31.060497780
    2.411018364   29.653307522    2.453129991   31.301165477
    2.418196995   29.849790971    2.455560828   31.548049161
    2.425375626   30.050454985    2.458010539   31.801428039
    2.432554257   30.255451484    2.460479353   32.061599301
    2.439732888   30.464940170    2.462967505   32.328879533
    2.446911519   30.679090506    2.465475237   32.603608991
    2.454090150   30.898081801    2.468002794   32.886152636
    2.461268781   31.122102202    2.470550427   33.176898638
    2.468447412   31.351350826    2.473118391   33.476263223
    2.475626043   31.586038693    2.475706953   33.784693912
    2.482804674   31.826389238    2.478316395   34.102672116
    2.489983306   32.072639421    2.480946993   34.430717160
    2.497161937   32.325040854    2.483599028   34.769389628
    2.504340568   32.583860960    2.486272793   35.119294720
    2.511519199   32.849384263    2.488968587   35.481087727
    2.518697830   33.121913816    2.491686718   35.855479611
    2.525876461   33.401772769    2.494427495   36.243243054
    2.533055092   33.689306093    2.497191222   36.645219396
    2.540233723   33.984882376    2.499978223   37.062326398
