# energy grid [eV]     epsr_x  epsr_y  epsr_z
#
    0.200000000   10.709672611    9.610041314    5.048402197
    0.207178631   10.711615911    9.612070971    5.049191018
    0.214357262   10.713628718    9.614173482    5.050008085
    0.221535893   10.715711136    9.616348983    5.050853442
    0.228714524   10.717863274    9.618597615    5.051727138
    0.235893155   10.720085242    9.620919524    5.052629221
    0.243071786   10.722377156    9.623314860    5.053559742
    0.250250417   10.724739134    9.625783780    5.054518752
    0.257429048   10.727171301    9.628326443    5.055506305
    0.264607679   10.729673782    9.630943018    5.056522457
    0.271786311   10.732246709    9.633633675    5.057567266
    0.278964942   10.734890217    9.636398591    5.058640790
    0.286143573   10.737604444    9.639237947    5.059743091
    0.293322204   10.740389533    9.642151932    5.060874230
    0.300500835   10.743245631    9.645140738    5.062034273
    0.307679466   10.746172890    9.648204564    5.063223285
    0.314858097   10.749171464    9.651343613    5.064441334
    0.322036728   10.752241514    9.654558094    5.065688491
    0.329215359   10.755383201    9.657848223    5.066964827
    0.336393990   10.758596696    9.661214220    5.068270415
    0.343572621   10.761882169    9.664656312    5.069605332
    0.350751252   10.765239798    9.668174731    5.070969654
    0.357929883   10.768669764    9.671769715    5.072363462
    0.365108514   10.772172252    9.675441509    5.073786836
    0.372287145   10.775747453    9.679190363    5.075239859
    0.379465776   10.779395561    9.683016533    5.076722618
    0.386644407   10.783116775    9.686920282    5.078235199
    0.393823038   10.786911299    9.690901878    5.079777693
    0.401001669   10.790779343    9.694961598    5.081350190
    0.408180301   10.794721120    9.699099722    5.082952784
    0.415358932   10.798736848    9.703316539    5.084585571
    0.422537563   10.802826751    9.707612345    5.086248650
    0.429716194   10.806991057    9.711987440    5.087942120
    0.436894825   10.811230000    9.716442133    5.089666083
    0.444073456   10.815543820    9.720976741    5.091420645
    0.451252087   10.819932759    9.725591584    5.093205912
    0.458430718   10.824397068    9.730286995    5.095021995
    0.465609349   10.828937001    9.735063309    5.096869003
    0.472787980   10.833552818    9.739920871    5.098747053
    0.479966611   10.838244786    9.744860034    5.100656260
    0.487145242   10.843013177    9.749881157    5.102596744
    0.494323873   10.847858267    9.754984608    5.104568625
    0.501502504   10.852780341    9.760170764    5.106572029
    0.508681135   10.857779688    9.765440007    5.108607083
    0.515859766   10.862856604    9.770792731    5.110673915
    0.523038397   10.868011391    9.776229335    5.112772658
    0.530217028   10.873244357    9.781750230    5.114903447
    0.537395659   10.878555817    9.787355834    5.117066420
    0.544574290   10.883946093    9.793046574    5.119261718
    0.551752922   10.889415513    9.798822886    5.121489485
    0.558931553   10.894964412    9.804685217    5.123749866
    0.566110184   10.900593135    9.810634021    5.126043013
    0.573288815   10.906302029    9.816669765    5.128369077
    0.580467446   10.912091454    9.822792925    5.130728215
    0.587646077   10.917961773    9.829003985    5.133120587
    0.594824708   10.923913359    9.835303442    5.135546355
    0.602003339   10.929946595    9.841691805    5.138005685
    0.609181970   10.936061869    9.848169591    5.140498747
    0.616360601   10.942259579    9.854737331    5.143025714
    0.623539232   10.948540131    9.861395565    5.145586763
    0.630717863   10.954903942    9.868144850    5.148182075
    0.637896494   10.961351435    9.874985749    5.150811835
    0.645075125   10.967883046    9.881918844    5.153476231
    0.652253756   10.974499219    9.888944726    5.156175455
    0.659432387   10.981200407    9.896064001    5.158909706
    0.666611018   10.987987077    9.903277289    5.161679183
    0.673789649   10.994859703    9.910585225    5.164484092
    0.680968280   11.001818773    9.917988458    5.167324644
    0.688146912   11.008864785    9.925487653    5.170201054
    0.695325543   11.015998249    9.933083491    5.173113542
    0.702504174   11.023219689    9.940776669    5.176062331
    0.709682805   11.030529640    9.948567902    5.179047653
    0.716861436   11.037928651    9.956457923    5.182069742
    0.724040067   11.045417287    9.964447483    5.185128839
    0.731218698   11.052996124    9.972537351    5.188225192
    0.738397329   11.060665756    9.980728317    5.191359051
    0.745575960   11.068426792    9.989021194    5.194530677
    0.752754591   11.076279856    9.997416812    5.197740335
    0.759933222   11.084225591   10.005916028    5.200988294
    0.767111853   11.092264658   10.014519720    5.204274835
    0.774290484   11.100397736   10.023228792    5.207600244
    0.781469115   11.108625524   10.032044173    5.210964812
    0.788647746   11.116948743   10.040966819    5.214368841
    0.795826377   11.125368135   10.049997716    5.217812640
    0.803005008   11.133884464   10.059137879    5.221296526
    0.810183639   11.142498521   10.068388353    5.224820825
    0.817362270   11.151211120   10.077750219    5.228385874
    0.824540902   11.160023104   10.087224590    5.231992017
    0.831719533   11.168935344   10.096812617    5.235639610
    0.838898164   11.177948743   10.106515492    5.239329019
    0.846076795   11.187064234   10.116334446    5.243060620
    0.853255426   11.196282787   10.126270755    5.246834804
    0.860434057   11.205605407   10.136325740    5.250651971
    0.867612688   11.215033139   10.146500776    5.254512537
    0.874791319   11.224567072   10.156797286    5.258416930
    0.881969950   11.234208337   10.167216753    5.262365594
    0.889148581   11.243958115   10.177760720    5.266358988
    0.896327212   11.253817640   10.188430796    5.270397588
    0.903505843   11.263788200   10.199228657    5.274481887
    0.910684474   11.273871146   10.210156057    5.278612397
    0.917863105   11.284067893   10.221214833    5.282789652
    0.925041736   11.294379929   10.232406906    5.287014205
    0.932220367   11.304808817   10.243734295    5.291286634
    0.939398998   11.315356207   10.255199123    5.295607540
    0.946577629   11.326023840   10.266803625    5.299977554
    0.953756260   11.336813556   10.278550160    5.304397332
    0.960934891   11.347727311   10.290441222    5.308867564
    0.968113523   11.358767177   10.302479453    5.313388973
    0.975292154   11.369935366   10.314667658    5.317962318
    0.982470785   11.381234235   10.327008824    5.322588400
    0.989649416   11.392666308   10.339506136    5.327268061
    0.996828047   11.404234294   10.352163001    5.332002194
    1.004006678   11.415941107   10.364983073    5.336791742
    1.011185309   11.427789893   10.377970282    5.341637708
    1.018363940   11.439784057   10.391128871    5.346541157
    1.025542571   11.451927296   10.404463427    5.351503229
    1.032721202   11.464223644   10.417978937    5.356525138
    1.039899833   11.476677508   10.431680835    5.361608190
    1.047078464   11.489293733   10.445575064    5.366753789
    1.054257095   11.502077659   10.459668158    5.371963451
    1.061435726   11.515035201   10.473967323    5.377238817
    1.068614357   11.528172939   10.488480547    5.382581674
    1.075792988   11.541498230   10.503216726    5.387993969
    1.082971619   11.555019345   10.518185822    5.393477841
    1.090150250   11.568745627   10.533399047    5.399035644
    1.097328881   11.582687700   10.548869100    5.404669983
    1.104507513   11.596857718   10.564610452    5.410383760
    1.111686144   11.611269679   10.580639704    5.416180222
    1.118864775   11.625939821   10.596976044    5.422063028
    1.126043406   11.640887133   10.613641821    5.428036329
    1.133222037   11.656134004   10.630663284    5.434104869
    1.140400668   11.671707075   10.648071552    5.440274114
    1.147579299   11.687638359   10.665903876    5.446550420
    1.154757930   11.703966737   10.684205331    5.452941250
    1.161936561   11.720739975   10.703031089    5.459455459
    1.169115192   11.738017484   10.722449528    5.466103686
    1.176293823   11.755874137   10.742546523    5.472898868
    1.183472454   11.774405604   10.763431426    5.479856964
    1.190651085   11.793735825   10.785245453    5.486997940
    1.197829716   11.814027397   10.808173312    5.494347130
    1.205008347   11.835495456   10.832458746    5.501937040
    1.212186978   11.858423897   10.858422709    5.509809482
    1.219365609   11.883175079   10.886474370    5.518017054
    1.226544240   11.910153235   10.917070853    5.526619443
    1.233722871   11.939559422   10.950445841    5.535656055
    1.240901503   11.970290940   10.985389375    5.545021085
    1.248080134   11.995648289   11.014486704    5.553973950
    1.255258765   11.992079336   11.011634194    5.559854245
    1.262437396   11.931420687   10.945619220    5.559483423
    1.269616027   11.873049328   10.882338755    5.559702277
    1.276794658   11.873848173   10.884934396    5.567083335
    1.283973289   11.904914856   10.921408334    5.578415874
    1.291151920   11.943580072   10.966697428    5.591233254
    1.298330551   11.983855021   11.014267643    5.605016167
    1.305509182   12.025307021   11.063775669    5.619922501
    1.312687813   12.068771859   11.116286364    5.636256999
    1.319866444   12.114575419   11.172153986    5.654047120
    1.327045075   12.159219586   11.226717563    5.671714415
    1.334223706   12.183979356   11.255330537    5.681262307
    1.341402337   12.132581024   11.184039268    5.658831498
    1.348580968   11.977603776   10.976798285    5.592782335
    1.355759599   11.871734236   10.834140177    5.547669628
    1.362938230   11.870518693   10.829009191    5.546967275
    1.370116861   11.908648573   10.875610813    5.563035204
    1.377295492   11.952447826   10.929702684    5.581618217
    1.384474124   11.993562202   10.980304758    5.599175628
    1.391652755   12.030940843   11.026031677    5.615259018
    1.398831386   12.065124663   11.067590210    5.630095855
    1.406010017   12.096841707   11.105934017    5.643995087
    1.413188648   12.126710233   11.141873479    5.657221431
    1.420367279   12.155207525   11.176034618    5.669982194
    1.427545910   12.182694609   11.208891491    5.682437854
    1.434724541   12.209446049   11.240805290    5.694714913
    1.441903172   12.235674210   11.272056202    5.706916559
    1.449081803   12.261547285   11.302867100    5.719130860
    1.456260434   12.287202446   11.333420836    5.731437116
    1.463439065   12.312755581   11.363873066    5.743911076
    1.470617696   12.338308796   11.394362114    5.756629612
    1.477796327   12.363956575   11.425017071    5.769675400
    1.484974958   12.389791338   11.455965043    5.783142156
    1.492153589   12.415908962   11.487338342    5.797140998
    1.499332220   12.442414709   11.519282384    5.811808553
    1.506510851   12.469429489   11.551965006    5.827317251
    1.513689482   12.497094293   11.585587562    5.843886857
    1.520868114   12.525562554   11.620396303    5.861790344
    1.528046745   12.554938182   11.656684455    5.881322590
    1.535225376   12.584990143   11.694742520    5.902602038
    1.542404007   12.614022354   11.734594870    5.924722491
    1.549582638   12.635726505   11.775168557    5.943293901
    1.556761269   12.641249887   11.814177810    5.951368580
    1.563939900   12.645640768   11.851694377    5.956546921
    1.571118531   12.667581613   11.877432432    5.957542182
    1.578297162   12.699555403   11.856657780    5.914465976
    1.585475793   12.734531616   11.801870154    5.836459750
    1.592654424   12.770642281   11.795551119    5.807565954
    1.599833055   12.807781922   11.834515716    5.824075390
    1.607011686   12.846329988   11.888101699    5.853999622
    1.614190317   12.886856814   11.945365984    5.885672481
    1.621368948   12.930054088   12.004642394    5.916894824
    1.628547579   12.976652095   12.066723731    5.947923278
    1.635726210   13.026994829   12.132438907    5.979301339
    1.642904841   13.079148522   12.199795267    6.010441111
    1.650083472   13.121600507   12.254387037    6.035837780
    1.657262104   13.115272440   12.242982449    6.035946515
    1.664440735   13.020614342   12.089744848    5.990850893
    1.671619366   12.939758731   11.916231853    5.952438559
    1.678797997   12.951307223   11.884330051    5.960951974
    1.685976628   13.007557423   11.932943020    5.992422345
    1.693155259   13.075455961   11.999380310    6.030246520
    1.700333890   13.146812163   12.064814531    6.070505701
    1.707512521   13.221507403   12.125881348    6.113435438
    1.714691152   13.301186164   12.182915092    6.160151163
    1.721869783   13.386143391   12.236859784    6.210729239
    1.729048414   13.468211135   12.288486825    6.259162854
    1.736227045   13.506176066   12.337964813    6.275700267
    1.743405676   13.383526757   12.384331253    6.176467788
    1.750584307   13.069910007   12.427626344    5.939505685
    1.757762938   12.879553993   12.472279523    5.790501604
    1.764941569   12.888501658   12.519579606    5.783935484
    1.772120200   12.967964299   12.568117174    5.827131945
    1.779298831   13.057021565   12.617285381    5.876633978
    1.786477462   13.137179959   12.666758543    5.921387364
    1.793656093   13.191900233   12.715404788    5.957759296
    1.800834725   13.201217269   12.761600210    5.983063590
    1.808013356   13.201738996   12.808889434    6.004121400
    1.815191987   13.239006672   12.861725716    6.029101206
    1.822370618   13.296214396   12.919033796    6.055706743
    1.829549249   13.357216345   12.979957308    6.081622340
    1.836727880   13.417799495   13.044863414    6.106408631
    1.843906511   13.477714927   13.114381474    6.130215531
    1.851085142   13.536984615   13.187905959    6.153217366
    1.858263773   13.592815456   13.258517947    6.175231374
    1.865442404   13.632349336   13.296399028    6.194941069
    1.872621035   13.630492465   13.234373005    6.210143132
    1.879799666   13.606722506   13.097426070    6.224000487
    1.886978297   13.622753576   13.055330694    6.241870512
    1.894156928   13.672828786   13.108130296    6.262477712
    1.901335559   13.733696649   13.190833025    6.283883093
    1.908514190   13.796441837   13.277812923    6.305406956
    1.915692821   13.855853531   13.360349048    6.326461090
    1.922871452   13.898248773   13.425455368    6.345147089
    1.930050083   13.901990106   13.453481634    6.358436828
    1.937228715   13.896761994   13.472210896    6.370609298
    1.944407346   13.925979700   13.521319575    6.388246781
    1.951585977   13.957963115   13.568572522    6.408468700
    1.958764608   13.955656812   13.576096337    6.427931016
    1.965943239   13.954620798   13.584817553    6.447826372
    1.973121870   13.992596410   13.637180836    6.469889180
    1.980300501   14.049793864   13.710981579    6.493327902
    1.987479132   14.111020760   13.789067303    6.517607580
    1.994657763   14.172407607   13.866918691    6.542736896
    2.001836394   14.233651414   13.944071279    6.568861290
    2.009015025   14.294652465   14.020785128    6.595881894
    2.016193656   14.352622192   14.096560776    6.622394240
    2.023372287   14.395046871   14.167796103    6.642424178
    2.030550918   14.397196092   14.226989442    6.644261775
    2.037729549   14.380384515   14.281175025    6.638077489
    2.044908180   14.403332015   14.349210046    6.651831874
    2.052086811   14.455807663   14.428163771    6.680870153
    2.059265442   14.516362672   14.511568600    6.715245403
    2.066444073   14.577880822   14.597425473    6.751622958
    2.073622705   14.638918345   14.685106867    6.788291119
    2.080801336   14.698876497   14.772447301    6.819558426
    2.087979967   14.755815292   14.852083502    6.827694487
    2.095158598   14.808595105   14.919282509    6.801425930
    2.102337229   14.863617627   14.994241679    6.789029856
    2.109515860   14.922188207   15.081317691    6.810496472
    2.116694491   14.976858267   15.157655941    6.838592710
    2.123873122   15.027412045   15.221277648    6.862928439
    2.131051753   15.086873481   15.307860259    6.896715788
    2.138230384   15.156420791   15.419844178    6.940845337
    2.145409015   15.231851839   15.544475400    6.990046517
    2.152587646   15.311864186   15.677267193    7.042458729
    2.159766277   15.395627346   15.816349172    7.096094476
    2.166944908   15.478052915   15.953627045    7.141532304
    2.174123539   15.543210114   16.065199609    7.153369659
    2.181302170   15.579640212   16.144476802    7.131550547
    2.188480801   15.589184557   16.222803937    7.132506587
    2.195659432   15.570730376   16.272279295    7.143567809
    2.202838063   15.575750356   16.271537993    7.127368470
    2.210016694   15.632597962   16.301626980    7.118305660
    2.217195326   15.741999279   16.406330718    7.136720906
    2.224373957   15.873266848   16.431294330    7.091525424
    2.231552588   15.997195253   16.318016877    6.952436619
    2.238731219   16.057777555   16.298411645    6.878144268
    2.245909850   15.924579605   16.395930174    6.892828857
    2.253088481   15.621580847   16.544052817    6.941228700
    2.260267112   15.468336321   16.737335996    7.000664263
    2.267445743   15.486027013   16.948088022    7.055577788
    2.274624374   15.577396858   17.167319394    7.101252482
    2.281803005   15.671992507   17.358467474    7.141803919
    2.288981636   15.726403913   17.489450234    7.180699365
    2.296160267   15.795368803   17.648407903    7.224925605
    2.303338898   15.903126496   17.790285166    7.276479200
    2.310517529   16.017838870   17.672525332    7.329872212
    2.317696160   16.124090247   17.397589771    7.382740074
    2.324874791   16.211088771   17.424112534    7.432952447
    2.332053422   16.248069478   17.663794306    7.472700340
    2.339232053   16.267671184   17.843580127    7.496903317
    2.346410684   16.294292649   17.736550848    7.493367168
    2.353589316   16.295858978   17.455343192    7.472087637
    2.360767947   16.336396895   17.430998392    7.483480283
    2.367946578   16.432625934   17.687428535    7.529776324
    2.375125209   16.547461995   18.043089246    7.587056727
    2.382303840   16.660724161   18.421903484    7.642447849
    2.389482471   16.764943647   18.809679266    7.691353031
    2.396661102   16.865599873   19.209772931    7.742891031
    2.403839733   16.950527454   19.607065764    7.802979890
    2.411018364   16.987887727   19.947979392    7.868104563
    2.418196995   17.020182875   20.160448171    7.937945044
    2.425375626   17.100982632   19.965617858    8.013658224
    2.432554257   17.199617665   19.254457561    8.092002121
    2.439732888   17.297883903   18.878355898    8.157222236
    2.446911519   17.383574809   18.983846425    8.158764307
    2.454090150   17.436096001   19.137779483    8.060347022
    2.461268781   17.507719054   19.400741242    7.999626967
    2.468447412   17.623471270   19.816911902    8.041218522
    2.475626043   17.742893137   20.124679552    8.099383130
    2.482804674   17.821978167   20.072322413    8.103308588
    2.489983306   17.855765886   19.986498099    8.083351088
    2.497161937   17.860530970   20.234751270    8.077548089
    2.504340568   17.892097058   20.663440313    8.093572225
    2.511519199   17.990216702   21.133577180    8.145632463
    2.518697830   18.110014031   21.568864187    8.191851806
    2.525876461   18.212904495   21.981442768    8.219881762
    2.533055092   18.274576643   22.333241395    8.261987497
    2.540233723   18.282098436   22.584781439    8.313478359
