# energy grid [eV]     ieps_x  ieps_y  ieps_z
#
    0.200000000   10.259479813   10.253518893    1.018158614
    0.207178631   10.257202409   10.251249975    1.018154928
    0.214357262   10.254845953   10.248902293    1.018151114
    0.221535893   10.252410572   10.246475974    1.018147172
    0.228714524   10.249896402   10.243971151    1.018143101
    0.235893155   10.247303577   10.241387960    1.018138903
    0.243071786   10.244632240   10.238726539    1.018134577
    0.250250417   10.241882537   10.235987035    1.018130123
    0.257429048   10.239054616   10.233169594    1.018125543
    0.264607679   10.236148631   10.230274369    1.018120835
    0.271786311   10.233164740   10.227301517    1.018116001
    0.278964942   10.230103104   10.224251198    1.018111039
    0.286143573   10.226963890   10.221123575    1.018105952
    0.293322204   10.223747267   10.217918818    1.018100738
    0.300500835   10.220453409   10.214637099    1.018095398
    0.307679466   10.217082493   10.211278593    1.018089933
    0.314858097   10.213634701   10.207843481    1.018084342
    0.322036728   10.210110218   10.204331947    1.018078626
    0.329215359   10.206509235   10.200744178    1.018072785
    0.336393990   10.202831943   10.197080366    1.018066819
    0.343572621   10.199078540   10.193340707    1.018060729
    0.350751252   10.195249228   10.189525399    1.018054514
    0.357929883   10.191344209   10.185634646    1.018048175
    0.365108514   10.187363694   10.181668653    1.018041713
    0.372287145   10.183307893   10.177627632    1.018035128
    0.379465776   10.179177022   10.173511796    1.018028419
    0.386644407   10.174971302   10.169321363    1.018021587
    0.393823038   10.170690954   10.165056553    1.018014633
    0.401001669   10.166336205   10.160717592    1.018007557
    0.408180301   10.161907286   10.156304707    1.018000359
    0.415358932   10.157404430   10.151818131    1.017993039
    0.422537563   10.152827874   10.147258098    1.017985598
    0.429716194   10.148177859   10.142624847    1.017978036
    0.436894825   10.143454628   10.137918621    1.017970353
    0.444073456   10.138658430   10.133139664    1.017962550
    0.451252087   10.133789514   10.128288225    1.017954627
    0.458430718   10.128848136   10.123364556    1.017946585
    0.465609349   10.123834552   10.118368913    1.017938423
    0.472787980   10.118749022   10.113301554    1.017930142
    0.479966611   10.113591812   10.108162741    1.017921742
    0.487145242   10.108363187   10.102952739    1.017913224
    0.494323873   10.103063419   10.097671815    1.017904589
    0.501502504   10.097692780   10.092320241    1.017895835
    0.508681135   10.092251547   10.086898291    1.017886965
    0.515859766   10.086739999   10.081406243    1.017877978
    0.523038397   10.081158418   10.075844376    1.017868874
    0.530217028   10.075507091   10.070212973    1.017859655
    0.537395659   10.069786306   10.064512322    1.017850319
    0.544574290   10.063996353   10.058742710    1.017840869
    0.551752922   10.058137527   10.052904430    1.017831303
    0.558931553   10.052210125   10.046997776    1.017821623
    0.566110184   10.046214447   10.041023045    1.017811830
    0.573288815   10.040150795   10.034980539    1.017801922
    0.580467446   10.034019474   10.028870559    1.017791901
    0.587646077   10.027820792   10.022693411    1.017781768
    0.594824708   10.021555059   10.016449403    1.017771521
    0.602003339   10.015222590   10.010138846    1.017761163
    0.609181970   10.008823698   10.003762053    1.017750694
    0.616360601   10.002358704    9.997319340    1.017740113
    0.623539232    9.995827926    9.990811024    1.017729422
    0.630717863    9.989231688    9.984237428    1.017718620
    0.637896494    9.982570317    9.977598873    1.017707709
    0.645075125    9.975844138    9.970895685    1.017696688
    0.652253756    9.969053483    9.964128191    1.017685558
    0.659432387    9.962198684    9.957296722    1.017674320
    0.666611018    9.955280076    9.950401610    1.017662973
    0.673789649    9.948297995    9.943443189    1.017651519
    0.680968280    9.941252781    9.936421795    1.017639958
    0.688146912    9.934144774    9.929337767    1.017628291
    0.695325543    9.926974318    9.922191446    1.017616517
    0.702504174    9.919741758    9.914983175    1.017604638
    0.709682805    9.912447441    9.907713298    1.017592653
    0.716861436    9.905091716    9.900382161    1.017580564
    0.724040067    9.897674935    9.892990114    1.017568370
    0.731218698    9.890197450    9.885537507    1.017556072
    0.738397329    9.882659616    9.878024691    1.017543672
    0.745575960    9.875061789    9.870452022    1.017531168
    0.752754591    9.867404329    9.862819855    1.017518562
    0.759933222    9.859687595    9.855128546    1.017505855
    0.767111853    9.851911949    9.847378457    1.017493046
    0.774290484    9.844077753    9.839569946    1.017480136
    0.781469115    9.836185374    9.831703377    1.017467126
    0.788647746    9.828235177    9.823779114    1.017454016
    0.795826377    9.820227530    9.815797521    1.017440807
    0.803005008    9.812162803    9.807758967    1.017427499
    0.810183639    9.804041367    9.799663818    1.017414092
    0.817362270    9.795863594    9.791512446    1.017400588
    0.824540902    9.787629858    9.783305220    1.017386987
    0.831719533    9.779340533    9.775042514    1.017373289
    0.838898164    9.770995995    9.766724701    1.017359495
    0.846076795    9.762596623    9.758352155    1.017345605
    0.853255426    9.754142795    9.749925254    1.017331620
    0.860434057    9.745634889    9.741444374    1.017317541
    0.867612688    9.737073288    9.732909893    1.017303367
    0.874791319    9.728458373    9.724322192    1.017289100
    0.881969950    9.719790528    9.715681649    1.017274740
    0.889148581    9.711070135    9.706988648    1.017260287
    0.896327212    9.702297580    9.698243569    1.017245742
    0.903505843    9.693473249    9.689446797    1.017231107
    0.910684474    9.684597528    9.680598716    1.017216380
    0.917863105    9.675670806    9.671699711    1.017201563
    0.925041736    9.666693469    9.662750167    1.017186656
    0.932220367    9.657665908    9.653750472    1.017171660
    0.939398998    9.648588511    9.644701012    1.017156575
    0.946577629    9.639461671    9.635602176    1.017141403
    0.953756260    9.630285777    9.626454352    1.017126143
    0.960934891    9.621061221    9.617257930    1.017110795
    0.968113523    9.611788396    9.608013299    1.017095362
    0.975292154    9.602467695    9.598720851    1.017079842
    0.982470785    9.593099510    9.589380975    1.017064238
    0.989649416    9.583684236    9.579994064    1.017048548
    0.996828047    9.574222267    9.570560509    1.017032775
    1.004006678    9.564713998    9.561080703    1.017016917
    1.011185309    9.555159823    9.551555038    1.017000977
    1.018363940    9.545560138    9.541983907    1.016984954
    1.025542571    9.535915338    9.532367704    1.016968850
    1.032721202    9.526225819    9.522706822    1.016952664
    1.039899833    9.516491978    9.513001654    1.016936397
    1.047078464    9.506714210    9.503252595    1.016920050
    1.054257095    9.496892912    9.493460039    1.016903624
    1.061435726    9.487028480    9.483624379    1.016887118
    1.068614357    9.477121310    9.473746011    1.016870534
    1.075792988    9.467171801    9.463825329    1.016853872
    1.082971619    9.457180347    9.453862727    1.016837133
    1.090150250    9.447147346    9.443858599    1.016820317
    1.097328881    9.437073193    9.433813340    1.016803424
    1.104507513    9.426958287    9.423727345    1.016786457
    1.111686144    9.416803022    9.413601006    1.016769414
    1.118864775    9.406607795    9.403434719    1.016752296
    1.126043406    9.396373002    9.393228877    1.016735105
    1.133222037    9.386099039    9.382983874    1.016717841
    1.140400668    9.375786301    9.372700103    1.016700504
    1.147579299    9.365435183    9.362377958    1.016683095
    1.154757930    9.355046081    9.352017831    1.016665614
    1.161936561    9.344619389    9.341620116    1.016648062
    1.169115192    9.334155501    9.331185203    1.016630440
    1.176293823    9.323654811    9.320713485    1.016612748
    1.183472454    9.313117713    9.310205354    1.016594987
    1.190651085    9.302544599    9.299661200    1.016577158
    1.197829716    9.291935863    9.289081415    1.016559260
    1.205008347    9.281291895    9.278466387    1.016541295
    1.212186978    9.270613087    9.267816507    1.016523263
    1.219365609    9.259899831    9.257132164    1.016505164
    1.226544240    9.249152516    9.246413745    1.016487000
    1.233722871    9.238371532    9.235661640    1.016468771
    1.240901503    9.227557269    9.224876234    1.016450477
    1.248080134    9.216710114    9.214057915    1.016432119
    1.255258765    9.205830455    9.203207068    1.016413698
    1.262437396    9.194918679    9.192324079    1.016395214
    1.269616027    9.183975172    9.181409331    1.016376668
    1.276794658    9.173000320    9.170463209    1.016358060
    1.283973289    9.161994507    9.159486095    1.016339391
    1.291151920    9.150958117    9.148478372    1.016320662
    1.298330551    9.139891532    9.137440421    1.016301872
    1.305509182    9.128795136    9.126372621    1.016283024
    1.312687813    9.117669309    9.115275353    1.016264116
    1.319866444    9.106514431    9.104148996    1.016245151
    1.327045075    9.095330882    9.092993926    1.016226128
    1.334223706    9.084119039    9.081810521    1.016207047
    1.341402337    9.072879281    9.070599156    1.016187911
    1.348580968    9.061611984    9.059360207    1.016168718
    1.355759599    9.050317522    9.048094046    1.016149470
    1.362938230    9.038996271    9.036801048    1.016130168
    1.370116861    9.027648604    9.025481582    1.016110811
    1.377295492    9.016274892    9.014136021    1.016091401
    1.384474124    9.004875506    9.002764734    1.016071938
    1.391652755    8.993450817    8.991368089    1.016052422
    1.398831386    8.982001193    8.979946453    1.016032854
    1.406010017    8.970527003    8.968500193    1.016013236
    1.413188648    8.959028611    8.957029673    1.015993566
    1.420367279    8.947506383    8.945535258    1.015973846
    1.427545910    8.935960684    8.934017310    1.015954077
    1.434724541    8.924391876    8.922476191    1.015934258
    1.441903172    8.912800320    8.910912260    1.015914392
    1.449081803    8.901186377    8.899325876    1.015894477
    1.456260434    8.889550406    8.887717398    1.015874515
    1.463439065    8.877892764    8.876087181    1.015854506
    1.470617696    8.866213807    8.864435581    1.015834451
    1.477796327    8.854513890    8.852762951    1.015814350
    1.484974958    8.842793368    8.841069643    1.015794204
    1.492153589    8.831052591    8.829356010    1.015774014
    1.499332220    8.819291911    8.817622399    1.015753779
    1.506510851    8.807511678    8.805869160    1.015733501
    1.513689482    8.795712239    8.794096640    1.015713181
    1.520868114    8.783893941    8.782305184    1.015692817
    1.528046745    8.772057129    8.770495135    1.015672412
    1.535225376    8.760202146    8.758666837    1.015651966
    1.542404007    8.748329336    8.746820631    1.015631479
    1.549582638    8.736439038    8.734956857    1.015610952
    1.556761269    8.724531592    8.723075852    1.015590386
    1.563939900    8.712607336    8.711177954    1.015569780
    1.571118531    8.700666605    8.699263497    1.015549136
    1.578297162    8.688709735    8.687332816    1.015528453
    1.585475793    8.676737059    8.675386243    1.015507734
    1.592654424    8.664748908    8.663424108    1.015486977
    1.599833055    8.652745612    8.651446740    1.015466184
    1.607011686    8.640727500    8.639454468    1.015445355
    1.614190317    8.628694898    8.627447616    1.015424490
    1.621368948    8.616648132    8.615426510    1.015403591
    1.628547579    8.604587526    8.603391473    1.015382658
    1.635726210    8.592513401    8.591342825    1.015361691
    1.642904841    8.580426079    8.579280886    1.015340690
    1.650083472    8.568325877    8.567205975    1.015319657
    1.657262104    8.556213114    8.555118408    1.015298592
    1.664440735    8.544088104    8.543018499    1.015277495
    1.671619366    8.531951162    8.530906562    1.015256367
    1.678797997    8.519802599    8.518782908    1.015235208
    1.685976628    8.507642727    8.506647848    1.015214019
    1.693155259    8.495471854    8.494501688    1.015192801
    1.700333890    8.483290287    8.482344737    1.015171553
    1.707512521    8.471098332    8.470177299    1.015150277
    1.714691152    8.458896293    8.457999676    1.015128972
    1.721869783    8.446684472    8.445812171    1.015107640
    1.729048414    8.434463169    8.433615083    1.015086281
    1.736227045    8.422232683    8.421408711    1.015064895
    1.743405676    8.409993311    8.409193350    1.015043483
    1.750584307    8.397745348    8.396969296    1.015022046
    1.757762938    8.385489087    8.384736842    1.015000583
    1.764941569    8.373224822    8.372496278    1.014979096
    1.772120200    8.360952840    8.360247895    1.014957585
    1.779298831    8.348673432    8.347991979    1.014936050
    1.786477462    8.336386883    8.335728819    1.014914491
    1.793656093    8.324093478    8.323458696    1.014892910
    1.800834725    8.311793500    8.311181895    1.014871307
    1.808013356    8.299487232    8.298898697    1.014849682
    1.815191987    8.287174951    8.286609379    1.014828036
    1.822370618    8.274856936    8.274314221    1.014806369
    1.829549249    8.262533463    8.262013496    1.014784682
    1.836727880    8.250204806    8.249707480    1.014762975
    1.843906511    8.237871238    8.237396444    1.014741248
    1.851085142    8.225533030    8.225080659    1.014719503
    1.858263773    8.213190450    8.212760393    1.014697739
    1.865442404    8.200843765    8.200435914    1.014675957
    1.872621035    8.188493241    8.188107485    1.014654158
    1.879799666    8.176139142    8.175775372    1.014632341
    1.886978297    8.163781729    8.163439834    1.014610508
    1.894156928    8.151421263    8.151101132    1.014588658
    1.901335559    8.139058001    8.138759525    1.014566793
    1.908514190    8.126692200    8.126415267    1.014544913
    1.915692821    8.114324115    8.114068614    1.014523018
    1.922871452    8.101953999    8.101719819    1.014501108
    1.930050083    8.089582103    8.089369132    1.014479185
    1.937228715    8.077208677    8.077016802    1.014457247
    1.944407346    8.064833967    8.064663078    1.014435297
    1.951585977    8.052458220    8.052308204    1.014413334
    1.958764608    8.040081679    8.039952424    1.014391359
    1.965943239    8.027704588    8.027595982    1.014369372
    1.973121870    8.015327186    8.015239116    1.014347374
    1.980300501    8.002949712    8.002882065    1.014325365
    1.987479132    7.990572403    7.990525067    1.014303345
    1.994657763    7.978195495    7.978168356    1.014281315
    2.001836394    7.965819220    7.965812166    1.014259276
    2.009015025    7.953443810    7.953456728    1.014237227
    2.016193656    7.941069496    7.941102272    1.014215169
    2.023372287    7.928696504    7.928749026    1.014193103
    2.030550918    7.916325062    7.916397217    1.014171029
    2.037729549    7.903955394    7.904047068    1.014148947
    2.044908180    7.891587723    7.891698802    1.014126858
    2.052086811    7.879222270    7.879352642    1.014104762
    2.059265442    7.866859254    7.867008805    1.014082659
    2.066444073    7.854498892    7.854667509    1.014060551
    2.073622705    7.842141401    7.842328971    1.014038437
    2.080801336    7.829786995    7.829993404    1.014016317
    2.087979967    7.817435885    7.817661021    1.013994193
    2.095158598    7.805088283    7.805332032    1.013972064
    2.102337229    7.792744397    7.793006646    1.013949931
    2.109515860    7.780404434    7.780685071    1.013927795
    2.116694491    7.768068600    7.768367511    1.013905655
    2.123873122    7.755737099    7.756054171    1.013883512
    2.131051753    7.743410131    7.743745252    1.013861366
    2.138230384    7.731087899    7.731440956    1.013839218
    2.145409015    7.718770600    7.719141480    1.013817068
    2.152587646    7.706458431    7.706847022    1.013794917
    2.159766277    7.694151587    7.694557776    1.013772765
    2.166944908    7.681850261    7.682273937    1.013750612
    2.174123539    7.669554646    7.669995695    1.013728458
    2.181302170    7.657264931    7.657723243    1.013706305
    2.188480801    7.644981305    7.645456767    1.013684151
    2.195659432    7.632703955    7.633196455    1.013661999
    2.202838063    7.620433065    7.620942492    1.013639847
    2.210016694    7.608168819    7.608695062    1.013617697
    2.217195326    7.595911399    7.596454347    1.013595548
    2.224373957    7.583660984    7.584220526    1.013573402
    2.231552588    7.571417754    7.571993778    1.013551257
    2.238731219    7.559181884    7.559774281    1.013529116
    2.245909850    7.546953551    7.547562209    1.013506977
    2.253088481    7.534732927    7.535357737    1.013484842
    2.260267112    7.522520184    7.523161036    1.013462711
    2.267445743    7.510315493    7.510972277    1.013440584
    2.274624374    7.498119023    7.498791629    1.013418461
    2.281803005    7.485930940    7.486619259    1.013396342
    2.288981636    7.473751410    7.474455333    1.013374229
    2.296160267    7.461580596    7.462300015    1.013352121
    2.303338898    7.449418662    7.450153468    1.013330019
    2.310517529    7.437265767    7.438015851    1.013307922
    2.317696160    7.425122070    7.425887326    1.013285832
    2.324874791    7.412987730    7.413768048    1.013263748
    2.332053422    7.400862903    7.401658176    1.013241672
    2.339232053    7.388747742    7.389557863    1.013219602
    2.346410684    7.376642400    7.377467263    1.013197540
    2.353589316    7.364547029    7.365386526    1.013175486
    2.360767947    7.352461779    7.353315804    1.013153440
    2.367946578    7.340386797    7.341255245    1.013131402
    2.375125209    7.328322231    7.329204995    1.013109373
    2.382303840    7.316268226    7.317165201    1.013087353
    2.389482471    7.304224925    7.305136006    1.013065342
    2.396661102    7.292192471    7.293117553    1.013043341
    2.403839733    7.280171004    7.281109983    1.013021349
    2.411018364    7.268160664    7.269113435    1.012999368
    2.418196995    7.256161588    7.257128048    1.012977397
    2.425375626    7.244173913    7.245153958    1.012955436
    2.432554257    7.232197773    7.233191300    1.012933487
    2.439732888    7.220233301    7.221240207    1.012911549
    2.446911519    7.208280630    7.209300813    1.012889622
    2.454090150    7.196339890    7.197373247    1.012867707
    2.461268781    7.184411210    7.185457640    1.012845804
    2.468447412    7.172494718    7.173554118    1.012823913
    2.475626043    7.160590539    7.161662809    1.012802035
    2.482804674    7.148698798    7.149783838    1.012780170
    2.489983306    7.136819619    7.137917328    1.012758317
    2.497161937    7.124953124    7.126063402    1.012736478
    2.504340568    7.113099433    7.114222180    1.012714653
    2.511519199    7.101258665    7.102393782    1.012692841
    2.518697830    7.089430938    7.090578326    1.012671043
    2.525876461    7.077616368    7.078775928    1.012649260
    2.533055092    7.065815070    7.066986705    1.012627491
    2.540233723    7.054027159    7.055210770    1.012605737
