# energy grid [eV]     ieps_x  ieps_y  ieps_z
#
    0.200000000    9.255609321   10.924036843   10.655171345
    0.207178631    9.253002705   10.920938986   10.652160387
    0.214357262    9.250308955   10.917738069   10.649048254
    0.221535893    9.247528519   10.914434659   10.645835414
    0.228714524    9.244661853   10.911029329   10.642522342
    0.235893155    9.241709421   10.907522662   10.639109520
    0.243071786    9.238671694   10.903915248   10.635597438
    0.250250417    9.235549148   10.900207681   10.631986594
    0.257429048    9.232342266   10.896400563   10.628277488
    0.264607679    9.229051536   10.892494500   10.624470631
    0.271786311    9.225677453   10.888490100   10.620566534
    0.278964942    9.222220515   10.884387978   10.616565717
    0.286143573    9.218681223   10.880188750   10.612468701
    0.293322204    9.215060085   10.875893035   10.608276014
    0.300500835    9.211357608   10.871501454   10.603988184
    0.307679466    9.207574307   10.867014630   10.599605746
    0.314858097    9.203710695   10.862433185   10.595129234
    0.322036728    9.199767290   10.857757744   10.590559186
    0.329215359    9.195744611   10.852988930   10.585896144
    0.336393990    9.191643179   10.848127368   10.581140649
    0.343572621    9.187463515   10.843173681   10.576293244
    0.350751252    9.183206142   10.838128491   10.571354474
    0.357929883    9.178871585   10.832992420   10.566324886
    0.365108514    9.174460365   10.827766086   10.561205024
    0.372287145    9.169973009   10.822450108   10.555995438
    0.379465776    9.165410039   10.817045102   10.550696672
    0.386644407    9.160771980   10.811551682   10.545309276
    0.393823038    9.156059354   10.805970458   10.539833796
    0.401001669    9.151272684   10.800302040   10.534270780
    0.408180301    9.146412492   10.794547033   10.528620774
    0.415358932    9.141479298   10.788706041   10.522884324
    0.422537563    9.136473622   10.782779663   10.517061976
    0.429716194    9.131395982   10.776768498   10.511154276
    0.436894825    9.126246895   10.770673138   10.505161766
    0.444073456    9.121026875   10.764494176   10.499084990
    0.451252087    9.115736436   10.758232198   10.492924491
    0.458430718    9.110376091   10.751887788   10.486680810
    0.465609349    9.104946348   10.745461529   10.480354486
    0.472787980    9.099447716   10.738953997   10.473946058
    0.479966611    9.093880701   10.732365766   10.467456065
    0.487145242    9.088245807   10.725697408   10.460885041
    0.494323873    9.082543535   10.718949490   10.454233524
    0.501502504    9.076774386   10.712122576   10.447502045
    0.508681135    9.070938857   10.705217228   10.440691139
    0.515859766    9.065037443   10.698234003   10.433801335
    0.523038397    9.059070638   10.691173456   10.426833165
    0.530217028    9.053038932   10.684036138   10.419787156
    0.537395659    9.046942814   10.676822597   10.412663836
    0.544574290    9.040782770   10.669533379   10.405463730
    0.551752922    9.034559285   10.662169026   10.398187363
    0.558931553    9.028272840   10.654730077   10.390835259
    0.566110184    9.021923916   10.647217068   10.383407939
    0.573288815    9.015512988   10.639630533   10.375905925
    0.580467446    9.009040533   10.631971002   10.368329735
    0.587646077    9.002507023   10.624239004   10.360679888
    0.594824708    8.995912928   10.616435064   10.352956901
    0.602003339    8.989258718   10.608559705   10.345161290
    0.609181970    8.982544859   10.600613447   10.337293569
    0.616360601    8.975771813   10.592596808   10.329354252
    0.623539232    8.968940045   10.584510304   10.321343852
    0.630717863    8.962050012   10.576354447   10.313262879
    0.637896494    8.955102174   10.568129750   10.305111845
    0.645075125    8.948096986   10.559836721   10.296891257
    0.652253756    8.941034901   10.551475867   10.288601626
    0.659432387    8.933916372   10.543047692   10.280243457
    0.666611018    8.926741848   10.534552699   10.271817257
    0.673789649    8.919511776   10.525991390   10.263323532
    0.680968280    8.912226604   10.517364264   10.254762786
    0.688146912    8.904886774   10.508671818   10.246135522
    0.695325543    8.897492730   10.499914547   10.237442243
    0.702504174    8.890044911   10.491092945   10.228683451
    0.709682805    8.882543757   10.482207505   10.219859647
    0.716861436    8.874989704   10.473258718   10.210971331
    0.724040067    8.867383187   10.464247073   10.202019002
    0.731218698    8.859724641   10.455173057   10.193003160
    0.738397329    8.852014496   10.446037157   10.183924301
    0.745575960    8.844253183   10.436839859   10.174782924
    0.752754591    8.836441132   10.427581645   10.165579524
    0.759933222    8.828578768   10.418262999   10.156314597
    0.767111853    8.820666518   10.408884401   10.146988638
    0.774290484    8.812704805   10.399446332   10.137602142
    0.781469115    8.804694053   10.389949270   10.128155602
    0.788647746    8.796634682   10.380393693   10.118649511
    0.795826377    8.788527112   10.370780077   10.109084361
    0.803005008    8.780371761   10.361108898   10.099460644
    0.810183639    8.772169047   10.351380631   10.089778852
    0.817362270    8.763919384   10.341595749   10.080039473
    0.824540902    8.755623188   10.331754724   10.070242998
    0.831719533    8.747280871   10.321858028   10.060389917
    0.838898164    8.738892844   10.311906131   10.050480717
    0.846076795    8.730459518   10.301899503   10.040515887
    0.853255426    8.721981302   10.291838612   10.030495913
    0.860434057    8.713458604   10.281723926   10.020421282
    0.867612688    8.704891830   10.271555912   10.010292479
    0.874791319    8.696281385   10.261335037   10.000109992
    0.881969950    8.687627675   10.251061764    9.989874302
    0.889148581    8.678931102   10.240736559    9.979585896
    0.896327212    8.670192067   10.230359885    9.969245256
    0.903505843    8.661410972   10.219932204    9.958852865
    0.910684474    8.652588215   10.209453978    9.948409204
    0.917863105    8.643724196   10.198925669    9.937914755
    0.925041736    8.634819312   10.188347736    9.927369999
    0.932220367    8.625873958   10.177720638    9.916775415
    0.939398998    8.616888529   10.167044835    9.906131484
    0.946577629    8.607863421   10.156320784    9.895438682
    0.953756260    8.598799025   10.145548941    9.884697489
    0.960934891    8.589695733   10.134729764    9.873908381
    0.968113523    8.580553936   10.123863707    9.863071834
    0.975292154    8.571374024   10.112951224    9.852188324
    0.982470785    8.562156384   10.101992770    9.841258326
    0.989649416    8.552901405   10.090988798    9.830282314
    0.996828047    8.543609473   10.079939759    9.819260760
    1.004006678    8.534280973   10.068846104    9.808194138
    1.011185309    8.524916290   10.057708284    9.797082918
    1.018363940    8.515515806   10.046526749    9.785927572
    1.025542571    8.506079903   10.035301947    9.774728569
    1.032721202    8.496608964   10.024034326    9.763486378
    1.039899833    8.487103367   10.012724333    9.752201467
    1.047078464    8.477563492   10.001372413    9.740874303
    1.054257095    8.467989717    9.989979013    9.729505353
    1.061435726    8.458382418    9.978544577    9.718095081
    1.068614357    8.448741972    9.967069548    9.706643952
    1.075792988    8.439068752    9.955554368    9.695152429
    1.082971619    8.429363133    9.943999479    9.683620975
    1.090150250    8.419625487    9.932405321    9.672050050
    1.097328881    8.409856185    9.920772335    9.660440115
    1.104507513    8.400055598    9.909100958    9.648791629
    1.111686144    8.390224096    9.897391629    9.637105051
    1.118864775    8.380362045    9.885644785    9.625380836
    1.126043406    8.370469814    9.873860860    9.613619441
    1.133222037    8.360547769    9.862040290    9.601821321
    1.140400668    8.350596273    9.850183508    9.589986928
    1.147579299    8.340615692    9.838290947    9.578116717
    1.154757930    8.330606387    9.826363039    9.566211138
    1.161936561    8.320568720    9.814400213    9.554270640
    1.169115192    8.310503052    9.802402900    9.542295673
    1.176293823    8.300409742    9.790371526    9.530286684
    1.183472454    8.290289147    9.778306521    9.518244120
    1.190651085    8.280141625    9.766208309    9.506168426
    1.197829716    8.269967531    9.754077315    9.494060044
    1.205008347    8.259767220    9.741913964    9.481919418
    1.212186978    8.249541046    9.729718676    9.469746989
    1.219365609    8.239289360    9.717491875    9.457543196
    1.226544240    8.229012513    9.705233979    9.445308478
    1.233722871    8.218710857    9.692945408    9.433043272
    1.240901503    8.208384737    9.680626578    9.420748013
    1.248080134    8.198034504    9.668277908    9.408423134
    1.255258765    8.187660502    9.655899810    9.396069070
    1.262437396    8.177263076    9.643492700    9.383686251
    1.269616027    8.166842570    9.631056990    9.371275106
    1.276794658    8.156399326    9.618593090    9.358836065
    1.283973289    8.145933686    9.606101410    9.346369553
    1.291151920    8.135445990    9.593582360    9.333875995
    1.298330551    8.124936575    9.581036345    9.321355816
    1.305509182    8.114405780    9.568463772    9.308809438
    1.312687813    8.103853940    9.555865044    9.296237280
    1.319866444    8.093281390    9.543240565    9.283639762
    1.327045075    8.082688463    9.530590736    9.271017300
    1.334223706    8.072075491    9.517915957    9.258370312
    1.341402337    8.061442806    9.505216627    9.245699209
    1.348580968    8.050790736    9.492493141    9.233004406
    1.355759599    8.040119610    9.479745897    9.220286312
    1.362938230    8.029429754    9.466975288    9.207545336
    1.370116861    8.018721494    9.454181706    9.194781886
    1.377295492    8.007995153    9.441365542    9.181996367
    1.384474124    7.997251054    9.428527187    9.169189182
    1.391652755    7.986489518    9.415667027    9.156360735
    1.398831386    7.975710865    9.402785450    9.143511424
    1.406010017    7.964915413    9.389882839    9.130641650
    1.413188648    7.954103480    9.376959579    9.117751807
    1.420367279    7.943275380    9.364016050    9.104842292
    1.427545910    7.932431429    9.351052632    9.091913497
    1.434724541    7.921571937    9.338069705    9.078965813
    1.441903172    7.910697218    9.325067643    9.065999631
    1.449081803    7.899807580    9.312046823    9.053015337
    1.456260434    7.888903332    9.299007618    9.040013317
    1.463439065    7.877984781    9.285950399    9.026993955
    1.470617696    7.867052232    9.272875537    9.013957634
    1.477796327    7.856105989    9.259783399    9.000904732
    1.484974958    7.845146354    9.246674352    8.987835629
    1.492153589    7.834173629    9.233548761    8.974750700
    1.499332220    7.823188112    9.220406990    8.961650319
    1.506510851    7.812190102    9.207249398    8.948534860
    1.513689482    7.801179895    9.194076347    8.935404693
    1.520868114    7.790157785    9.180888193    8.922260185
    1.528046745    7.779124068    9.167685293    8.909101704
    1.535225376    7.768079033    9.154468002    8.895929615
    1.542404007    7.757022971    9.141236671    8.882744278
    1.549582638    7.745956172    9.127991651    8.869546056
    1.556761269    7.734878922    9.114733292    8.856335307
    1.563939900    7.723791508    9.101461940    8.843112387
    1.571118531    7.712694212    9.088177940    8.829877651
    1.578297162    7.701587318    9.074881637    8.816631452
    1.585475793    7.690471107    9.061573371    8.803374140
    1.592654424    7.679345858    9.048253482    8.790106063
    1.599833055    7.668211848    9.034922309    8.776827567
    1.607011686    7.657069355    9.021580187    8.763538999
    1.614190317    7.645918653    9.008227450    8.750240699
    1.621368948    7.634760015    8.994864431    8.736933008
    1.628547579    7.623593712    8.981491460    8.723616264
    1.635726210    7.612420015    8.968108866    8.710290803
    1.642904841    7.601239191    8.954716975    8.696956960
    1.650083472    7.590051507    8.941316113    8.683615067
    1.657262104    7.578857230    8.927906601    8.670265453
    1.664440735    7.567656621    8.914488761    8.656908446
    1.671619366    7.556449942    8.901062912    8.643544373
    1.678797997    7.545237455    8.887629370    8.630173556
    1.685976628    7.534019418    8.874188452    8.616796318
    1.693155259    7.522796088    8.860740471    8.603412978
    1.700333890    7.511567720    8.847285737    8.590023853
    1.707512521    7.500334568    8.833824561    8.576629259
    1.714691152    7.489096884    8.820357249    8.563229508
    1.721869783    7.477854919    8.806884108    8.549824913
    1.729048414    7.466608922    8.793405440    8.536415782
    1.736227045    7.455359139    8.779921548    8.523002421
    1.743405676    7.444105818    8.766432731    8.509585136
    1.750584307    7.432849201    8.752939287    8.496164229
    1.757762938    7.421589531    8.739441512    8.482740001
    1.764941569    7.410327050    8.725939699    8.469312751
    1.772120200    7.399061995    8.712434141    8.455882773
    1.779298831    7.387794605    8.698925128    8.442450364
    1.786477462    7.376525115    8.685412947    8.429015814
    1.793656093    7.365253760    8.671897884    8.415579415
    1.800834725    7.353980772    8.658380225    8.402141453
    1.808013356    7.342706383    8.644860249    8.388702214
    1.815191987    7.331430821    8.631338239    8.375261982
    1.822370618    7.320154315    8.617814472    8.361821039
    1.829549249    7.308877089    8.604289224    8.348379664
    1.836727880    7.297599370    8.590762770    8.334938135
    1.843906511    7.286321379    8.577235381    8.321496726
    1.851085142    7.275043339    8.563707328    8.308055710
    1.858263773    7.263765467    8.550178881    8.294615359
    1.865442404    7.252487983    8.536650304    8.281175942
    1.872621035    7.241211102    8.523121862    8.267737724
    1.879799666    7.229935040    8.509593818    8.254300972
    1.886978297    7.218660008    8.496066433    8.240865947
    1.894156928    7.207386220    8.482539965    8.227432910
    1.901335559    7.196113884    8.469014670    8.214002120
    1.908514190    7.184843208    8.455490804    8.200573833
    1.915692821    7.173574400    8.441968619    8.187148302
    1.922871452    7.162307664    8.428448366    8.173725781
    1.930050083    7.151043204    8.414930293    8.160306519
    1.937228715    7.139781220    8.401414648    8.146890764
    1.944407346    7.128521914    8.387901676    8.133478763
    1.951585977    7.117265484    8.374391619    8.120070759
    1.958764608    7.106012127    8.360884718    8.106666993
    1.965943239    7.094762037    8.347381213    8.093267707
    1.973121870    7.083515410    8.333881341    8.079873137
    1.980300501    7.072272436    8.320385338    8.066483519
    1.987479132    7.061033307    8.306893436    8.053099087
    1.994657763    7.049798211    8.293405867    8.039720072
    2.001836394    7.038567336    8.279922860    8.026346705
    2.009015025    7.027340867    8.266444644    8.012979212
    2.016193656    7.016118989    8.252971443    7.999617818
    2.023372287    7.004901884    8.239503482    7.986262749
    2.030550918    6.993689734    8.226040982    7.972914225
    2.037729549    6.982482717    8.212584164    7.959572465
    2.044908180    6.971281013    8.199133246    7.946237687
    2.052086811    6.960084796    8.185688443    7.932910107
    2.059265442    6.948894243    8.172249971    7.919589938
    2.066444073    6.937709526    8.158818041    7.906277391
    2.073622705    6.926530816    8.145392864    7.892972677
    2.080801336    6.915358286    8.131974650    7.879676003
    2.087979967    6.904192102    8.118563604    7.866387574
    2.095158598    6.893032432    8.105159932    7.853107594
    2.102337229    6.881879441    8.091763837    7.839836266
    2.109515860    6.870733295    8.078375520    7.826573788
    2.116694491    6.859594154    8.064995181    7.813320359
    2.123873122    6.848462181    8.051623018    7.800076174
    2.131051753    6.837337535    8.038259225    7.786841428
    2.138230384    6.826220374    8.024903998    7.773616313
    2.145409015    6.815110854    8.011557528    7.760401019
    2.152587646    6.804009131    7.998220006    7.747195734
    2.159766277    6.792915358    7.984891620    7.734000645
    2.166944908    6.781829687    7.971572557    7.720815936
    2.174123539    6.770752269    7.958263002    7.707641790
    2.181302170    6.759683253    7.944963138    7.694478388
    2.188480801    6.748622787    7.931673147    7.681325909
    2.195659432    6.737571017    7.918393208    7.668184530
    2.202838063    6.726528087    7.905123499    7.655054425
    2.210016694    6.715494142    7.891864196    7.641935770
    2.217195326    6.704469322    7.878615474    7.628828735
    2.224373957    6.693453770    7.865377504    7.615733489
    2.231552588    6.682447622    7.852150459    7.602650202
    2.238731219    6.671451018    7.838934507    7.589579039
    2.245909850    6.660464093    7.825729815    7.576520164
    2.253088481    6.649486982    7.812536550    7.563473741
    2.260267112    6.638519819    7.799354875    7.550439929
    2.267445743    6.627562735    7.786184952    7.537418889
    2.274624374    6.616615861    7.773026943    7.524410777
    2.281803005    6.605679327    7.759881005    7.511415749
    2.288981636    6.594753259    7.746747297    7.498433959
    2.296160267    6.583837785    7.733625974    7.485465558
    2.303338898    6.572933030    7.720517189    7.472510698
    2.310517529    6.562039118    7.707421096    7.459569526
    2.317696160    6.551156170    7.694337844    7.446642190
    2.324874791    6.540284308    7.681267582    7.433728836
    2.332053422    6.529423651    7.668210459    7.420829605
    2.339232053    6.518574319    7.655166619    7.407944642
    2.346410684    6.507736427    7.642136206    7.395074085
    2.353589316    6.496910092    7.629119364    7.382218072
    2.360767947    6.486095428    7.616116233    7.369376743
    2.367946578    6.475292548    7.603126952    7.356550230
    2.375125209    6.464501565    7.590151659    7.343738668
    2.382303840    6.453722587    7.577190490    7.330942189
    2.389482471    6.442955726    7.564243579    7.318160924
    2.396661102    6.432201087    7.551311060    7.305395000
    2.403839733    6.421458780    7.538393065    7.292644546
    2.411018364    6.410728907    7.525489722    7.279909686
    2.418196995    6.400011575    7.512601160    7.267190546
    2.425375626    6.389306885    7.499727507    7.254487246
    2.432554257    6.378614940    7.486868887    7.241799909
    2.439732888    6.367935839    7.474025424    7.229128653
    2.446911519    6.357269682    7.461197241    7.216473596
    2.454090150    6.346616568    7.448384458    7.203834855
    2.461268781    6.335976591    7.435587195    7.191212544
    2.468447412    6.325349849    7.422805569    7.178606777
    2.475626043    6.314736435    7.410039697    7.166017664
    2.482804674    6.304136443    7.397289694    7.153445317
    2.489983306    6.293549964    7.384555673    7.140889844
    2.497161937    6.282977090    7.371837746    7.128351353
    2.504340568    6.272417909    7.359136025    7.115829949
    2.511519199    6.261872511    7.346450617    7.103325736
    2.518697830    6.251340982    7.333781631    7.090838817
    2.525876461    6.240823408    7.321129174    7.078369295
    2.533055092    6.230319875    7.308493349    7.065917268
    2.540233723    6.219830466    7.295874261    7.053482836
