# energy grid [eV]     epsr_x  epsr_y  epsr_z
#
    0.200000000   12.359286144    8.878194951    9.706283144
    0.207178631   12.361742432    8.879795540    9.708052717
    0.214357262   12.364286516    8.881453299    9.709885511
    0.221535893   12.366918520    8.883168305    9.711781614
    0.228714524   12.369638573    8.884940637    9.713741115
    0.235893155   12.372446808    8.886770377    9.715764106
    0.243071786   12.375343363    8.888657611    9.717850684
    0.250250417   12.378328378    8.890602426    9.720000946
    0.257429048   12.381402002    8.892604912    9.722214996
    0.264607679   12.384564384    8.894665162    9.724492938
    0.271786311   12.387815680    8.896783272    9.726834881
    0.278964942   12.391156050    8.898959342    9.729240935
    0.286143573   12.394585658    8.901193472    9.731711216
    0.293322204   12.398104674    8.903485767    9.734245840
    0.300500835   12.401713271    8.905836334    9.736844929
    0.307679466   12.405411628    8.908245283    9.739508607
    0.314858097   12.409199927    8.910712727    9.742237001
    0.322036728   12.413078355    8.913238781    9.745030243
    0.329215359   12.417047106    8.915823564    9.747888464
    0.336393990   12.421106376    8.918467197    9.750811804
    0.343572621   12.425256366    8.921169805    9.753800401
    0.350751252   12.429497284    8.923931516    9.756854401
    0.357929883   12.433829340    8.926752458    9.759973949
    0.365108514   12.438252751    8.929632767    9.763159196
    0.372287145   12.442767737    8.932572577    9.766410297
    0.379465776   12.447374524    8.935572027    9.769727408
    0.386644407   12.452073343    8.938631261    9.773110689
    0.393823038   12.456864429    8.941750423    9.776560305
    0.401001669   12.461748024    8.944929662    9.780076423
    0.408180301   12.466724372    8.948169128    9.783659215
    0.415358932   12.471793725    8.951468977    9.787308854
    0.422537563   12.476956338    8.954829365    9.791025519
    0.429716194   12.482212472    8.958250453    9.794809390
    0.436894825   12.487562393    8.961732406    9.798660654
    0.444073456   12.493006371    8.965275390    9.802579499
    0.451252087   12.498544685    8.968879575    9.806566117
    0.458430718   12.504177614    8.972545134    9.810620704
    0.465609349   12.509905447    8.976272245    9.814743460
    0.472787980   12.515728474    8.980061086    9.818934588
    0.479966611   12.521646995    8.983911842    9.823194295
    0.487145242   12.527661311    8.987824698    9.827522792
    0.494323873   12.533771732    8.991799844    9.831920294
    0.501502504   12.539978571    8.995837474    9.836387019
    0.508681135   12.546282148    8.999937784    9.840923189
    0.515859766   12.552682789    9.004100973    9.845529032
    0.523038397   12.559180823    9.008327246    9.850204775
    0.530217028   12.565776587    9.012616808    9.854950655
    0.537395659   12.572470424    9.016969871    9.859766909
    0.544574290   12.579262681    9.021386648    9.864653778
    0.551752922   12.586153713    9.025867356    9.869611510
    0.558931553   12.593143878    9.030412217    9.874640353
    0.566110184   12.600233543    9.035021454    9.879740563
    0.573288815   12.607423079    9.039695296    9.884912398
    0.580467446   12.614712863    9.044433976    9.890156120
    0.587646077   12.622103280    9.049237727    9.895471997
    0.594824708   12.629594719    9.054106791    9.900860299
    0.602003339   12.637187576    9.059041409    9.906321302
    0.609181970   12.644882254    9.064041828    9.911855286
    0.616360601   12.652679160    9.069108300    9.917462534
    0.623539232   12.660578711    9.074241079    9.923143337
    0.630717863   12.668581328    9.079440423    9.928897985
    0.637896494   12.676687438    9.084706594    9.934726778
    0.645075125   12.684897476    9.090039860    9.940630016
    0.652253756   12.693211884    9.095440490    9.946608008
    0.659432387   12.701631109    9.100908758    9.952661064
    0.666611018   12.710155605    9.106444944    9.958789501
    0.673789649   12.718785834    9.112049330    9.964993639
    0.680968280   12.727522266    9.117722202    9.971273803
    0.688146912   12.736365374    9.123463853    9.977630325
    0.695325543   12.745315641    9.129274576    9.984063540
    0.702504174   12.754373557    9.135154673    9.990573787
    0.709682805   12.763539619    9.141104445    9.997161413
    0.716861436   12.772814330    9.147124203   10.003826768
    0.724040067   12.782198202    9.153214259   10.010570206
    0.731218698   12.791691754    9.159374929   10.017392089
    0.738397329   12.801295511    9.165606537   10.024292782
    0.745575960   12.811010009    9.171909407   10.031272656
    0.752754591   12.820835787    9.178283871   10.038332089
    0.759933222   12.830773397    9.184730265   10.045471461
    0.767111853   12.840823394    9.191248929   10.052691159
    0.774290484   12.850986344    9.197840208   10.059991577
    0.781469115   12.861262821    9.204504452   10.067373113
    0.788647746   12.871653405    9.211242015   10.074836171
    0.795826377   12.882158686    9.218053259   10.082381160
    0.803005008   12.892779262    9.224938546   10.090008496
    0.810183639   12.903515738    9.231898248   10.097718599
    0.817362270   12.914368731    9.238932739   10.105511898
    0.824540902   12.925338863    9.246042398   10.113388825
    0.831719533   12.936426766    9.253227612   10.121349820
    0.838898164   12.947633081    9.260488771   10.129395327
    0.846076795   12.958958458    9.267826270   10.137525798
    0.853255426   12.970403556    9.275240511   10.145741690
    0.860434057   12.981969042    9.282731901   10.154043469
    0.867612688   12.993655595    9.290300852   10.162431604
    0.874791319   13.005463901    9.297947781   10.170906572
    0.881969950   13.017394655    9.305673113   10.179468858
    0.889148581   13.029448565    9.313477276   10.188118950
    0.896327212   13.041626344    9.321360706   10.196857346
    0.903505843   13.053928719    9.329323844   10.205684550
    0.910684474   13.066356425    9.337367136   10.214601073
    0.917863105   13.078910207    9.345491035   10.223607432
    0.925041736   13.091590822    9.353696000   10.232704152
    0.932220367   13.104399034    9.361982497   10.241891766
    0.939398998   13.117335622    9.370350997   10.251170812
    0.946577629   13.130401371    9.378801978   10.260541837
    0.953756260   13.143597081    9.387335923   10.270005396
    0.960934891   13.156923559    9.395953323   10.279562050
    0.968113523   13.170381627    9.404654677   10.289212369
    0.975292154   13.183972115    9.413440486   10.298956930
    0.982470785   13.197695867    9.422311263   10.308796318
    0.989649416   13.211553736    9.431267524   10.318731126
    0.996828047   13.225546588    9.440309794   10.328761956
    1.004006678   13.239675302    9.449438605   10.338889418
    1.011185309   13.253940767    9.458654494   10.349114128
    1.018363940   13.268343885    9.467958007   10.359436714
    1.025542571   13.282885571    9.477349698   10.369857809
    1.032721202   13.297566751    9.486830127   10.380378059
    1.039899833   13.312388366    9.496399862   10.390998115
    1.047078464   13.327351367    9.506059478   10.401718639
    1.054257095   13.342456722    9.515809559   10.412540300
    1.061435726   13.357705408    9.525650695   10.423463779
    1.068614357   13.373098418    9.535583485   10.434489765
    1.075792988   13.388636758    9.545608538   10.445618956
    1.082971619   13.404321449    9.555726467   10.456852060
    1.090150250   13.420153524    9.565937896   10.468189796
    1.097328881   13.436134031    9.576243457   10.479632890
    1.104507513   13.452264034    9.586643790   10.491182081
    1.111686144   13.468544610    9.597139545   10.502838117
    1.118864775   13.484976852    9.607731379   10.514601756
    1.126043406   13.501561866    9.618419958   10.526473767
    1.133222037   13.518300777    9.629205958   10.538454930
    1.140400668   13.535194722    9.640090064   10.550546035
    1.147579299   13.552244857    9.651072969   10.562747883
    1.154757930   13.569452352    9.662155378   10.575061288
    1.161936561   13.586818394    9.673338003   10.587487073
    1.169115192   13.604344186    9.684621567   10.600026074
    1.176293823   13.622030949    9.696006802   10.612679138
    1.183472454   13.639879921    9.707494451   10.625447125
    1.190651085   13.657892357    9.719085266   10.638330906
    1.197829716   13.676069529    9.730780011   10.651331364
    1.205008347   13.694412728    9.742579458   10.664449396
    1.212186978   13.712923262    9.754484392   10.677685907
    1.219365609   13.731602454    9.766495605   10.691041807
    1.226544240   13.750451641    9.778613898   10.704518005
    1.233722871   13.769472194    9.790840091   10.718115463
    1.240901503   13.788665520    9.803175022   10.731835206
    1.248080134   13.808033022    9.815619530   10.745678201
    1.255258765   13.827576115    9.828174462   10.759645416
    1.262437396   13.847296243    9.840840679   10.773737845
    1.269616027   13.867194871    9.853619057   10.787956504
    1.276794658   13.887273485    9.866510483   10.802302426
    1.283973289   13.907533595    9.879515857   10.816776659
    1.291151920   13.927976732    9.892636091   10.831380266
    1.298330551   13.948604447    9.905872110   10.846114324
    1.305509182   13.969418317    9.919224853   10.860979929
    1.312687813   13.990419941    9.932695271   10.875978190
    1.319866444   14.011610939    9.946284330   10.891110233
    1.327045075   14.032992957    9.959993007   10.906377202
    1.334223706   14.054567666    9.973822296   10.921780255
    1.341402337   14.076336760    9.987773203   10.937320571
    1.348580968   14.098301958   10.001846749   10.952999342
    1.355759599   14.120465006   10.016043971   10.968817782
    1.362938230   14.142827675   10.030365919   10.984777121
    1.370116861   14.165391762   10.044813660   11.000878606
    1.377295492   14.188159089   10.059388273   11.017123505
    1.384474124   14.211131505   10.074090854   11.033513104
    1.391652755   14.234310880   10.088922513   11.050048706
    1.398831386   14.257699134   10.103884384   11.066731640
    1.406010017   14.281298222   10.118977618   11.083563255
    1.413188648   14.305110102   10.134203376   11.100544918
    1.420367279   14.329136767   10.149562835   11.117678013
    1.427545910   14.353380241   10.165057192   11.134963950
    1.434724541   14.377842582   10.180687661   11.152404159
    1.441903172   14.402525880   10.196455475   11.170000092
    1.449081803   14.427432258   10.212361886   11.187753224
    1.456260434   14.452563870   10.228408164   11.205665055
    1.463439065   14.477922906   10.244595598   11.223737106
    1.470617696   14.503511589   10.260925496   11.241970923
    1.477796327   14.529332178   10.277399187   11.260368076
    1.484974958   14.555386965   10.294018020   11.278930160
    1.492153589   14.581678280   10.310783363   11.297658795
    1.499332220   14.608208492   10.327696607   11.316555629
    1.506510851   14.634980003   10.344759162   11.335622333
    1.513689482   14.661995257   10.361972462   11.354860607
    1.520868114   14.689256736   10.379337962   11.374272179
    1.528046745   14.716766963   10.396857140   11.393858803
    1.535225376   14.744528500   10.414531496   11.413622264
    1.542404007   14.772543953   10.432362555   11.433564374
    1.549582638   14.800815967   10.450351865   11.453686977
    1.556761269   14.829347235   10.468500998   11.473991945
    1.563939900   14.858140490   10.486811551   11.494481183
    1.571118531   14.887198513   10.505285148   11.515156627
    1.578297162   14.916524130   10.523923437   11.536020246
    1.585475793   14.946120214   10.542728092   11.557074040
    1.592654424   14.975989686   10.561700817   11.578320046
    1.599833055   15.006135516   10.580843341   11.599760333
    1.607011686   15.036560726   10.600157420   11.621397007
    1.614190317   15.067268386   10.619644841   11.643232208
    1.621368948   15.098261621   10.639307420   11.665268116
    1.628547579   15.129543609   10.659147002   11.687506945
    1.635726210   15.161117580   10.679165460   11.709950949
    1.642904841   15.192986820   10.699364700   11.732602423
    1.650083472   15.225154671   10.719746656   11.755463700
    1.657262104   15.257624544   10.740313308   11.778537155
    1.664440735   15.290399905   10.761066663   11.801825206
    1.671619366   15.323484263   10.782008742   11.825330308
    1.678797997   15.356881171   10.803141581   11.849054958
    1.685976628   15.390594276   10.824467284   11.873001702
    1.693155259   15.424627371   10.845988082   11.897173160
    1.700333890   15.458984250   10.867706170   11.921571980
    1.707512521   15.493668732   10.889623730   11.946200841
    1.714691152   15.528684722   10.911743004   11.971062480
    1.721869783   15.564036209   10.934066284   11.996159688
    1.729048414   15.599727256   10.956595907   12.021495306
    1.736227045   15.635762003   10.979334250   12.047072232
    1.743405676   15.672144665   11.002283734   12.072893416
    1.750584307   15.708879537   11.025446822   12.098961865
    1.757762938   15.745970993   11.048826021   12.125280641
    1.764941569   15.783423492   11.072423882   12.151852867
    1.772120200   15.821241573   11.096243006   12.178681725
    1.779298831   15.859429865   11.120286037   12.205770460
    1.786477462   15.897993084   11.144555671   12.233122378
    1.793656093   15.936936037   11.169054649   12.260740849
    1.800834725   15.976263622   11.193785769   12.288629311
    1.808013356   16.015980833   11.218751875   12.316791258
    1.815191987   16.056092757   11.243955869   12.345230254
    1.822370618   16.096604595   11.269400704   12.373949967
    1.829549249   16.137521654   11.295089391   12.402954149
    1.836727880   16.178849332   11.321024999   12.432246586
    1.843906511   16.220593136   11.347210653   12.461831141
    1.851085142   16.262758686   11.373649542   12.491711767
    1.858263773   16.305351716   11.400344914   12.521892497
    1.865442404   16.348378080   11.427300082   12.552377451
    1.872621035   16.391843746   11.454518422   12.583170834
    1.879799666   16.435754815   11.482003380   12.614276944
    1.886978297   16.480117517   11.509758469   12.645700179
    1.894156928   16.524938206   11.537787273   12.677445019
    1.901335559   16.570223368   11.566093446   12.709516040
    1.908514190   16.615979625   11.594680716   12.741917919
    1.915692821   16.662213735   11.623552879   12.774655432
    1.922871452   16.708932581   11.652713800   12.807733448
    1.930050083   16.756143191   11.682167449   12.841156921
    1.937228715   16.803852830   11.711917923   12.874930967
    1.944407346   16.852068971   11.741969356   12.909060911
    1.951585977   16.900799142   11.772325948   12.943552094
    1.958764608   16.950051005   11.802992000   12.978409939
    1.965943239   16.999832424   11.833971911   13.013640017
    1.973121870   17.050151454   11.865270178   13.049248043
    1.980300501   17.101016336   11.896891394   13.085239868
    1.987479132   17.152435500   11.928840256   13.121621481
    1.994657763   17.204417572   11.961121561   13.158399016
    2.001836394   17.256971379   11.993740215   13.195578751
    2.009015025   17.310105954   12.026701234   13.233167118
    2.016193656   17.363830543   12.060009746   13.271170703
    2.023372287   17.418154613   12.093670996   13.309596256
    2.030550918   17.473087858   12.127690349   13.348450693
    2.037729549   17.528640208   12.162073296   13.387741105
    2.044908180   17.584821833   12.196825454   13.427474756
    2.052086811   17.641643154   12.231952571   13.467659095
    2.059265442   17.699114849   12.267460530   13.508301740
    2.066444073   17.757247861   12.303355349   13.549410479
    2.073622705   17.816053412   12.339643201   13.590993379
    2.080801336   17.875543011   12.376330425   13.633058829
    2.087979967   17.935728442   12.413423480   13.675615296
    2.095158598   17.996621805   12.450928994   13.718671435
    2.102337229   18.058235571   12.488853802   13.762236167
    2.109515860   18.120582503   12.527204887   13.806318672
    2.116694491   18.183675669   12.565989384   13.850928383
    2.123873122   18.247528500   12.605214620   13.896074998
    2.131051753   18.312154798   12.644888117   13.941768490
    2.138230384   18.377568740   12.685017596   13.988019110
    2.145409015   18.443784896   12.725610980   14.034837402
    2.152587646   18.510818240   12.766676406   14.082234214
    2.159766277   18.578684171   12.808222227   14.130220724
    2.166944908   18.647398528   12.850257028   14.178808445
    2.174123539   18.716977595   12.892789626   14.228009215
    2.181302170   18.787438125   12.935829081   14.277835229
    2.188480801   18.858797361   12.979384706   14.328299053
    2.195659432   18.931073046   13.023466072   14.379413623
    2.202838063   19.004283442   13.068083010   14.431192267
    2.210016694   19.078447401   13.113245634   14.483648809
    2.217195326   19.153584321   13.158964304   14.536797502
    2.224373957   19.229714110   13.205249759   14.590652986
    2.231552588   19.306857430   13.252113259   14.645230434
    2.238731219   19.385035740   13.299566244   14.700545514
    2.245909850   19.464270945   13.347620305   14.756614342
    2.253088481   19.544585580   13.396287357   14.813453489
    2.260267112   19.626003065   13.445580060   14.871080416
    2.267445743   19.708547636   13.495511579   14.929513289
    2.274624374   19.792244223   13.546095107   14.988770522
    2.281803005   19.877118594   13.597344263   15.048871180
    2.288981636   19.963197417   13.649273195   15.109835090
    2.296160267   20.050508289   13.701896545   15.171682825
    2.303338898   20.139079772   13.755229459   15.234435725
    2.310517529   20.228941437   13.809287601   15.298115923
    2.317696160   20.320123905   13.864087176   15.362746387
    2.324874791   20.412658889   13.919644959   15.428350961
    2.332053422   20.506579181   13.975978313   15.494954385
    2.339232053   20.601918611   14.033105211   15.562582326
    2.346410684   20.698712506   14.091044284   15.631261539
    2.353589316   20.796998337   14.149814941   15.701020084
    2.360767947   20.896814320   14.209437293   15.771886927
    2.367946578   20.998199780   14.269932086   15.843891991
    2.375125209   21.101196058   14.331320763   15.917066206
    2.382303840   21.205845995   14.393625675   15.991441927
    2.389482471   21.312194394   14.456870729   16.067054910
    2.396661102   21.420287883   14.521080566   16.143941795
    2.403839733   21.530174801   14.586280278   16.222139222
    2.411018364   21.641905618   14.652496121   16.301685807
    2.418196995   21.755533122   14.719755686   16.382622293
    2.425375626   21.871112453   14.788087749   16.464991419
    2.432554257   21.988701171   14.857522317   16.548838122
    2.439732888   22.108359466   14.928090753   16.634209513
    2.446911519   22.230150318   14.999825844   16.721154895
    2.454090150   22.354139683   15.072761908   16.809726067
    2.461268781   22.480396679   15.146934899   16.899977506
    2.468447412   22.608993801   15.222382510   16.991966538
    2.475626043   22.740007142   15.299144287   17.085753540
    2.482804674   22.873516606   15.377261741   17.181402147
    2.489983306   23.009606098   15.456778436   17.278979491
    2.497161937   23.148363717   15.537740092   17.378556467
    2.504340568   23.289882696   15.620195132   17.480208028
    2.511519199   23.434262007   15.704195060   17.584013504
    2.518697830   23.581604975   15.789793603   17.690056901
    2.525876461   23.732020788   15.877047500   17.798427380
    2.533055092   23.885625850   15.966017165   17.909219664
    2.540233723   24.042543069   16.056766332   18.022534439
