# energy grid [eV]     ieps_x  ieps_y  ieps_z
#
    0.200000000    7.955442149    5.775062384    6.045165920
    0.207178631    7.953788296    5.773959652    6.043989574
    0.214357262    7.952077113    5.772818693    6.042772493
    0.221535893    7.950308701    5.771639573    6.041514753
    0.228714524    7.948483164    5.770422361    6.040216432
    0.235893155    7.946600608    5.769167129    6.038877611
    0.243071786    7.944661145    5.767873949    6.037498372
    0.250250417    7.942664887    5.766542898    6.036078801
    0.257429048    7.940611952    5.765174053    6.034618985
    0.264607679    7.938502459    5.763767494    6.033119013
    0.271786311    7.936336530    5.762323301    6.031578978
    0.278964942    7.934114291    5.760841559    6.029998974
    0.286143573    7.931835871    5.759322353    6.028379096
    0.293322204    7.929501401    5.757765771    6.026719443
    0.300500835    7.927111016    5.756171901    6.025020115
    0.307679466    7.924664853    5.754540836    6.023281215
    0.314858097    7.922163052    5.752872668    6.021502848
    0.322036728    7.919605757    5.751167493    6.019685119
    0.329215359    7.916993113    5.749425408    6.017828138
    0.336393990    7.914325269    5.747646512    6.015932016
    0.343572621    7.911602376    5.745830904    6.013996864
    0.350751252    7.908824589    5.743978689    6.012022798
    0.357929883    7.905992064    5.742089970    6.010009934
    0.365108514    7.903104960    5.740164852    6.007958389
    0.372287145    7.900163441    5.738203445    6.005868285
    0.379465776    7.897167669    5.736205857    6.003739743
    0.386644407    7.894117814    5.734172200    6.001572886
    0.393823038    7.891014043    5.732102587    5.999367842
    0.401001669    7.887856530    5.729997132    5.997124736
    0.408180301    7.884645450    5.727855951    5.994843698
    0.415358932    7.881380979    5.725679162    5.992524858
    0.422537563    7.878063297    5.723466885    5.990168349
    0.429716194    7.874692586    5.721219240    5.987774306
    0.436894825    7.871269030    5.718936351    5.985342863
    0.444073456    7.867792816    5.716618341    5.982874158
    0.451252087    7.864264133    5.714265336    5.980368329
    0.458430718    7.860683172    5.711877462    5.977825517
    0.465609349    7.857050126    5.709454849    5.975245865
    0.472787980    7.853365190    5.706997627    5.972629514
    0.479966611    7.849628563    5.704505926    5.969976611
    0.487145242    7.845840443    5.701979880    5.967287301
    0.494323873    7.842001034    5.699419622    5.964561731
    0.501502504    7.838110539    5.696825289    5.961800052
    0.508681135    7.834169163    5.694197018    5.959002413
    0.515859766    7.830177115    5.691534945    5.956168966
    0.523038397    7.826134605    5.688839212    5.953299864
    0.530217028    7.822041844    5.686109958    5.950395261
    0.537395659    7.817899046    5.683347325    5.947455313
    0.544574290    7.813706427    5.680551458    5.944480178
    0.551752922    7.809464203    5.677722499    5.941470011
    0.558931553    7.805172596    5.674860596    5.938424974
    0.566110184    7.800831824    5.671965894    5.935345227
    0.573288815    7.796442112    5.669038541    5.932230930
    0.580467446    7.792003683    5.666078687    5.929082246
    0.587646077    7.787516763    5.663086481    5.925899340
    0.594824708    7.782981581    5.660062075    5.922682376
    0.602003339    7.778398366    5.657005621    5.919431520
    0.609181970    7.773767348    5.653917273    5.916146938
    0.616360601    7.769088761    5.650797184    5.912828799
    0.623539232    7.764362838    5.647645510    5.909477272
    0.630717863    7.759589814    5.644462407    5.906092525
    0.637896494    7.754769928    5.641248032    5.902674731
    0.645075125    7.749903417    5.638002543    5.899224060
    0.652253756    7.744990521    5.634726100    5.895740685
    0.659432387    7.740031481    5.631418862    5.892224780
    0.666611018    7.735026540    5.628080991    5.888676518
    0.673789649    7.729975942    5.624712647    5.885096075
    0.680968280    7.724879933    5.621313993    5.881483627
    0.688146912    7.719738757    5.617885193    5.877839351
    0.695325543    7.714552664    5.614426411    5.874163423
    0.702504174    7.709321903    5.610937811    5.870456022
    0.709682805    7.704046722    5.607419559    5.866717328
    0.716861436    7.698727374    5.603871821    5.862947518
    0.724040067    7.693364111    5.600294765    5.859146775
    0.731218698    7.687957186    5.596688558    5.855315278
    0.738397329    7.682506854    5.593053368    5.851453210
    0.745575960    7.677013370    5.589389365    5.847560753
    0.752754591    7.671476991    5.585696718    5.843638089
    0.759933222    7.665897974    5.581975598    5.839685401
    0.767111853    7.660276578    5.578226175    5.835702875
    0.774290484    7.654613063    5.574448622    5.831690695
    0.781469115    7.648907688    5.570643109    5.827649045
    0.788647746    7.643160716    5.566809810    5.823578111
    0.795826377    7.637372407    5.562948897    5.819478080
    0.803005008    7.631543025    5.559060546    5.815349137
    0.810183639    7.625672833    5.555144928    5.811191471
    0.817362270    7.619762097    5.551202220    5.807005268
    0.824540902    7.613811081    5.547232596    5.802790716
    0.831719533    7.607820050    5.543236232    5.798548004
    0.838898164    7.601789273    5.539213304    5.794277321
    0.846076795    7.595719015    5.535163988    5.789978855
    0.853255426    7.589609545    5.531088461    5.785652796
    0.860434057    7.583461132    5.526986899    5.781299335
    0.867612688    7.577274044    5.522859481    5.776918660
    0.874791319    7.571048551    5.518706385    5.772510962
    0.881969950    7.564784924    5.514527787    5.768076433
    0.889148581    7.558483433    5.510323868    5.763615263
    0.896327212    7.552144350    5.506094805    5.759127644
    0.903505843    7.545767946    5.501840778    5.754613766
    0.910684474    7.539354494    5.497561966    5.750073823
    0.917863105    7.532904266    5.493258548    5.745508005
    0.925041736    7.526417535    5.488930705    5.740916505
    0.932220367    7.519894574    5.484578615    5.736299515
    0.939398998    7.513335658    5.480202461    5.731657228
    0.946577629    7.506741061    5.475802421    5.726989836
    0.953756260    7.500111056    5.471378676    5.722297533
    0.960934891    7.493445919    5.466931408    5.717580511
    0.968113523    7.486745925    5.462460797    5.712838964
    0.975292154    7.480011348    5.457967024    5.708073084
    0.982470785    7.473242464    5.453450270    5.703283064
    0.989649416    7.466439550    5.448910716    5.698469099
    0.996828047    7.459602879    5.444348544    5.693631381
    1.004006678    7.452732730    5.439763934    5.688770103
    1.011185309    7.445829377    5.435157070    5.683885460
    1.018363940    7.438893097    5.430528131    5.678977645
    1.025542571    7.431924167    5.425877299    5.674046850
    1.032721202    7.424922862    5.421204757    5.669093270
    1.039899833    7.417889458    5.416510685    5.664117098
    1.047078464    7.410824234    5.411795265    5.659118527
    1.054257095    7.403727464    5.407058679    5.654097750
    1.061435726    7.396599426    5.402301108    5.649054961
    1.068614357    7.389440396    5.397522733    5.643990353
    1.075792988    7.382250650    5.392723736    5.638904119
    1.082971619    7.375030465    5.387904299    5.633796451
    1.090150250    7.367780116    5.383064602    5.628667544
    1.097328881    7.360499881    5.378204826    5.623517588
    1.104507513    7.353190034    5.373325153    5.618346778
    1.111686144    7.345850852    5.368425764    5.613155305
    1.118864775    7.338482611    5.363506839    5.607943361
    1.126043406    7.331085585    5.358568559    5.602711139
    1.133222037    7.323660051    5.353611105    5.597458830
    1.140400668    7.316206283    5.348634656    5.592186627
    1.147579299    7.308724556    5.343639393    5.586894719
    1.154757930    7.301215145    5.338625497    5.581583300
    1.161936561    7.293678323    5.333593146    5.576252559
    1.169115192    7.286114366    5.328542520    5.570902688
    1.176293823    7.278523547    5.323473800    5.565533877
    1.183472454    7.270906138    5.318387163    5.560146316
    1.190651085    7.263262414    5.313282788    5.554740195
    1.197829716    7.255592647    5.308160855    5.549315703
    1.205008347    7.247897108    5.303021542    5.543873031
    1.212186978    7.240176071    5.297865027    5.538412366
    1.219365609    7.232429806    5.292691487    5.532933899
    1.226544240    7.224658584    5.287501100    5.527437816
    1.233722871    7.216862677    5.282294044    5.521924307
    1.240901503    7.209042354    5.277070496    5.516393558
    1.248080134    7.201197885    5.271830631    5.510845757
    1.255258765    7.193329539    5.266574626    5.505281091
    1.262437396    7.185437585    5.261302658    5.499699747
    1.269616027    7.177522291    5.256014901    5.494101911
    1.276794658    7.169583925    5.250711531    5.488487767
    1.283973289    7.161622754    5.245392724    5.482857503
    1.291151920    7.153639044    5.240058652    5.477211302
    1.298330551    7.145633061    5.234709492    5.471549350
    1.305509182    7.137605070    5.229345415    5.465871830
    1.312687813    7.129555337    5.223966596    5.460178925
    1.319866444    7.121484126    5.218573207    5.454470820
    1.327045075    7.113391699    5.213165421    5.448747696
    1.334223706    7.105278320    5.207743411    5.443009736
    1.341402337    7.097144252    5.202307347    5.437257122
    1.348580968    7.088989754    5.196857401    5.431490034
    1.355759599    7.080815089    5.191393743    5.425708655
    1.362938230    7.072620517    5.185916544    5.419913163
    1.370116861    7.064406296    5.180425974    5.414103738
    1.377295492    7.056172686    5.174922203    5.408280561
    1.384474124    7.047919945    5.169405398    5.402443809
    1.391652755    7.039648329    5.163875728    5.396593660
    1.398831386    7.031358095    5.158333362    5.390730293
    1.406010017    7.023049500    5.152778467    5.384853884
    1.413188648    7.014722797    5.147211209    5.378964610
    1.420367279    7.006378241    5.141631754    5.373062646
    1.427545910    6.998016085    5.136040270    5.367148169
    1.434724541    6.989636581    5.130436921    5.361221352
    1.441903172    6.981239982    5.124821872    5.355282370
    1.449081803    6.972826538    5.119195287    5.349331397
    1.456260434    6.964396499    5.113557330    5.343368606
    1.463439065    6.955950114    5.107908164    5.337394168
    1.470617696    6.947487632    5.102247951    5.331408256
    1.477796327    6.939009299    5.096576854    5.325411041
    1.484974958    6.930515363    5.090895035    5.319402694
    1.492153589    6.922006068    5.085202653    5.313383384
    1.499332220    6.913481660    5.079499870    5.307353280
    1.506510851    6.904942382    5.073786844    5.301312552
    1.513689482    6.896388477    5.068063736    5.295261367
    1.520868114    6.887820187    5.062330704    5.289199893
    1.528046745    6.879237753    5.056587905    5.283128296
    1.535225376    6.870641414    5.050835497    5.277046742
    1.542404007    6.862031411    5.045073636    5.270955397
    1.549582638    6.853407981    5.039302480    5.264854425
    1.556761269    6.844771361    5.033522182    5.258743991
    1.563939900    6.836121787    5.027732899    5.252624257
    1.571118531    6.827459494    5.021934783    5.246495386
    1.578297162    6.818784717    5.016127989    5.240357541
    1.585475793    6.810097689    5.010312670    5.234210881
    1.592654424    6.801398641    5.004488978    5.228055569
    1.599833055    6.792687805    4.998657064    5.221891764
    1.607011686    6.783965411    4.992817080    5.215719624
    1.614190317    6.775231689    4.986969176    5.209539309
    1.621368948    6.766486865    4.981113501    5.203350975
    1.628547579    6.757731166    4.975250204    5.197154781
    1.635726210    6.748964820    4.969379434    5.190950882
    1.642904841    6.740188051    4.963501339    5.184739433
    1.650083472    6.731401081    4.957616064    5.178520590
    1.657262104    6.722604135    4.951723758    5.172294506
    1.664440735    6.713797434    4.945824564    5.166061335
    1.671619366    6.704981198    4.939918629    5.159821230
    1.678797997    6.696155647    4.934006095    5.153574341
    1.685976628    6.687320999    4.928087108    5.147320821
    1.693155259    6.678477472    4.922161809    5.141060819
    1.700333890    6.669625282    4.916230341    5.134794486
    1.707512521    6.660764643    4.910292845    5.128521969
    1.714691152    6.651895770    4.904349461    5.122243417
    1.721869783    6.643018876    4.898400331    5.115958978
    1.729048414    6.634134172    4.892445593    5.109668797
    1.736227045    6.625241869    4.886485385    5.103373020
    1.743405676    6.616342177    4.880519846    5.097071793
    1.750584307    6.607435303    4.874549113    5.090765259
    1.757762938    6.598521456    4.868573322    5.084453563
    1.764941569    6.589600841    4.862592609    5.078136846
    1.772120200    6.580673663    4.856607109    5.071815251
    1.779298831    6.571740127    4.850616956    5.065488918
    1.786477462    6.562800434    4.844622283    5.059157988
    1.793656093    6.553854787    4.838623224    5.052822601
    1.800834725    6.544903385    4.832619911    5.046482894
    1.808013356    6.535946428    4.826612474    5.040139007
    1.815191987    6.526984115    4.820601044    5.033791076
    1.822370618    6.518016641    4.814585753    5.027439238
    1.829549249    6.509044203    4.808566727    5.021083627
    1.836727880    6.500066996    4.802544096    5.014724380
    1.843906511    6.491085212    4.796517988    5.008361630
    1.851085142    6.482099044    4.790488529    5.001995509
    1.858263773    6.473108683    4.784455846    4.995626152
    1.865442404    6.464114320    4.778420063    4.989253688
    1.872621035    6.455116142    4.772381306    4.982878249
    1.879799666    6.446114338    4.766339699    4.976499965
    1.886978297    6.437109094    4.760295364    4.970118966
    1.894156928    6.428100595    4.754248425    4.963735379
    1.901335559    6.419089025    4.748199003    4.957349331
    1.908514190    6.410074568    4.742147218    4.950960951
    1.915692821    6.401057404    4.736093191    4.944570364
    1.922871452    6.392037714    4.730037042    4.938177695
    1.930050083    6.383015679    4.723978889    4.931783068
    1.937228715    6.373991475    4.717918849    4.925386608
    1.944407346    6.364965280    4.711857042    4.918988436
    1.951585977    6.355937270    4.705793581    4.912588675
    1.958764608    6.346907620    4.699728585    4.906187446
    1.965943239    6.337876503    4.693662166    4.899784870
    1.973121870    6.328844090    4.687594440    4.893381066
    1.980300501    6.319810554    4.681525520    4.886976152
    1.987479132    6.310776065    4.675455519    4.880570248
    1.994657763    6.301740791    4.669384548    4.874163469
    2.001836394    6.292704899    4.663312719    4.867755933
    2.009015025    6.283668556    4.657240143    4.861347755
    2.016193656    6.274631928    4.651166928    4.854939049
    2.023372287    6.265595178    4.645093184    4.848529931
    2.030550918    6.256558469    4.639019019    4.842120512
    2.037729549    6.247521963    4.632944541    4.835710905
    2.044908180    6.238485821    4.626869855    4.829301223
    2.052086811    6.229450202    4.620795069    4.822891575
    2.059265442    6.220415264    4.614720288    4.816482072
    2.066444073    6.211381164    4.608645615    4.810072823
    2.073622705    6.202348058    4.602571154    4.803663936
    2.080801336    6.193316101    4.596497009    4.797255520
    2.087979967    6.184285446    4.590423282    4.790847680
    2.095158598    6.175256246    4.584350074    4.784440523
    2.102337229    6.166228652    4.578277486    4.778034154
    2.109515860    6.157202813    4.572205617    4.771628678
    2.116694491    6.148178880    4.566134568    4.765224198
    2.123873122    6.139156999    4.560064437    4.758820818
    2.131051753    6.130137317    4.553995322    4.752418639
    2.138230384    6.121119980    4.547927318    4.746017763
    2.145409015    6.112105133    4.541860524    4.739618290
    2.152587646    6.103092917    4.535795035    4.733220320
    2.159766277    6.094083475    4.529730944    4.726823953
    2.166944908    6.085076949    4.523668347    4.720429285
    2.174123539    6.076073477    4.517607338    4.714036416
    2.181302170    6.067073199    4.511548007    4.707645441
    2.188480801    6.058076251    4.505490448    4.701256457
    2.195659432    6.049082771    4.499434752    4.694869559
    2.202838063    6.040092893    4.493381010    4.688484840
    2.210016694    6.031106752    4.487329310    4.682102396
    2.217195326    6.022124481    4.481279742    4.675722318
    2.224373957    6.013146210    4.475232395    4.669344698
    2.231552588    6.004172072    4.469187356    4.662969629
    2.238731219    5.995202196    4.463144712    4.656597201
    2.245909850    5.986236710    4.457104549    4.650227503
    2.253088481    5.977275741    4.451066953    4.643860625
    2.260267112    5.968319417    4.445032009    4.637496655
    2.267445743    5.959367862    4.438999800    4.631135680
    2.274624374    5.950421200    4.432970410    4.624777788
    2.281803005    5.941479555    4.426943922    4.618423065
    2.288981636    5.932543048    4.420920417    4.612071596
    2.296160267    5.923611800    4.414899977    4.605723465
    2.303338898    5.914685931    4.408882683    4.599378757
    2.310517529    5.905765559    4.402868615    4.593037555
    2.317696160    5.896850803    4.396857851    4.586699941
    2.324874791    5.887941779    4.390850470    4.580365998
    2.332053422    5.879038602    4.384846550    4.574035805
    2.339232053    5.870141387    4.378846169    4.567709444
    2.346410684    5.861250246    4.372849402    4.561386993
    2.353589316    5.852365294    4.366856325    4.555068532
    2.360767947    5.843486639    4.360867014    4.548754139
    2.367946578    5.834614394    4.354881543    4.542443892
    2.375125209    5.825748667    4.348899985    4.536137866
    2.382303840    5.816889566    4.342922415    4.529836138
    2.389482471    5.808037198    4.336948903    4.523538784
    2.396661102    5.799191669    4.330979523    4.517245877
    2.403839733    5.790353085    4.325014345    4.510957493
    2.411018364    5.781521549    4.319053439    4.504673703
    2.418196995    5.772697165    4.313096875    4.498394581
    2.425375626    5.763880033    4.307144723    4.492120199
    2.432554257    5.755070256    4.301197051    4.485850627
    2.439732888    5.746267934    4.295253927    4.479585936
    2.446911519    5.737473164    4.289315418    4.473326196
    2.454090150    5.728686046    4.283381590    4.467071476
    2.461268781    5.719906676    4.277452509    4.460821844
    2.468447412    5.711135150    4.271528241    4.454577368
    2.475626043    5.702371563    4.265608850    4.448338115
    2.482804674    5.693616010    4.259694400    4.442104152
    2.489983306    5.684868583    4.253784955    4.435875545
    2.497161937    5.676129374    4.247880577    4.429652358
    2.504340568    5.667398474    4.241981329    4.423434655
    2.511519199    5.658675974    4.236087271    4.417222502
    2.518697830    5.649961963    4.230198465    4.411015960
    2.525876461    5.641256529    4.224314971    4.404815093
    2.533055092    5.632559759    4.218436849    4.398619962
    2.540233723    5.623871740    4.212564157    4.392430628
