# energy grid [eV]     epsr_x  epsr_y  epsr_z
#
    0.200000000   14.225776965   14.236698986    2.939355945
    0.207178631   14.228884909   14.239718090    2.939610152
    0.214357262   14.232104119   14.242845197    2.939873404
    0.221535893   14.235434769   14.246080471    2.940145710
    0.228714524   14.238877042   14.249424079    2.940427078
    0.235893155   14.242431127   14.252876195    2.940717518
    0.243071786   14.246097219   14.256436999    2.941017039
    0.250250417   14.249875518   14.260106677    2.941325650
    0.257429048   14.253766232   14.263885420    2.941643361
    0.264607679   14.257769575   14.267773425    2.941970184
    0.271786311   14.261885767   14.271770895    2.942306128
    0.278964942   14.266115036   14.275878040    2.942651205
    0.286143573   14.270457614   14.280095075    2.943005425
    0.293322204   14.274913741   14.284422221    2.943368801
    0.300500835   14.279483664   14.288859704    2.943741344
    0.307679466   14.284167636   14.293407759    2.944123066
    0.314858097   14.288965917   14.298066624    2.944513980
    0.322036728   14.293878772   14.302836545    2.944914098
    0.329215359   14.298906476   14.307717774    2.945323434
    0.336393990   14.304049308   14.312710567    2.945742001
    0.343572621   14.309307554   14.317815190    2.946169813
    0.350751252   14.314681509   14.323031913    2.946606884
    0.357929883   14.320171473   14.328361012    2.947053228
    0.365108514   14.325777752   14.333802770    2.947508860
    0.372287145   14.331500663   14.339357477    2.947973794
    0.379465776   14.337340526   14.345025428    2.948448047
    0.386644407   14.343297669   14.350806925    2.948931633
    0.393823038   14.349372429   14.356702278    2.949424570
    0.401001669   14.355565148   14.362711802    2.949926872
    0.408180301   14.361876177   14.368835819    2.950438557
    0.415358932   14.368305873   14.375074656    2.950959642
    0.422537563   14.374854602   14.381428651    2.951490143
    0.429716194   14.381522734   14.387898145    2.952030080
    0.436894825   14.388310650   14.394483486    2.952579468
    0.444073456   14.395218738   14.401185030    2.953138328
    0.451252087   14.402247392   14.408003141    2.953706676
    0.458430718   14.409397015   14.414938188    2.954284533
    0.465609349   14.416668018   14.421990546    2.954871918
    0.472787980   14.424060817   14.429160602    2.955468850
    0.479966611   14.431575841   14.436448744    2.956075350
    0.487145242   14.439213521   14.443855371    2.956691437
    0.494323873   14.446974301   14.451380888    2.957317132
    0.501502504   14.454858630   14.459025708    2.957952456
    0.508681135   14.462866966   14.466790252    2.958597432
    0.515859766   14.470999776   14.474674945    2.959252080
    0.523038397   14.479257535   14.482680224    2.959916422
    0.530217028   14.487640726   14.490806530    2.960590482
    0.537395659   14.496149840   14.499054314    2.961274281
    0.544574290   14.504785377   14.507424034    2.961967843
    0.551752922   14.513547846   14.515916155    2.962671192
    0.558931553   14.522437764   14.524531151    2.963384352
    0.566110184   14.531455658   14.533269502    2.964107347
    0.573288815   14.540602063   14.542131699    2.964840201
    0.580467446   14.549877523   14.551118238    2.965582939
    0.587646077   14.559282591   14.560229626    2.966335588
    0.594824708   14.568817829   14.569466376    2.967098172
    0.602003339   14.578483809   14.578829010    2.967870719
    0.609181970   14.588281113   14.588318058    2.968653254
    0.616360601   14.598210329   14.597934060    2.969445804
    0.623539232   14.608272059   14.607677563    2.970248398
    0.630717863   14.618466912   14.617549124    2.971061062
    0.637896494   14.628795508   14.627549306    2.971883825
    0.645075125   14.639258475   14.637678684    2.972716715
    0.652253756   14.649856453   14.647937841    2.973559761
    0.659432387   14.660590092   14.658327368    2.974412994
    0.666611018   14.671460050   14.668847866    2.975276441
    0.673789649   14.682466999   14.679499944    2.976150135
    0.680968280   14.693611618   14.690284222    2.977034104
    0.688146912   14.704894599   14.701201330    2.977928381
    0.695325543   14.716316643   14.712251904    2.978832997
    0.702504174   14.727878463   14.723436593    2.979747983
    0.709682805   14.739580782   14.734756054    2.980673372
    0.716861436   14.751424334   14.746210955    2.981609197
    0.724040067   14.763409867   14.757801972    2.982555490
    0.731218698   14.775538136   14.769529794    2.983512286
    0.738397329   14.787809912   14.781395118    2.984479618
    0.745575960   14.800225973   14.793398652    2.985457521
    0.752754591   14.812787112   14.805541114    2.986446030
    0.759933222   14.825494134   14.817823232    2.987445181
    0.767111853   14.838347855   14.830245747    2.988455008
    0.774290484   14.851349103   14.842809409    2.989475549
    0.781469115   14.864498718   14.855514978    2.990506840
    0.788647746   14.877797556   14.868363227    2.991548919
    0.795826377   14.891246481   14.881354940    2.992601822
    0.803005008   14.904846373   14.894490911    2.993665590
    0.810183639   14.918598125   14.907771946    2.994740259
    0.817362270   14.932502641   14.921198864    2.995825870
    0.824540902   14.946560841   14.934772494    2.996922461
    0.831719533   14.960773657   14.948493678    2.998030074
    0.838898164   14.975142036   14.962363269    2.999148749
    0.846076795   14.989666938   14.976382133    3.000278526
    0.853255426   15.004349338   14.990551148    3.001419449
    0.860434057   15.019190225   15.004871206    3.002571558
    0.867612688   15.034190602   15.019343209    3.003734897
    0.874791319   15.049351487   15.033968074    3.004909508
    0.881969950   15.064673915   15.048746730    3.006095436
    0.889148581   15.080158933   15.063680120    3.007292725
    0.896327212   15.095807606   15.078769199    3.008501420
    0.903505843   15.111621013   15.094014938    3.009721566
    0.910684474   15.127600251   15.109418320    3.010953209
    0.917863105   15.143746431   15.124980342    3.012196395
    0.925041736   15.160060680   15.140702015    3.013451172
    0.932220367   15.176544145   15.156584365    3.014717587
    0.939398998   15.193197985   15.172628432    3.015995689
    0.946577629   15.210023381   15.188835271    3.017285526
    0.953756260   15.227021529   15.205205953    3.018587147
    0.960934891   15.244193641   15.221741562    3.019900603
    0.968113523   15.261540950   15.238443199    3.021225944
    0.975292154   15.279064706   15.255311980    3.022563220
    0.982470785   15.296766177   15.272349037    3.023912485
    0.989649416   15.314646649   15.289555517    3.025273790
    0.996828047   15.332707430   15.306932585    3.026647188
    1.004006678   15.350949844   15.324481421    3.028032733
    1.011185309   15.369375237   15.342203224    3.029430479
    1.018363940   15.387984974   15.360099207    3.030840481
    1.025542571   15.406780440   15.378170602    3.032262795
    1.032721202   15.425763042   15.396418659    3.033697476
    1.039899833   15.444934205   15.414844644    3.035144582
    1.047078464   15.464295379   15.433449843    3.036604169
    1.054257095   15.483848033   15.452235559    3.038076297
    1.061435726   15.503593660   15.471203114    3.039561024
    1.068614357   15.523533773   15.490353848    3.041058409
    1.075792988   15.543669909   15.509689123    3.042568514
    1.082971619   15.564003629   15.529210317    3.044091398
    1.090150250   15.584536516   15.548918831    3.045627124
    1.097328881   15.605270178   15.568816082    3.047175753
    1.104507513   15.626206246   15.588903512    3.048737350
    1.111686144   15.647346378   15.609182581    3.050311978
    1.118864775   15.668692254   15.629654770    3.051899701
    1.126043406   15.690245583   15.650321582    3.053500586
    1.133222037   15.712008097   15.671184543    3.055114697
    1.140400668   15.733981556   15.692245199    3.056742103
    1.147579299   15.756167747   15.713505120    3.058382870
    1.154757930   15.778568485   15.734965898    3.060037067
    1.161936561   15.801185611   15.756629147    3.061704764
    1.169115192   15.824020996   15.778496508    3.063386031
    1.176293823   15.847076540   15.800569644    3.065080938
    1.183472454   15.870354172   15.822850240    3.066789558
    1.190651085   15.893855850   15.845340011    3.068511962
    1.197829716   15.917583564   15.868040692    3.070248225
    1.205008347   15.941539335   15.890954047    3.071998421
    1.212186978   15.965725215   15.914081865    3.073762624
    1.219365609   15.990143289   15.937425962    3.075540912
    1.226544240   16.014795674   15.960988179    3.077333360
    1.233722871   16.039684522   15.984770388    3.079140047
    1.240901503   16.064812016   16.008774485    3.080961052
    1.248080134   16.090180378   16.033002398    3.082796454
    1.255258765   16.115791863   16.057456081    3.084646334
    1.262437396   16.141648762   16.082137518    3.086510774
    1.269616027   16.167753403   16.107048726    3.088389856
    1.276794658   16.194108153   16.132191747    3.090283664
    1.283973289   16.220715416   16.157568659    3.092192281
    1.291151920   16.247577635   16.183181570    3.094115795
    1.298330551   16.274697293   16.209032618    3.096054291
    1.305509182   16.302076915   16.235123978    3.098007857
    1.312687813   16.329719066   16.261457854    3.099976581
    1.319866444   16.357626353   16.288036486    3.101960554
    1.327045075   16.385801420   16.314862146    3.103959865
    1.334223706   16.414246941   16.341937135    3.105974607
    1.341402337   16.442965606   16.369263778    3.108004872
    1.348580968   16.471960210   16.396844459    3.110050754
    1.355759599   16.501233711   16.424681654    3.112112350
    1.362938230   16.530788995   16.452777820    3.114189756
    1.370116861   16.560628939   16.481135433    3.116283068
    1.377295492   16.590756501   16.509757019    3.118392386
    1.384474124   16.621174706   16.538645151    3.120517809
    1.391652755   16.651886633   16.567802446    3.122659438
    1.398831386   16.682895415   16.597231561    3.124817376
    1.406010017   16.714204240   16.626935197    3.126991726
    1.413188648   16.745816352   16.656916097    3.129182592
    1.420367279   16.777735048   16.687177051    3.131390082
    1.427545910   16.809963687   16.717720890    3.133614301
    1.434724541   16.842505683   16.748550495    3.135855359
    1.441903172   16.875364512   16.779668791    3.138113366
    1.449081803   16.908543712   16.811078752    3.140388433
    1.456260434   16.942046884   16.842783401    3.142680673
    1.463439065   16.975877691   16.874785811    3.144990199
    1.470617696   17.010039865   16.907089105    3.147317129
    1.477796327   17.044537204   16.939696457    3.149661577
    1.484974958   17.079373572   16.972611095    3.152023663
    1.492153589   17.114552903   17.005836294    3.154403506
    1.499332220   17.150079207   17.039375394    3.156801229
    1.506510851   17.185956577   17.073231802    3.159216953
    1.513689482   17.222189173   17.107408972    3.161650803
    1.520868114   17.258781228   17.141910407    3.164102905
    1.528046745   17.295737054   17.176739677    3.166573388
    1.535225376   17.333061048   17.211900412    3.169062378
    1.542404007   17.370757689   17.247396308    3.171570009
    1.549582638   17.408831542   17.283231123    3.174096412
    1.556761269   17.447287259   17.319408681    3.176641720
    1.563939900   17.486129580   17.355932873    3.179206071
    1.571118531   17.525363338   17.392807659    3.181789602
    1.578297162   17.564993458   17.430037069    3.184392451
    1.585475793   17.605024963   17.467625202    3.187014761
    1.592654424   17.645462974   17.505576234    3.189656674
    1.599833055   17.686312711   17.543894412    3.192318335
    1.607011686   17.727579501   17.582584063    3.194999890
    1.614190317   17.769268775   17.621649590    3.197701489
    1.621368948   17.811386073   17.661095476    3.200423281
    1.628547579   17.853937047   17.700926284    3.203165420
    1.635726210   17.896927462   17.741146652    3.205928060
    1.642904841   17.940363202   17.781761291    3.208711356
    1.650083472   17.984250272   17.822775028    3.211515468
    1.657262104   18.028594808   17.864192837    3.214340557
    1.664440735   18.073403068   17.906019727    3.217186786
    1.671619366   18.118681438   17.948260772    3.220054319
    1.678797997   18.164436438   17.990921156    3.222943325
    1.685976628   18.210674731   18.034006171    3.225853971
    1.693155259   18.257403118   18.077521212    3.228786431
    1.700333890   18.304628548   18.121471778    3.231740878
    1.707512521   18.352358121   18.165863475    3.234717488
    1.714691152   18.400599091   18.210702016    3.237716440
    1.721869783   18.449358868   18.255993229    3.240737917
    1.729048414   18.498645030   18.301743053    3.243782100
    1.736227045   18.548465318   18.347957547    3.246849178
    1.743405676   18.598827651   18.394642889    3.249939338
    1.750584307   18.649740122   18.441805381    3.253052772
    1.757762938   18.701211011   18.489451452    3.256189674
    1.764941569   18.753248782   18.537587662    3.259350242
    1.772120200   18.805862098   18.586220702    3.262534674
    1.779298831   18.859059811   18.635357399    3.265743173
    1.786477462   18.912850961   18.685004711    3.268975944
    1.793656093   18.967244757   18.735169720    3.272233196
    1.800834725   19.022250701   18.785859691    3.275515139
    1.808013356   19.077878705   18.837082122    3.278821988
    1.815191987   19.134138744   18.888844592    3.282153961
    1.822370618   19.191040943   18.941154803    3.285511276
    1.829549249   19.248595719   18.994020638    3.288894159
    1.836727880   19.306813770   19.047450163    3.292302835
    1.843906511   19.365706061   19.101451619    3.295737534
    1.851085142   19.425283834   19.156033431    3.299198491
    1.858263773   19.485558614   19.211204205    3.302685942
    1.865442404   19.546542217   19.266972741    3.306200127
    1.872621035   19.608246757   19.323348030    3.309741290
    1.879799666   19.670684665   19.380339268    3.313309679
    1.886978297   19.733868691   19.437955858    3.316905544
    1.894156928   19.797811917   19.496207415    3.320529142
    1.901335559   19.862527774   19.555103774    3.324180730
    1.908514190   19.928030046   19.614654998    3.327860572
    1.915692821   19.994332890   19.674871382    3.331568934
    1.922871452   20.061450842   19.735763461    3.335306087
    1.930050083   20.129398837   19.797342020    3.339072307
    1.937228715   20.198192222   19.859618097    3.342867871
    1.944407346   20.267846766   19.922602994    3.346693064
    1.951585977   20.338378680   19.986308284    3.350548172
    1.958764608   20.409804639   20.050745824    3.354433489
    1.965943239   20.482141796   20.115927764    3.358349314
    1.973121870   20.555407790   20.181866546    3.362295946
    1.980300501   20.629620773   20.248574919    3.366273693
    1.987479132   20.704799430   20.316065956    3.370282866
    1.994657763   20.780963001   20.384353056    3.374323780
    2.001836394   20.858131301   20.453449960    3.378396758
    2.009015025   20.936324742   20.523370760    3.382502126
    2.016193656   21.015564359   20.594129912    3.386640215
    2.023372287   21.095871835   20.665742249    3.390811365
    2.030550918   21.177269528   20.738222992    3.395015916
    2.037729549   21.259780496   20.811587766    3.399254218
    2.044908180   21.343428530   20.885852612    3.403526625
    2.052086811   21.428238185   20.961034004    3.407833498
    2.059265442   21.514234810   21.037148861    3.412175202
    2.066444073   21.601444585   21.114214569    3.416552111
    2.073622705   21.689894556   21.192248992    3.420964602
    2.080801336   21.779612673   21.271270492    3.425413062
    2.087979967   21.870627833   21.351297950    3.429897882
    2.095158598   21.962969921   21.432350782    3.434419461
    2.102337229   22.056669852   21.514448954    3.438978204
    2.109515860   22.151759619   21.597613002    3.443574525
    2.116694491   22.248272350   21.681864042    3.448208842
    2.123873122   22.346242343   21.767223763    3.452881582
    2.131051753   22.445705069   21.853714544    3.457593177
    2.138230384   22.546697328   21.941359639    3.462344067
    2.145409015   22.649257567   22.030182939    3.467134686
    2.152587646   22.753425542   22.120208914    3.471965483
    2.159766277   22.859242316   22.211462873    3.476836970
    2.166944908   22.966750510   22.303970892    3.481749638
    2.174123539   23.075994428   22.397759805    3.486703946
    2.181302170   23.187020440   22.492857353    3.491700385
    2.188480801   23.299876719   22.589292194    3.496739465
    2.195659432   23.414613096   22.687093908    3.501821691
    2.202838063   23.531281424   22.786293052    3.506947578
    2.210016694   23.649935679   22.886921200    3.512117649
    2.217195326   23.770632258   22.989010980    3.517332426
    2.224373957   23.893430201   23.092596148    3.522592465
    2.231552588   24.018391261   23.197711673    3.527898380
    2.238731219   24.145579542   23.304393684    3.533250747
    2.245909850   24.275061738   23.412679501    3.538650129
    2.253088481   24.406907680   23.522607800    3.544097110
    2.260267112   24.541190593   23.634218902    3.549592304
    2.267445743   24.677987031   23.747554472    3.555136331
    2.274624374   24.817377177   23.862657571    3.560729804
    2.281803005   24.959445238   23.979573002    3.566373343
    2.288981636   25.104279319   24.098347312    3.572067642
    2.296160267   25.251971832   24.219028849    3.577813429
    2.303338898   25.402619878   24.341667696    3.583611369
    2.310517529   25.556325541   24.466315934    3.589462146
    2.317696160   25.713196209   24.593027766    3.595366468
    2.324874791   25.873344936   24.721859609    3.601325066
    2.332053422   26.036890843   24.852870205    3.607338688
    2.339232053   26.203959542   24.986120742    3.613408093
    2.346410684   26.374683594   25.121674986    3.619534052
    2.353589316   26.549203055   25.259599435    3.625717350
    2.360767947   26.727666192   25.399963524    3.631958820
    2.367946578   26.910229922   25.542839689    3.638259292
    2.375125209   27.097060381   25.688303596    3.644619604
    2.382303840   27.288333781   25.836434557    3.651040681
    2.389482471   27.484237134   25.987315255    3.657523415
    2.396661102   27.684969477   26.141032306    3.664068698
    2.403839733   27.890743348   26.297677251    3.670677461
    2.411018364   28.101784801   26.457345647    3.677350661
    2.418196995   28.318334543   26.620137285    3.684089274
    2.425375626   28.540649777   26.786157122    3.690894305
    2.432554257   28.769006130   26.955515602    3.697766782
    2.439732888   29.003699655   27.128328998    3.704707762
    2.446911519   29.245047449   27.304719862    3.711718328
    2.454090150   29.493390018   27.484817336    3.718799592
    2.461268781   29.749094119   27.668757633    3.725952693
    2.468447412   30.012555372   27.856684658    3.733178802
    2.475626043   30.284201212   28.048750609    3.740479122
    2.482804674   30.564494261   28.245116612    3.747854889
    2.489983306   30.853936203   28.445953465    3.755307375
    2.497161937   31.153072212   28.651442480    3.762837888
    2.504340568   31.462495841   28.861776199    3.770447770
    2.511519199   31.782854602   29.077159323    3.778138399
    2.518697830   32.114856242   29.297810331    3.785911171
    2.525876461   32.459276723   29.523962574    3.793767435
    2.533055092   32.816971842   29.755865536    3.801708470
    2.540233723   33.188884807   29.993786660    3.809736043
