# energy grid [eV]     epsr_x  epsr_y  epsr_z
#
    0.200000000   15.278567204   14.572304283    4.778283405
    0.207178631   15.281825234   14.575559150    4.778875726
    0.214357262   15.285199801   14.578930596    4.779489145
    0.221535893   15.288691080   14.582418809    4.780123684
    0.228714524   15.292299250   14.586023987    4.780779368
    0.235893155   15.296024499   14.589746333    4.781456218
    0.243071786   15.299867017   14.593586057    4.782154261
    0.250250417   15.303827003   14.597543377    4.782873521
    0.257429048   15.307904663   14.601618516    4.783614025
    0.264607679   15.312100208   14.605811706    4.784375799
    0.271786311   15.316413855   14.610123184    4.785158872
    0.278964942   15.320845827   14.614553196    4.785963271
    0.286143573   15.325396356   14.619101993    4.786789027
    0.293322204   15.330065677   14.623769835    4.787636169
    0.300500835   15.334854034   14.628556988    4.788504729
    0.307679466   15.339761676   14.633463724    4.789394738
    0.314858097   15.344788860   14.638490326    4.790306229
    0.322036728   15.349935847   14.643637080    4.791239234
    0.329215359   15.355202908   14.648904282    4.792193790
    0.336393990   15.360590317   14.654292234    4.793169929
    0.343572621   15.366098358   14.659801246    4.794167690
    0.350751252   15.371727319   14.665431636    4.795187107
    0.357929883   15.377477496   14.671183728    4.796228219
    0.365108514   15.383349193   14.677057855    4.797291064
    0.372287145   15.389342718   14.683054357    4.798375681
    0.379465776   15.395458389   14.689173580    4.799482111
    0.386644407   15.401696528   14.695415882    4.800610394
    0.393823038   15.408057465   14.701781624    4.801760572
    0.401001669   15.414541538   14.708271179    4.802932688
    0.408180301   15.421149092   14.714884924    4.804126785
    0.415358932   15.427880477   14.721623246    4.805342907
    0.422537563   15.434736053   14.728486541    4.806581100
    0.429716194   15.441716184   14.735475211    4.807841410
    0.436894825   15.448821245   14.742589668    4.809123884
    0.444073456   15.456051616   14.749830330    4.810428570
    0.451252087   15.463407683   14.757197625    4.811755516
    0.458430718   15.470889844   14.764691990    4.813104773
    0.465609349   15.478498499   14.772313868    4.814476390
    0.472787980   15.486234059   14.780063713    4.815870419
    0.479966611   15.494096943   14.787941986    4.817286913
    0.487145242   15.502087575   14.795949157    4.818725925
    0.494323873   15.510206389   14.804085705    4.820187509
    0.501502504   15.518453826   14.812352117    4.821671720
    0.508681135   15.526830334   14.820748892    4.823178615
    0.515859766   15.535336371   14.829276533    4.824708249
    0.523038397   15.543972401   14.837935556    4.826260683
    0.530217028   15.552738896   14.846726485    4.827835973
    0.537395659   15.561636338   14.855649852    4.829434180
    0.544574290   15.570665216   14.864706201    4.831055366
    0.551752922   15.579826028   14.873896084    4.832699591
    0.558931553   15.589119278   14.883220061    4.834366918
    0.566110184   15.598545481   14.892678704    4.836057412
    0.573288815   15.608105161   14.902272595    4.837771137
    0.580467446   15.617798847   14.912002323    4.839508159
    0.587646077   15.627627080   14.921868489    4.841268544
    0.594824708   15.637590409   14.931871705    4.843052361
    0.602003339   15.647689392   14.942012591    4.844859677
    0.609181970   15.657924593   14.952291779    4.846690564
    0.616360601   15.668296590   14.962709910    4.848545091
    0.623539232   15.678805966   14.973267636    4.850423331
    0.630717863   15.689453316   14.983965621    4.852325357
    0.637896494   15.700239241   14.994804538    4.854251242
    0.645075125   15.711164355   15.005785071    4.856201062
    0.652253756   15.722229280   15.016907916    4.858174892
    0.659432387   15.733434646   15.028173780    4.860172811
    0.666611018   15.744781095   15.039583381    4.862194896
    0.673789649   15.756269277   15.051137447    4.864241226
    0.680968280   15.767899854   15.062836721    4.866311883
    0.688146912   15.779673496   15.074681953    4.868406948
    0.695325543   15.791590883   15.086673910    4.870526503
    0.702504174   15.803652708   15.098813367    4.872670633
    0.709682805   15.815859670   15.111101114    4.874839423
    0.716861436   15.828212482   15.123537950    4.877032958
    0.724040067   15.840711866   15.136124689    4.879251327
    0.731218698   15.853358555   15.148862157    4.881494617
    0.738397329   15.866153293   15.161751193    4.883762918
    0.745575960   15.879096834   15.174792649    4.886056322
    0.752754591   15.892189943   15.187987388    4.888374921
    0.759933222   15.905433399   15.201336290    4.890718807
    0.767111853   15.918827988   15.214840245    4.893088075
    0.774290484   15.932374510   15.228500159    4.895482822
    0.781469115   15.946073777   15.242316950    4.897903144
    0.788647746   15.959926611   15.256291552    4.900349139
    0.795826377   15.973933847   15.270424911    4.902820907
    0.803005008   15.988096332   15.284717989    4.905318550
    0.810183639   16.002414923   15.299171763    4.907842168
    0.817362270   16.016890492   15.313787223    4.910391866
    0.824540902   16.031523924   15.328565374    4.912967749
    0.831719533   16.046316112   15.343507239    4.915569922
    0.838898164   16.061267968   15.358613854    4.918198493
    0.846076795   16.076380411   15.373886270    4.920853571
    0.853255426   16.091654377   15.389325557    4.923535266
    0.860434057   16.107090814   15.404932798    4.926243689
    0.867612688   16.122690683   15.420709093    4.928978954
    0.874791319   16.138454959   15.436655561    4.931741175
    0.881969950   16.154384631   15.452773335    4.934530468
    0.889148581   16.170480701   15.469063567    4.937346950
    0.896327212   16.186744187   15.485527424    4.940190739
    0.903505843   16.203176119   15.502166093    4.943061957
    0.910684474   16.219777543   15.518980779    4.945960724
    0.917863105   16.236549519   15.535972702    4.948887163
    0.925041736   16.253493123   15.553143104    4.951841401
    0.932220367   16.270609443   15.570493245    4.954823562
    0.939398998   16.287899587   15.588024402    4.957833774
    0.946577629   16.305364675   15.605737874    4.960872167
    0.953756260   16.323005844   15.623634978    4.963938872
    0.960934891   16.340824246   15.641717051    4.967034021
    0.968113523   16.358821051   15.659985451    4.970157748
    0.975292154   16.376997444   15.678441557    4.973310189
    0.982470785   16.395354625   15.697086767    4.976491481
    0.989649416   16.413893816   15.715922503    4.979701764
    0.996828047   16.432616250   15.734950207    4.982941178
    1.004006678   16.451523181   15.754171344    4.986209866
    1.011185309   16.470615881   15.773587401    4.989507971
    1.018363940   16.489895637   15.793199886    4.992835640
    1.025542571   16.509363756   15.813010324    4.996193021
    1.032721202   16.529021559   15.833020234    4.999580262
    1.039899833   16.548870382   15.853231121    5.002997515
    1.047078464   16.568911592   15.873644617    5.006444932
    1.054257095   16.589146587   15.894262545    5.009922670
    1.061435726   16.609576770   15.915086552    5.013430886
    1.068614357   16.630203553   15.936118244    5.016969736
    1.075792988   16.651028376   15.957359299    5.020539383
    1.082971619   16.672052700   15.978811443    5.024139988
    1.090150250   16.693278006   16.000476433    5.027771716
    1.097328881   16.714705798   16.022356056    5.031434733
    1.104507513   16.736337600   16.044452128    5.035129208
    1.111686144   16.758174958   16.066766491    5.038855311
    1.118864775   16.780219441   16.089301016    5.042613215
    1.126043406   16.802472640   16.112057606    5.046403094
    1.133222037   16.824936167   16.135038190    5.050225125
    1.140400668   16.847611659   16.158244731    5.054079486
    1.147579299   16.870500776   16.181679222    5.057966359
    1.154757930   16.893605200   16.205343686    5.061885927
    1.161936561   16.916926641   16.229240180    5.065838374
    1.169115192   16.940466829   16.253370794    5.069823889
    1.176293823   16.964227522   16.277737651    5.073842660
    1.183472454   16.988210503   16.302342908    5.077894881
    1.190651085   17.012417580   16.327188757    5.081980746
    1.197829716   17.036850588   16.352277425    5.086100451
    1.205008347   17.061511387   16.377611177    5.090254194
    1.212186978   17.086401867   16.403192314    5.094442179
    1.219365609   17.111523942   16.429023173    5.098664608
    1.226544240   17.136879558   16.455106131    5.102921689
    1.233722871   17.162470685   16.481443605    5.107213629
    1.240901503   17.188299326   16.508038051    5.111540640
    1.248080134   17.214367512   16.534891964    5.115902936
    1.255258765   17.240677302   16.562007883    5.120300735
    1.262437396   17.267230788   16.589388389    5.124734253
    1.269616027   17.294030092   16.617036106    5.129203715
    1.276794658   17.321077369   16.644953702    5.133709344
    1.283973289   17.348374803   16.673143890    5.138251367
    1.291151920   17.375924614   16.701609429    5.142830014
    1.298330551   17.403729051   16.730353125    5.147445519
    1.305509182   17.431790395   16.759377830    5.152098117
    1.312687813   17.460110964   16.788686445    5.156788046
    1.319866444   17.488693122   16.818281929    5.161515548
    1.327045075   17.517539267   16.848167292    5.166280867
    1.334223706   17.546651822   16.878345586    5.171084251
    1.341402337   17.576033247   16.908819922    5.175925951
    1.348580968   17.605686042   16.939593461    5.180806220
    1.355759599   17.635612747   16.970669426    5.185725314
    1.362938230   17.665815941   17.002051094    5.190683494
    1.370116861   17.696298243   17.033741801    5.195681023
    1.377295492   17.727062311   17.065744941    5.200718166
    1.384474124   17.758110847   17.098063972    5.205795195
    1.391652755   17.789446592   17.130702412    5.210912381
    1.398831386   17.821072331   17.163663844    5.216070002
    1.406010017   17.852990895   17.196951915    5.221268336
    1.413188648   17.885205155   17.230570340    5.226507669
    1.420367279   17.917718030   17.264522901    5.231788286
    1.427545910   17.950532487   17.298813451    5.237110479
    1.434724541   17.983651535   17.333445913    5.242474541
    1.441903172   18.017078236   17.368424287    5.247880771
    1.449081803   18.050815698   17.403752642    5.253329470
    1.456260434   18.084867080   17.439435130    5.258820944
    1.463439065   18.119235592   17.475475977    5.264355503
    1.470617696   18.153924496   17.511879492    5.269933459
    1.477796327   18.188937105   17.548650066    5.275555132
    1.484974958   18.224276788   17.585792174    5.281220841
    1.492153589   18.259946962   17.623310376    5.286930912
    1.499332220   18.295951095   17.661209321    5.292685674
    1.506510851   18.332292728   17.699493751    5.298485463
    1.513689482   18.368975487   17.738168511    5.304330617
    1.520868114   18.406003030   17.777238533    5.310221480
    1.528046745   18.443379059   17.816708842    5.316158399
    1.535225376   18.481107349   17.856584569    5.322141725
    1.542404007   18.519191742   17.896870947    5.328171814
    1.549582638   18.557636143   17.937573317    5.334249028
    1.556761269   18.596444527   17.978697127    5.340373732
    1.563939900   18.635620934   18.020247939    5.346546297
    1.571118531   18.675169476   18.062231428    5.352767099
    1.578297162   18.715094332   18.104653391    5.359036519
    1.585475793   18.755399756   18.147519741    5.365354941
    1.592654424   18.796090074   18.190836518    5.371722757
    1.599833055   18.837169688   18.234609892    5.378140363
    1.607011686   18.878643077   18.278846161    5.384608160
    1.614190317   18.920514799   18.323551761    5.391126555
    1.621368948   18.962789491   18.368733266    5.397695961
    1.628547579   19.005471873   18.414397392    5.404316794
    1.635726210   19.048566750   18.460551005    5.410989479
    1.642904841   19.092079011   18.507201120    5.417714446
    1.650083472   19.136013635   18.554354908    5.424492128
    1.657262104   19.180375690   18.602019703    5.431322968
    1.664440735   19.225170336   18.650203001    5.438207412
    1.671619366   19.270402826   18.698912470    5.445145914
    1.678797997   19.316078511   18.748155953    5.452138935
    1.685976628   19.362202840   18.797941473    5.459186939
    1.693155259   19.408781363   18.848277241    5.466290400
    1.700333890   19.455819732   18.899171656    5.473449797
    1.707512521   19.503323707   18.950633319    5.480665616
    1.714691152   19.551299155   19.002671034    5.487938350
    1.721869783   19.599752053   19.055293814    5.495268499
    1.729048414   19.648688493   19.108510891    5.502656569
    1.736227045   19.698114682   19.162331719    5.510103076
    1.743405676   19.748036949   19.216765981    5.517608541
    1.750584307   19.798461741   19.271823584    5.525173492
    1.757762938   19.849395629   19.327514639    5.532798468
    1.764941569   19.900845305   19.383849516    5.540484011
    1.772120200   19.952817595   19.440838992    5.548230676
    1.779298831   20.005319493   19.498494168    5.556039022
    1.786477462   20.058358126   19.556826314    5.563909619
    1.793656093   20.111940730   19.615846889    5.571843043
    1.800834725   20.166074690   19.675567691    5.579839880
    1.808013356   20.220767549   19.736000858    5.587900725
    1.815191987   20.276027003   19.797158860    5.596026182
    1.822370618   20.331860907   19.859054505    5.604216862
    1.829549249   20.388277275   19.921700947    5.612473388
    1.836727880   20.445284290   19.985111699    5.620796390
    1.843906511   20.502890304   20.049300647    5.629186509
    1.851085142   20.561103843   20.114282062    5.637644396
    1.858263773   20.619933612   20.180070617    5.646170711
    1.865442404   20.679388503   20.246681400    5.654766125
    1.872621035   20.739477590   20.314129930    5.663431317
    1.879799666   20.800210128   20.382432172    5.672166977
    1.886978297   20.861595534   20.451604549    5.680973798
    1.894156928   20.923643462   20.521663974    5.689852491
    1.901335559   20.986363929   20.592627888    5.698803800
    1.908514190   21.049767123   20.664514251    5.707828470
    1.915692821   21.113863335   20.737341548    5.716927241
    1.922871452   21.178663081   20.811128822    5.726100866
    1.930050083   21.244177144   20.885895696    5.735350113
    1.937228715   21.310416564   20.961662416    5.744675764
    1.944407346   21.377392647   21.038449925    5.754078623
    1.951585977   21.445116956   21.116279840    5.763559503
    1.958764608   21.513601310   21.195174411    5.773119225
    1.965943239   21.582857804   21.275156619    5.782758624
    1.973121870   21.652898820   21.356250218    5.792478551
    1.980300501   21.723737029   21.438479761    5.802279869
    1.987479132   21.795385408   21.521870633    5.812163460
    1.994657763   21.867857241   21.606449086    5.822130217
    2.001836394   21.941166134   21.692242274    5.832181049
    2.009015025   22.015326019   21.779278276    5.842316880
    2.016193656   22.090351157   21.867586093    5.852538648
    2.023372287   22.166256115   21.957195743    5.862847299
    2.030550918   22.243055793   22.048138614    5.873243797
    2.037729549   22.320765688   22.140447360    5.883729152
    2.044908180   22.399401751   22.234155659    5.894304397
    2.052086811   22.478980062   22.329298242    5.904970545
    2.059265442   22.559517088   22.425911185    5.915728613
    2.066444073   22.641029808   22.524031992    5.926579655
    2.073622705   22.723535732   22.623699740    5.937524780
    2.080801336   22.807052771   22.724955179    5.948565108
    2.087979967   22.891599274   22.827840546    5.959701749
    2.095158598   22.977194094   22.932399752    5.970935834
    2.102337229   23.063856599   23.038678552    5.982268521
    2.109515860   23.151606685   23.146724638    5.993700990
    2.116694491   23.240464809   23.256587745    6.005234436
    2.123873122   23.330451957   23.368319744    6.016870056
    2.131051753   23.421589709   23.481974762    6.028609089
    2.138230384   23.513900389   23.597609339    6.040452896
    2.145409015   23.607406880   23.715282559    6.052402805
    2.152587646   23.702132635   23.835056196    6.064460102
    2.159766277   23.798101802   23.956994882    6.076626107
    2.166944908   23.895339208   24.081166255    6.088902146
    2.174123539   23.993870320   24.207641099    6.101289494
    2.181302170   24.093721507   24.336493762    6.113789577
    2.188480801   24.194920356   24.467802644    6.126404183
    2.195659432   24.297494950   24.601649805    6.139134838
    2.202838063   24.401473980   24.738121252    6.151982927
    2.210016694   24.506887228   24.877307593    6.164949957
    2.217195326   24.613765451   25.019304247    6.178037504
    2.224373957   24.722140279   25.164211713    6.191247145
    2.231552588   24.832044329   25.312135972    6.204580430
    2.238731219   24.943511211   25.463188859    6.218038875
    2.245909850   25.056575759   25.617488549    6.231624358
    2.253088481   25.171274321   25.775160269    6.245338999
    2.260267112   25.287644304   25.936336625    6.259184525
    2.267445743   25.405724162   26.101158048    6.273162626
    2.274624374   25.525553627   26.269773381    6.287275120
    2.281803005   25.647173856   26.442340731    6.301523902
    2.288981636   25.770627503   26.619028293    6.315910921
    2.296160267   25.895958759   26.800015171    6.330438175
    2.303338898   26.023213410   26.985492295    6.345107703
    2.310517529   26.152438901   27.175663461    6.359921591
    2.317696160   26.283684400   27.370746476    6.374881971
    2.324874791   26.417000740   27.570974365    6.389991010
    2.332053422   26.552440400   27.776596751    6.405250903
    2.339232053   26.690058709   27.987882066    6.420663953
    2.346410684   26.829914029   28.205119309    6.436232560
    2.353589316   26.972065469   28.428618811    6.451959010
    2.360767947   27.116574316   28.658715351    6.467845653
    2.367946578   27.263505015   28.895771194    6.483895134
    2.375125209   27.412925212   29.140178243    6.500110010
    2.382303840   27.564905086   29.392361415    6.516492935
    2.389482471   27.719517210   29.652782643    6.533046903
    2.396661102   27.876837493   29.921944850    6.549774611
    2.403839733   28.036945397   30.200396879    6.566678766
    2.411018364   28.199924018   30.488739089    6.583762236
    2.418196995   28.365860290   30.787629705    6.601028007
    2.425375626   28.534845237   31.097792172    6.618479149
    2.432554257   28.706974251   31.420023680    6.636118820
    2.439732888   28.882347399   31.755205068    6.653950260
    2.446911519   29.061069756   32.104312393    6.671976798
    2.454090150   29.243251774   32.468430473    6.690201853
    2.461268781   29.429009683   32.848768828    6.708628941
    2.468447412   29.618465910   33.246680489    6.727261674
    2.475626043   29.811749513   33.663684274    6.746103765
    2.482804674   30.008996851   34.101491534    6.765159034
    2.489983306   30.210352953   34.562038866    6.784431441
    2.497161937   30.415971324   35.047525909    6.803925045
    2.504340568   30.626014068   35.560459657    6.823643990
    2.511519199   30.840654208   36.103712289    6.843592562
    2.518697830   31.060077548   36.680605392    6.863775255
    2.525876461   31.284482663   37.294993533    6.884196716
    2.533055092   31.514081415   37.951350513    6.904861657
    2.540233723   31.749102134   38.654920066    6.925774943
