# energy grid [eV]     epsr_x  epsr_y  epsr_z
#
    0.200000000   14.986131354   15.401186848   13.844710632
    0.207178631   14.989930782   15.405389984   13.848167984
    0.214357262   14.993867478   15.409748584   13.851750530
    0.221535893   14.997941800   15.414263473   13.855458626
    0.228714524   15.002154117   15.418935521   13.859292644
    0.235893155   15.006504818   15.423765640   13.863252972
    0.243071786   15.010994302   15.428754789   13.867340010
    0.250250417   15.015622987   15.433903974   13.871554179
    0.257429048   15.020391305   15.439214250   13.875895912
    0.264607679   15.025299706   15.444686724   13.880365661
    0.271786311   15.030348655   15.450322560   13.884963895
    0.278964942   15.035538636   15.456122976   13.889691100
    0.286143573   15.040870149   15.462089252   13.894547782
    0.293322204   15.046343713   15.468222731   13.899534463
    0.300500835   15.051959865   15.474524824   13.904651686
    0.307679466   15.057719163   15.480997010   13.909900014
    0.314858097   15.063622183   15.487640846   13.915280031
    0.322036728   15.069669523   15.494457963   13.920792340
    0.329215359   15.075861800   15.501450080   13.926437570
    0.336393990   15.082199655   15.508619001   13.932216368
    0.343572621   15.088683751   15.515966627   13.938129410
    0.350751252   15.095314775   15.523494956   13.944177392
    0.357929883   15.102093439   15.531206094   13.950361038
    0.365108514   15.109020479   15.539102260   13.956681098
    0.372287145   15.116096659   15.547185794   13.963138351
    0.379465776   15.123322771   15.555459167   13.969733603
    0.386644407   15.130699635   15.563924985   13.976467693
    0.393823038   15.138228104   15.572586008   13.983341489
    0.401001669   15.145909060   15.581445150   13.990355894
    0.408180301   15.153743421   15.590505502   13.997511846
    0.415358932   15.161732139   15.599770336   14.004810319
    0.422537563   15.169876205   15.609243127   14.012252328
    0.429716194   15.178176648   15.618927565   14.019838926
    0.436894825   15.186634541   15.628827572   14.027571211
    0.444073456   15.195250999   15.638947326   14.035450327
    0.451252087   15.204027186   15.649291279   14.043477466
    0.458430718   15.212964316   15.659864183   14.051653871
    0.465609349   15.222063658   15.670671118   14.059980843
    0.472787980   15.231326537   15.681717520   14.068459738
    0.479966611   15.240754341   15.693009214   14.077091977
    0.487145242   15.250348524   15.704552458   14.085879048
    0.494323873   15.260110613   15.716353977   14.094822511
    0.501502504   15.270042212   15.728421017   14.103924003
    0.508681135   15.280145009   15.740761396   14.113185248
    0.515859766   15.290420785   15.753383565   14.122608056
    0.523038397   15.300871419   15.766296678   14.132194339
    0.530217028   15.311498902   15.779510670   14.141946115
    0.537395659   15.322305341   15.793036347   14.151865519
    0.544574290   15.333292981   15.806885487   14.161954813
    0.551752922   15.344464207   15.821070960   14.172216399
    0.558931553   15.355821569   15.835606859   14.182652834
    0.566110184   15.367367796   15.850508661   14.193266844
    0.573288815   15.379105819   15.865793405   14.204061346
    0.580467446   15.391038791   15.881479902   14.215039463
    0.587646077   15.403170123   15.897588983   14.226204556
    0.594824708   15.415503507   15.914143788   14.237560246
    0.602003339   15.428042963   15.931170104   14.249110450
    0.609181970   15.440792882   15.948696766   14.260859420
    0.616360601   15.453758076   15.966756143   14.272811787
    0.623539232   15.466943848   15.985384701   14.284972618
    0.630717863   15.480356067   16.004623698   14.297347473
    0.637896494   15.494001259   16.024520016   14.309942493
    0.645075125   15.507886721   16.045127170   14.322764480
    0.652253756   15.522020661   16.066506553   14.335821021
    0.659432387   15.536412362   16.088728962   14.349120617
    0.666611018   15.551072395   16.111876500   14.362672856
    0.673789649   15.566012877   16.136044957   14.376488624
    0.680968280   15.581247805   16.161346812   14.390580366
    0.688146912   15.596793471   16.187915062   14.404962421
    0.695325543   15.612669000   16.215908144   14.419651447
    0.702504174   15.628897045   16.245516329   14.434666970
    0.709682805   15.645504698   16.276970119   14.450032102
    0.716861436   15.662524703   16.310551396   14.465774486
    0.724040067   15.679997071   16.346608403   14.481927559
    0.731218698   15.697971285   16.385576116   14.498532268
    0.738397329   15.716509322   16.428004287   14.515639409
    0.745575960   15.735689858   16.474596479   14.533312881
    0.752754591   15.755614169   16.526264883   14.551634234
    0.759933222   15.776414431   16.584207599   14.570709059
    0.767111853   15.798265322   16.650016670   14.590675907
    0.774290484   15.821399635   16.725823477   14.611718272
    0.781469115   15.846126813   16.814471327   14.634078839
    0.788647746   15.872845188   16.919628527   14.658069012
    0.795826377   15.902005968   17.045448172   14.684041902
    0.803005008   15.933857473   17.194165555   14.712198729
    0.810183639   15.967284232   17.355202821   14.741708738
    0.817362270   15.995221633   17.462145119   14.767231583
    0.824540902   15.991847597   17.272569955   14.769202186
    0.831719533   15.920630547   16.443538431   14.719937266
    0.838898164   15.842042004   15.542095330   14.665346529
    0.846076795   15.832555557   15.285327846   14.663489328
    0.853255426   15.861440037   15.384459979   14.691115456
    0.860434057   15.899345235   15.563530791   14.726040333
    0.867612688   15.937762823   15.741971344   14.761907650
    0.874791319   15.975342744   15.906401011   14.797788670
    0.881969950   16.012150821   16.057642970   14.833718291
    0.889148581   16.047079356   16.190192925   14.868273258
    0.896327212   16.073340175   16.263375659   14.893517855
    0.903505843   16.071806946   16.160090585   14.887372850
    0.910684474   16.040101349   15.866344431   14.847042556
    0.917863105   16.030133370   15.702988075   14.832155098
    0.925041736   16.051320574   15.728484125   14.853524458
    0.932220367   16.082952983   15.815252960   14.887359097
    0.939398998   16.115859292   15.906840368   14.923149531
    0.946577629   16.147943573   15.990388258   14.958539666
    0.953756260   16.179053566   16.064973511   14.993431952
    0.960934891   16.209445963   16.132139910   15.028229034
    0.968113523   16.239418089   16.193623452   15.063418992
    0.975292154   16.269236080   16.250902285   15.099505106
    0.982470785   16.299134065   16.305179951   15.137021305
    0.989649416   16.329327798   16.357455526   15.176565518
    0.996828047   16.360026083   16.408591555   15.218815992
    1.004006678   16.391423234   16.459334588   15.264443483
    1.011185309   16.423615092   16.510169632   15.313578705
    1.018363940   16.456212772   16.560543192   15.363495047
    1.025542571   16.486924722   16.605946490   15.400185810
    1.032721202   16.509121798   16.632890550   15.383921703
    1.039899833   16.521265469   16.638448308   15.305037451
    1.047078464   16.541779256   16.661050762   15.271974755
    1.054257095   16.575170815   16.710223909   15.310914310
    1.061435726   16.613873977   16.769946811   15.377516357
    1.068614357   16.652924348   16.827172032   15.447232035
    1.075792988   16.684979759   16.855336016   15.497154852
    1.082971619   16.695645236   16.800035666   15.486818365
    1.090150250   16.692716545   16.690489896   15.437623511
    1.097328881   16.711191022   16.659760578   15.443771204
    1.104507513   16.746657212   16.696376027   15.479332674
    1.111686144   16.784678970   16.750040400   15.492460554
    1.118864775   16.825696330   16.805465661   15.522761543
    1.126043406   16.872076327   16.860575335   15.600858126
    1.133222037   16.921738128   16.914208104   15.703717067
    1.140400668   16.972455495   16.966004054   15.810646846
    1.147579299   17.018113307   17.014767009   15.882541028
    1.154757930   17.038866720   17.055430067   15.800344338
    1.161936561   17.015652245   17.083065724   15.449863295
    1.169115192   17.001424146   17.112839909   15.143492870
    1.176293823   17.034104688   17.155668384   15.104271983
    1.183472454   17.089337453   17.205015024   15.185805426
    1.190651085   17.151052208   17.256668023   15.290211176
    1.197829716   17.215445558   17.309877180   15.391494635
    1.205008347   17.282698400   17.365057938   15.486207099
    1.212186978   17.354103046   17.423000450   15.576166058
    1.219365609   17.431310496   17.484620644   15.664079486
    1.226544240   17.515815407   17.550553692   15.752336756
    1.233722871   17.607143346   17.619470869   15.841604282
    1.240901503   17.695562150   17.681413733   15.925694600
    1.248080134   17.741346119   17.698998842   15.976921975
    1.255258765   17.686306769   17.618136703   15.954392269
    1.262437396   17.627125392   17.526544116   15.927295467
    1.269616027   17.681175934   17.538818596   15.980705481
    1.276794658   17.751218799   17.607918283   16.052105290
    1.283973289   17.640566923   17.681120093   16.018038118
    1.291151920   17.240372256   17.738853991   15.797383803
    1.298330551   16.946441174   17.802951658   15.624616918
    1.305509182   16.940938280   17.879106163   15.634737040
    1.312687813   17.037648525   17.925648884   15.702368791
    1.319866444   17.125660354   17.899740306   15.739727429
    1.327045075   17.209613759   17.881407707   15.776597008
    1.334223706   17.313834301   17.945979073   15.854458876
    1.341402337   17.424317199   18.046482832   15.948242757
    1.348580968   17.522591578   18.115421774   16.025667494
    1.355759599   17.572855647   18.047014744   16.037677273
    1.362938230   17.526958912   17.835433177   15.963048922
    1.370116861   17.460999526   17.736200564   15.914432879
    1.377295492   17.485371388   17.792087469   15.949968246
    1.384474124   17.561689330   17.899696167   16.021369903
    1.391652755   17.641077166   18.001683155   16.091964513
    1.398831386   17.701444711   18.071131400   16.146247530
    1.406010017   17.757419919   18.135475721   16.195963885
    1.413188648   17.826075908   18.218647250   16.256426566
    1.420367279   17.886939082   18.259951613   16.321550192
    1.427545910   17.910470740   18.163521992   16.385392845
    1.434724541   17.919275504   18.015719893   16.448089999
    1.441903172   17.964510537   18.005019998   16.512299847
    1.449081803   18.034235575   18.086065094   16.578186389
    1.456260434   18.110184590   18.190072183   16.645731571
    1.463439065   18.186917720   18.295693469   16.715559203
    1.470617696   18.263884973   18.399682650   16.788521679
    1.477796327   18.341579608   18.502752849   16.865123251
    1.484974958   18.419819164   18.603738022   16.943596661
    1.492153589   18.494649673   18.690342908   17.012791025
    1.499332220   18.551396642   18.719522122   17.037287989
    1.506510851   18.573943421   18.649108007   16.994202971
    1.513689482   18.595960829   18.580285019   16.977345251
    1.520868114   18.655797088   18.611003774   17.035564202
    1.528046745   18.735329711   18.695092932   17.119940103
    1.535225376   18.801245432   18.773114579   17.170794654
    1.542404007   18.824895081   18.809430311   17.133864676
    1.549582638   18.845672668   18.839446684   17.088062398
    1.556761269   18.913008153   18.909442299   17.130022192
    1.563939900   19.004978529   18.997974651   17.207977099
    1.571118531   19.098593513   19.081493245   17.261200177
    1.578297162   19.194001296   19.161575685   17.299021356
    1.585475793   19.304030830   19.254507667   17.375863282
    1.592654424   19.428193075   19.358629119   17.482957532
    1.599833055   19.561126066   19.467571571   17.597241152
    1.607011686   19.689927577   19.572363095   17.694521733
    1.614190317   19.782799645   19.654103782   17.722279377
    1.621368948   19.793101585   19.703186413   17.642631179
    1.628547579   19.644451709   19.747581889   17.568977528
    1.635726210   19.368190801   19.795046168   17.568698861
    1.642904841   19.256814084   19.822028344   17.624507527
    1.650083472   19.300467412   19.720481217   17.698774531
    1.657262104   19.385525228   19.534538316   17.771838320
    1.664440735   19.524491478   19.512696762   17.874073872
    1.671619366   19.700032594   19.625893246   18.000130805
    1.678797997   19.888011113   19.779633717   18.136322654
    1.685976628   20.076001807   19.939937786   18.277886338
    1.693155259   20.240430953   20.093134582   18.420113752
    1.700333890   20.334165401   20.217612500   18.556604175
    1.707512521   20.259925577   20.273167866   18.666807724
    1.714691152   20.012903141   20.241224536   18.682946733
    1.721869783   19.782150657   20.090974728   18.499016457
    1.729048414   19.672877050   19.932880901   18.278072022
    1.736227045   19.770501536   19.961187423   18.299308128
    1.743405676   19.974859656   20.099702058   18.475807171
    1.750584307   20.198053431   20.258008795   18.701563357
    1.757762938   20.392169869   20.390300897   18.939247598
    1.764941569   20.533016122   20.480571861   19.167154559
    1.772120200   20.646625830   20.578271895   19.327264416
    1.779298831   20.604423355   20.676009305   19.175189531
    1.786477462   20.207117800   20.714891195   18.432783957
    1.793656093   19.845096364   20.760885587   17.743956986
    1.800834725   19.849019228   20.870834209   17.640138425
    1.808013356   20.014736944   20.970374632   17.791710896
    1.815191987   20.202492868   21.030598156   17.970482162
    1.822370618   20.397059936   21.117449402   18.147847356
    1.829549249   20.591996024   21.202703948   18.318902621
    1.836727880   20.775569042   21.204639191   18.490652913
    1.843906511   20.945796232   21.162202180   18.652243159
    1.851085142   21.095269998   21.208839293   18.782118718
    1.858263773   21.198411296   21.325330182   18.893344314
    1.865442404   21.305192585   21.488444512   19.032792587
    1.872621035   21.464060385   21.637494750   19.195491605
    1.879799666   21.618528506   21.663359405   19.342494483
    1.886978297   21.738962920   21.551451776   19.434315964
    1.894156928   21.820654651   21.488452572   19.466477399
    1.901335559   21.832660286   21.530369683   19.457098158
    1.908514190   21.805138731   21.652950063   19.506721550
    1.915692821   21.654976612   21.818361079   19.615857462
    1.922871452   21.523863112   21.994551114   19.742227491
    1.930050083   21.518138729   22.150655279   19.842167308
    1.937228715   21.502950499   22.269330927   19.882186129
    1.944407346   21.585515882   22.421253254   19.964959996
    1.951585977   21.743548799   22.605167155   20.059359366
    1.958764608   21.886521182   22.776376167   20.103408835
    1.965943239   22.040590665   22.909147280   20.176141526
    1.973121870   22.113802528   22.954515059   20.237672383
    1.980300501   22.043070692   22.881541963   20.219791348
    1.987479132   21.915108293   22.645625748   20.105472091
    1.994657763   21.828279681   22.436150553   19.995326078
    2.001836394   21.925673862   22.481527985   20.062865165
    2.009015025   22.134931671   22.699021703   20.206017938
    2.016193656   22.357610965   22.962076835   20.267546194
    2.023372287   22.576405158   23.202776030   20.304197145
    2.030550918   22.795819633   23.375797642   20.413868119
    2.037729549   22.982947466   23.476440073   20.516205247
    2.044908180   23.129270134   23.551960828   20.582879885
    2.052086811   23.299303303   23.718102326   20.712506490
    2.059265442   23.481738321   23.939696533   20.905907764
    2.066444073   23.617544336   24.081279210   21.108166521
    2.073622705   23.754369464   24.103723211   21.304549315
    2.080801336   23.926546094   24.079292810   21.466380275
    2.087979967   24.123356260   24.167226128   21.593046019
    2.095158598   24.332138868   24.362667714   21.758905951
    2.102337229   24.427832851   24.415807416   21.914751375
    2.109515860   24.258917023   24.089856777   21.929293629
    2.116694491   24.075743354   23.830697218   21.849103769
    2.123873122   24.119102896   23.970783258   21.874454452
    2.131051753   24.293256458   24.269013288   22.028507628
    2.138230384   24.453520754   24.560646058   22.200394158
    2.145409015   24.629339839   24.823242738   22.385607381
    2.152587646   24.812601888   25.046700784   22.536977659
    2.159766277   24.959998174   25.269877669   22.614127964
    2.166944908   25.154052894   25.527005556   22.731212138
    2.174123539   25.438463517   25.807462614   22.947815592
    2.181302170   25.645589797   25.958859855   23.079597127
    2.188480801   25.612046345   25.783672586   22.898160190
    2.195659432   25.584936798   25.664142602   22.666977648
    2.202838063   25.812538745   25.911152056   22.760813242
    2.210016694   26.149861316   26.277125329   23.070527028
    2.217195326   26.421005587   26.554122866   23.405684579
    2.224373957   26.583784948   26.607038727   23.664242132
    2.231552588   26.507602079   26.242138861   23.667140948
    2.238731219   25.992273292   25.576620637   23.258121452
    2.245909850   25.487180054   25.154925071   22.807881717
    2.253088481   25.536199655   25.260327153   22.727134373
    2.260267112   25.900558385   25.627116037   22.951598111
    2.267445743   26.295367011   25.993674398   23.286482996
    2.274624374   26.648608180   26.328874829   23.582827988
    2.281803005   26.977252311   26.668826324   23.810825841
    2.288981636   27.309462636   27.011671894   24.058614324
    2.296160267   27.673884854   27.381960541   24.294833083
    2.303338898   28.079339586   27.764741339   24.385851529
    2.310517529   28.402050548   28.012636219   24.475598978
    2.317696160   28.390823297   27.818122399   24.676292871
    2.324874791   28.201182031   27.442601783   24.910461576
    2.332053422   28.279916537   27.469126919   25.120638300
    2.339232053   28.475280067   27.702883696   25.194973667
    2.346410684   28.684588119   28.018994034   25.282529759
    2.353589316   28.977284156   28.406857135   25.460628222
    2.360767947   29.219375243   28.700620314   25.666792145
    2.367946578   29.328407644   28.927361338   25.799769348
    2.375125209   29.428167713   29.155494410   25.825685136
    2.382303840   29.454000146   29.228354104   25.967742795
    2.389482471   29.483079603   29.218909539   26.225901012
    2.396661102   29.683109358   29.071763493   26.488192611
    2.403839733   29.976074197   28.829694317   26.718971932
    2.411018364   30.373306657   28.957100666   26.970871790
    2.418196995   30.822830083   29.356347781   27.253535760
    2.425375626   31.239604718   29.779818447   27.586759701
    2.432554257   31.574570640   29.966789448   27.875691973
    2.439732888   31.619881813   29.937180669   27.980294619
    2.446911519   31.536221370   29.974990197   28.054942054
    2.454090150   31.855469126   30.340685376   28.379466441
    2.461268781   32.181574790   30.678332753   28.700199955
    2.468447412   32.080078258   30.604689560   28.860565517
    2.475626043   31.985061711   30.470157629   29.128326958
    2.482804674   32.222851544   30.551575690   29.446199283
    2.489983306   32.451981569   30.613522691   29.712208192
    2.497161937   32.590303592   30.811323634   29.819378042
    2.504340568   32.697616678   31.219799862   29.466683778
    2.511519199   32.391305383   31.733789176   28.380504586
    2.518697830   32.127869156   32.211700597   27.512788917
    2.525876461   32.310929878   32.351946644   27.650502192
    2.533055092   32.564085837   31.963786861   28.285010539
    2.540233723   33.066679289   31.870760531   29.071980594
