# energy grid [eV]     epsr_x  epsr_y  epsr_z
#
    0.200000000   13.428572420   10.892945340   14.297440349
    0.207178631   13.431713751   10.895321020   14.300876976
    0.214357262   13.434968032   10.897782236   14.304437170
    0.221535893   13.438335495   10.900329178   14.308121184
    0.228714524   13.441816381   10.902962043   14.311929283
    0.235893155   13.445410939   10.905681034   14.315861738
    0.243071786   13.449119429   10.908486363   14.319918832
    0.250250417   13.452942118   10.911378251   14.324100858
    0.257429048   13.456879283   10.914356924   14.328408117
    0.264607679   13.460931211   10.917422618   14.332840922
    0.271786311   13.465098196   10.920575576   14.337399596
    0.278964942   13.469380546   10.923816051   14.342084472
    0.286143573   13.473778573   10.927144302   14.346895893
    0.293322204   13.478292604   10.930560599   14.351834212
    0.300500835   13.482922974   10.934065219   14.356899796
    0.307679466   13.487670026   10.937658449   14.362093020
    0.314858097   13.492534117   10.941340585   14.367414270
    0.322036728   13.497515611   10.945111932   14.372863945
    0.329215359   13.502614886   10.948972804   14.378442455
    0.336393990   13.507832329   10.952923528   14.384150220
    0.343572621   13.513168338   10.956964435   14.389987674
    0.350751252   13.518623322   10.961095873   14.395955262
    0.357929883   13.524197703   10.965318196   14.402053441
    0.365108514   13.529891913   10.969631770   14.408282682
    0.372287145   13.535706397   10.974036973   14.414643467
    0.379465776   13.541641612   10.978534193   14.421136292
    0.386644407   13.547698027   10.983123831   14.427761666
    0.393823038   13.553876123   10.987806298   14.434520112
    0.401001669   13.560176396   10.992582021   14.441412166
    0.408180301   13.566599355   10.997451437   14.448438379
    0.415358932   13.573145521   11.002414996   14.455599315
    0.422537563   13.579815430   11.007473164   14.462895556
    0.429716194   13.586609634   11.012626418   14.470327695
    0.436894825   13.593528696   11.017875253   14.477896345
    0.444073456   13.600573197   11.023220176   14.485602131
    0.451252087   13.607743734   11.028661711   14.493445697
    0.458430718   13.615040918   11.034200400   14.501427704
    0.465609349   13.622465377   11.039836798   14.509548827
    0.472787980   13.630017758   11.045571480   14.517809764
    0.479966611   13.637698723   11.051405040   14.526211228
    0.487145242   13.645508954   11.057338088   14.534753951
    0.494323873   13.653449151   11.063371256   14.543438686
    0.501502504   13.661520033   11.069505197   14.552266205
    0.508681135   13.669722339   11.075740583   14.561237302
    0.515859766   13.678056831   11.082078111   14.570352792
    0.523038397   13.686524290   11.088518499   14.579613512
    0.530217028   13.695125521   11.095062493   14.589020324
    0.537395659   13.703861351   11.101710862   14.598574112
    0.544574290   13.712732634   11.108464404   14.608275786
    0.551752922   13.721740247   11.115323943   14.618126282
    0.558931553   13.730885093   11.122290336   14.628126564
    0.566110184   13.740168105   11.129364470   14.638277623
    0.573288815   13.749590244   11.136547266   14.648580480
    0.580467446   13.759152500   11.143839679   14.659036186
    0.587646077   13.768855897   11.151242704   14.669645828
    0.594824708   13.778701491   11.158757373   14.680410522
    0.602003339   13.788690374   11.166384761   14.691331424
    0.609181970   13.798823674   11.174125987   14.702409723
    0.616360601   13.809102559   11.181982220   14.713646652
    0.623539232   13.819528239   11.189954677   14.725043481
    0.630717863   13.830101966   11.198044628   14.736601528
    0.637896494   13.840825040   11.206253405   14.748322155
    0.645075125   13.851698809   11.214582398   14.760206774
    0.652253756   13.862724675   11.223033064   14.772256848
    0.659432387   13.873904094   11.231606934   14.784473897
    0.666611018   13.885238583   11.240305611   14.796859499
    0.673789649   13.896729723   11.249130785   14.809415296
    0.680968280   13.908379162   11.258084233   14.822142996
    0.688146912   13.920188625   11.267167829   14.835044380
    0.695325543   13.932159911   11.276383552   14.848121306
    0.702504174   13.944294910   11.285733495   14.861375717
    0.709682805   13.956595599   11.295219874   14.874809644
    0.716861436   13.969064061   11.304845042   14.888425215
    0.724040067   13.981702482   11.314611498   14.902224666
    0.731218698   13.994513170   11.324521904   14.916210343
    0.738397329   14.007498562   11.334579101   14.930384720
    0.745575960   14.020661236   11.344786124   14.944750404
    0.752754591   14.034003926   11.355146226   14.959310153
    0.759933222   14.047529535   11.365662898   14.974066886
    0.767111853   14.061241158   11.376339900   14.989023702
    0.774290484   14.075142098   11.387181284   15.004183899
    0.781469115   14.089235889   11.398191436   15.019550991
    0.788647746   14.103526325   11.409375109   15.035128740
    0.795826377   14.118017490   11.420737473   15.050921176
    0.803005008   14.132713793   11.432284168   15.066932633
    0.810183639   14.147620007   11.444021360   15.083167788
    0.817362270   14.162741320   11.455955818   15.099631699
    0.824540902   14.178083391   11.468094998   15.116329860
    0.831719533   14.193652411   11.480447136   15.133268258
    0.838898164   14.209455188   11.493021370   15.150453445
    0.846076795   14.225499231   11.505827876   15.167892617
    0.853255426   14.241792866   11.518878035   15.185593714
    0.860434057   14.258345367   11.532184628   15.203565537
    0.867612688   14.275167111   11.545762080   15.221817890
    0.874791319   14.292269775   11.559626748   15.240361752
    0.881969950   14.309666571   11.573797280   15.259209481
    0.889148581   14.327372538   11.588295051   15.278375078
    0.896327212   14.345404897   11.603144709   15.297874496
    0.903505843   14.363783508   11.618374855   15.317726041
    0.910684474   14.382531434   11.634018903   15.337950864
    0.917863105   14.401675662   11.650116166   15.358573597
    0.925041736   14.421248030   11.666713265   15.379623155
    0.932220367   14.441286426   11.683865940   15.401133786
    0.939398998   14.461836365   11.701641432   15.423146429
    0.946577629   14.482953066   11.720121644   15.445710531
    0.953756260   14.504704253   11.739407366   15.468886457
    0.960934891   14.527173942   11.759624022   15.492748770
    0.968113523   14.550467650   11.780929558   15.517390722
    0.975292154   14.574719628   11.803525400   15.542930491
    0.982470785   14.600103010   11.827671830   15.569519916
    0.989649416   14.626844136   11.853709686   15.597356809
    0.996828047   14.655242666   11.882090837   15.626702246
    1.004006678   14.685699090   11.913419871   15.657904192
    1.011185309   14.718749111   11.948506176   15.691427021
    1.018363940   14.755093785   11.988409633   15.727877452
    1.025542571   14.795571270   12.034397828   15.767980571
    1.032721202   14.840845594   12.087474619   15.812313922
    1.039899833   14.889910410   12.146113591   15.860028295
    1.047078464   14.933948700   12.196956464   15.903597250
    1.054257095   14.936269388   12.184420109   15.911660467
    1.061435726   14.818874326   11.990347619   15.817537175
    1.068614357   14.628708309   11.685852772   15.661395086
    1.075792988   14.555043721   11.557655432   15.605117889
    1.082971619   14.578394693   11.576238513   15.632076876
    1.090150250   14.628313455   11.634886681   15.682071885
    1.097328881   14.679791315   11.695720289   15.733770928
    1.104507513   14.727626318   11.750867102   15.782794480
    1.111686144   14.771676055   11.800123830   15.829109632
    1.118864775   14.812790449   11.844796895   15.873559321
    1.126043406   14.851860977   11.886264982   15.917059510
    1.133222037   14.889647464   11.925720686   15.960465247
    1.140400668   14.926787690   11.964190221   16.004597205
    1.147579299   14.963840943   12.002604311   16.050297777
    1.154757930   15.001322344   12.041847577   16.098459643
    1.161936561   15.039685178   12.082691293   16.149904930
    1.169115192   15.079103713   12.125264265   16.204644351
    1.176293823   15.118476617   12.166706444   16.258669147
    1.183472454   15.151804530   12.192694541   16.292405372
    1.190651085   15.162324807   12.163730624   16.252042503
    1.197829716   15.147474123   12.073353848   16.128786154
    1.205008347   15.153024265   12.027748410   16.067244008
    1.212186978   15.188295655   12.047874940   16.096039913
    1.219365609   15.235470604   12.091204828   16.157400639
    1.226544240   15.286788335   12.138735260   16.225575929
    1.233722871   15.340104910   12.185817124   16.294115651
    1.240901503   15.391481202   12.229876835   16.358165647
    1.248080134   15.423750878   12.261526738   16.398866495
    1.255258765   15.391185384   12.255318868   16.365546233
    1.262437396   15.291216066   12.210105586   16.255637534
    1.269616027   15.245561400   12.194820414   16.205223329
    1.276794658   15.272104963   12.219732209   16.234407834
    1.283973289   15.322622246   12.257753499   16.289443514
    1.291151920   15.376316087   12.297245740   16.347150415
    1.298330551   15.428477337   12.335626871   16.402263883
    1.305509182   15.478802030   12.372782258   16.454394395
    1.312687813   15.527935230   12.409116860   16.504166167
    1.319866444   15.576648874   12.445092366   16.552291604
    1.327045075   15.625689510   12.481141379   16.599389609
    1.334223706   15.675784855   12.517672189   16.645981169
    1.341402337   15.727665745   12.555091302   16.692521168
    1.348580968   15.781998342   12.593816837   16.739429733
    1.355759599   15.838919801   12.634237196   16.787102037
    1.362938230   15.896184427   12.676461757   16.835837583
    1.370116861   15.945482182   12.719567035   16.885473183
    1.377295492   15.979998369   12.760616391   16.934039178
    1.384474124   16.000827916   12.791531245   16.974501784
    1.391652755   15.986059537   12.804998868   16.999872003
    1.398831386   15.947745812   12.828918803   17.025728218
    1.406010017   15.931722284   12.879898619   17.066340124
    1.413188648   15.973698564   12.944888430   17.120832636
    1.420367279   16.042714492   13.006559303   17.177589361
    1.427545910   16.089124682   13.025543903   17.213652904
    1.434724541   16.064578536   12.940815892   17.197463024
    1.441903172   16.022023897   12.831005095   17.168206405
    1.449081803   16.051955668   12.823847859   17.190455888
    1.456260434   16.125496046   12.859440742   17.236855423
    1.463439065   16.208724316   12.874416976   17.277569432
    1.470617696   16.299311863   12.906965906   17.324233854
    1.477796327   16.399683411   12.982572020   17.385897597
    1.484974958   16.503473834   13.073832483   17.454191262
    1.492153589   16.586617623   13.145342443   17.522906894
    1.499332220   16.570824769   13.120298920   17.583754471
    1.506510851   16.371334321   12.928425273   17.619258106
    1.513689482   16.154368939   12.755956326   17.616840548
    1.520868114   16.090462765   12.740889066   17.614891887
    1.528046745   16.153453341   12.809747185   17.658568760
    1.535225376   16.264580982   12.900495228   17.729323823
    1.542404007   16.383678876   12.992371831   17.808579392
    1.549582638   16.493311828   13.079513569   17.890926524
    1.556761269   16.558929495   13.152298227   17.974093928
    1.563939900   16.504438359   13.188099608   18.053956674
    1.571118531   16.363197564   13.197980745   18.133285326
    1.578297162   16.328958880   13.239499519   18.221058121
    1.585475793   16.390740174   13.290082859   18.293100792
    1.592654424   16.466646078   13.277417639   18.286073953
    1.599833055   16.533364189   13.207096556   18.211149719
    1.607011686   16.601986815   13.198266002   18.197164353
    1.614190317   16.649929201   13.231918842   18.184485094
    1.621368948   16.658331420   13.248906997   18.084712469
    1.628547579   16.682436352   13.281317492   18.037987995
    1.635726210   16.741370002   13.322432892   18.079183319
    1.642904841   16.805279060   13.295609162   18.086894204
    1.650083472   16.864522544   13.214136195   18.048125788
    1.657262104   16.930146457   13.205697385   18.076505409
    1.664440735   17.001460153   13.262655106   18.164172242
    1.671619366   17.074066968   13.337047090   18.266630450
    1.678797997   17.146831715   13.411762057   18.368462798
    1.685976628   17.219770740   13.483498738   18.466875453
    1.693155259   17.291911559   13.551689544   18.560311585
    1.700333890   17.357361384   13.613349432   18.640289336
    1.707512521   17.400580152   13.659510270   18.683784572
    1.714691152   17.423993151   13.692274942   18.694451184
    1.721869783   17.469996607   13.738508026   18.735540539
    1.729048414   17.542381182   13.801032272   18.812274740
    1.736227045   17.625781730   13.870753990   18.901063053
    1.743405676   17.714104371   13.944353373   18.992582502
    1.750584307   17.804202832   14.020313658   19.084594166
    1.757762938   17.884863534   14.091795685   19.174372321
    1.764941569   17.915760120   14.132678377   19.251624365
    1.772120200   17.842296288   14.107025171   19.302130155
    1.779298831   17.761565068   14.077377426   19.352516930
    1.786477462   17.783734975   14.106477426   19.430216856
    1.793656093   17.850148871   14.123879007   19.508910954
    1.800834725   17.911701297   14.077892671   19.563646141
    1.808013356   17.978648764   14.040059887   19.596260283
    1.815191987   18.054844228   14.021426829   19.587822707
    1.822370618   18.136764222   14.030440067   19.593767811
    1.829549249   18.224892639   14.088868924   19.665345621
    1.836727880   18.311431364   14.165858561   19.764206517
    1.843906511   18.380726411   14.237704567   19.852714207
    1.851085142   18.415073822   14.293109390   19.907371196
    1.858263773   18.448261075   14.345230489   19.959865468
    1.865442404   18.516890196   14.409175618   20.045815879
    1.872621035   18.604860851   14.479181435   20.149760116
    1.879799666   18.698313784   14.550089761   20.257879889
    1.886978297   18.792857840   14.619735681   20.363744842
    1.894156928   18.886401985   14.685823185   20.460569632
    1.901335559   18.980842119   14.750604452   20.553334278
    1.908514190   19.080461267   14.820878034   20.659347135
    1.915692821   19.176377920   14.894151850   20.775209863
    1.922871452   19.235866800   14.959846586   20.885994348
    1.930050083   19.220582111   15.007094875   20.978795562
    1.937228715   19.209243526   15.058912773   21.079643848
    1.944407346   19.279060672   15.137204896   21.213251303
    1.951585977   19.388201818   15.225850215   21.359920280
    1.958764608   19.490347678   15.291940523   21.473677213
    1.965943239   19.538092449   15.272155475   21.459489542
    1.973121870   19.533579982   15.172595657   21.323799736
    1.980300501   19.570392547   15.144097596   21.281649465
    1.987479132   19.639361877   15.179440340   21.289035018
    1.994657763   19.705018210   15.219547338   21.258962852
    2.001836394   19.794547088   15.285907794   21.311115653
    2.009015025   19.906737271   15.373438279   21.450501686
    2.016193656   20.022951136   15.457129900   21.614264888
    2.023372287   20.139952596   15.538211944   21.780500610
    2.030550918   20.262508173   15.631550039   21.948903118
    2.037729549   20.390477314   15.734549248   22.120145231
    2.044908180   20.523361745   15.842776038   22.295137517
    2.052086811   20.661129530   15.953190479   22.473279193
    2.059265442   20.800235999   16.054470437   22.644415934
    2.066444073   20.925691580   16.114650873   22.777611635
    2.073622705   21.022626057   16.127382156   22.868566203
    2.080801336   21.130077371   16.166077147   22.980476593
    2.087979967   21.257211605   16.212919101   23.065542822
    2.095158598   21.307015635   16.176049483   23.045937769
    2.102337229   21.183597103   16.050796409   22.992495352
    2.109515860   21.068795280   15.986600724   23.022175621
    2.116694491   21.119920927   16.053923577   23.186416864
    2.123873122   21.223700547   16.174822316   23.400234091
    2.131051753   21.336902151   16.301477356   23.603881987
    2.138230384   21.431806607   16.411081925   23.718809331
    2.145409015   21.469690788   16.496925301   23.711845448
    2.152587646   21.558369529   16.595824640   23.795166199
    2.159766277   21.727289438   16.713498716   24.006813827
    2.166944908   21.924190639   16.822714954   24.208600293
    2.174123539   22.114181604   16.911697020   24.337641199
    2.181302170   22.269675910   16.975209989   24.371722815
    2.188480801   22.399890826   17.020369177   24.360393951
    2.195659432   22.492187127   17.065625037   24.379179195
    2.202838063   22.451309305   17.102877402   24.263430281
    2.210016694   22.364991654   17.166934298   24.068163171
    2.217195326   22.440465397   17.283438704   24.140964852
    2.224373957   22.625578742   17.412416948   24.388534549
    2.231552588   22.819535541   17.499939654   24.598687434
    2.238731219   22.983017376   17.557971142   24.726984041
    2.245909850   23.142963108   17.667018127   24.891053678
    2.253088481   23.298739199   17.819608995   25.062037452
    2.260267112   23.452279399   17.983977232   25.217084369
    2.267445743   23.628786672   18.141865452   25.417543256
    2.274624374   23.836618007   18.302253142   25.672995573
    2.281803005   24.061886217   18.476419352   25.953429397
    2.288981636   24.228328333   18.610356381   26.219355569
    2.296160267   24.215292466   18.567263951   26.360054369
    2.303338898   24.111686251   18.295609552   26.286381444
    2.310517529   24.177103531   18.040556737   26.202720234
    2.317696160   24.382132229   18.045024323   26.344143146
    2.324874791   24.620099563   18.197995883   26.576538590
    2.332053422   24.843015810   18.340805494   26.707745416
    2.339232053   25.034032984   18.449960836   26.785230252
    2.346410684   25.170409879   18.564915340   26.926086977
    2.353589316   25.289273031   18.708613590   27.157111378
    2.360767947   25.455995440   18.881521107   27.474388035
    2.367946578   25.692863096   19.084880178   27.834555495
    2.375125209   25.960931304   19.281946977   28.195241774
    2.382303840   26.157791466   19.373278901   28.499514606
    2.389482471   26.242499135   19.350467412   28.703308681
    2.396661102   26.318806124   19.412239236   28.853673926
    2.403839733   26.475056901   19.612404846   29.060287934
    2.411018364   26.664943386   19.876563402   29.307817208
    2.418196995   26.898733630   20.161168804   29.605818717
    2.425375626   27.200537548   20.419343637   29.957126243
    2.432554257   27.494469290   20.535324657   30.228068522
    2.439732888   27.726325741   20.395790933   30.358360427
    2.446911519   27.897240972   20.003451631   30.471225266
    2.454090150   28.100957369   19.709322477   30.723844213
    2.461268781   28.417829344   19.794973761   31.120759890
    2.468447412   28.786070334   20.058764053   31.528179519
    2.475626043   29.162299579   20.348637153   31.905416566
    2.482804674   29.564369146   20.660437016   32.359005510
    2.489983306   30.000652389   20.995379548   32.899215086
    2.497161937   30.448117203   21.326256444   33.461508138
    2.504340568   30.880569111   21.604831467   33.980106764
    2.511519199   31.279385551   21.730054065   34.357379546
    2.518697830   31.542896386   21.656898393   34.488690251
    2.525876461   31.535046546   21.509006327   34.436057494
    2.533055092   31.546192836   21.475962506   34.529363380
    2.540233723   31.850313344   21.674873908   34.934043667
