# energy grid [eV]     ieps_x  ieps_y  ieps_z
#
    0.200000000    7.242950271    7.230851970    1.863796889
    0.207178631    7.241475692    7.229356724    1.863581129
    0.214357262    7.239949919    7.227809597    1.863357972
    0.221535893    7.238373035    7.226210675    1.863127439
    0.228714524    7.236745126    7.224560047    1.862889551
    0.235893155    7.235066280    7.222857804    1.862644330
    0.243071786    7.233336586    7.221104043    1.862391799
    0.250250417    7.231556137    7.219298859    1.862131979
    0.257429048    7.229725031    7.217442354    1.861864896
    0.264607679    7.227843363    7.215534630    1.861590571
    0.271786311    7.225911237    7.213575792    1.861309031
    0.278964942    7.223928754    7.211565950    1.861020298
    0.286143573    7.221896021    7.209505213    1.860724398
    0.293322204    7.219813147    7.207393696    1.860421357
    0.300500835    7.217680242    7.205231514    1.860111201
    0.307679466    7.215497420    7.203018786    1.859793955
    0.314858097    7.213264798    7.200755634    1.859469646
    0.322036728    7.210982492    7.198442180    1.859138302
    0.329215359    7.208650625    7.196078552    1.858799949
    0.336393990    7.206269320    7.193664878    1.858454614
    0.343572621    7.203838703    7.191201289    1.858102327
    0.350751252    7.201358901    7.188687919    1.857743114
    0.357929883    7.198830045    7.186124905    1.857377005
    0.365108514    7.196252269    7.183512385    1.857004028
    0.372287145    7.193625707    7.180850499    1.856624212
    0.379465776    7.190950497    7.178139392    1.856237586
    0.386644407    7.188226778    7.175379209    1.855844180
    0.393823038    7.185454694    7.172570099    1.855444023
    0.401001669    7.182634388    7.169712210    1.855037146
    0.408180301    7.179766007    7.166805697    1.854623578
    0.415358932    7.176849700    7.163850714    1.854203349
    0.422537563    7.173885618    7.160847419    1.853776491
    0.429716194    7.170873913    7.157795970    1.853343033
    0.436894825    7.167814742    7.154696529    1.852903007
    0.444073456    7.164708262    7.151549260    1.852456444
    0.451252087    7.161554632    7.148354330    1.852003374
    0.458430718    7.158354015    7.145111905    1.851543830
    0.465609349    7.155106573    7.141822156    1.851077841
    0.472787980    7.151812473    7.138485255    1.850605441
    0.479966611    7.148471882    7.135101377    1.850126661
    0.487145242    7.145084970    7.131670698    1.849641531
    0.494323873    7.141651909    7.128193395    1.849150086
    0.501502504    7.138172873    7.124669650    1.848652355
    0.508681135    7.134648037    7.121099644    1.848148372
    0.515859766    7.131077578    7.117483561    1.847638169
    0.523038397    7.127461677    7.113821589    1.847121777
    0.530217028    7.123800514    7.110113913    1.846599230
    0.537395659    7.120094273    7.106360725    1.846070560
    0.544574290    7.116343137    7.102562215    1.845535799
    0.551752922    7.112547295    7.098718577    1.844994979
    0.558931553    7.108706934    7.094830007    1.844448135
    0.566110184    7.104822245    7.090896700    1.843895297
    0.573288815    7.100893418    7.086918857    1.843336500
    0.580467446    7.096920649    7.082896676    1.842771775
    0.587646077    7.092904132    7.078830360    1.842201157
    0.594824708    7.088844064    7.074720112    1.841624677
    0.602003339    7.084740643    7.070566139    1.841042368
    0.609181970    7.080594069    7.066368645    1.840454265
    0.616360601    7.076404545    7.062127841    1.839860399
    0.623539232    7.072172272    7.057843936    1.839260805
    0.630717863    7.067897456    7.053517141    1.838655514
    0.637896494    7.063580303    7.049147669    1.838044561
    0.645075125    7.059221021    7.044735735    1.837427978
    0.652253756    7.054819818    7.040281554    1.836805799
    0.659432387    7.050376904    7.035785344    1.836178057
    0.666611018    7.045892492    7.031247323    1.835544786
    0.673789649    7.041366795    7.026667712    1.834906018
    0.680968280    7.036800028    7.022046731    1.834261788
    0.688146912    7.032192405    7.017384604    1.833612128
    0.695325543    7.027544144    7.012681553    1.832957071
    0.702504174    7.022855464    7.007937805    1.832296653
    0.709682805    7.018126585    7.003153586    1.831630904
    0.716861436    7.013357726    6.998329123    1.830959861
    0.724040067    7.008549109    6.993464644    1.830283555
    0.731218698    7.003700959    6.988560381    1.829602020
    0.738397329    6.998813499    6.983616564    1.828915290
    0.745575960    6.993886955    6.978633424    1.828223398
    0.752754591    6.988921553    6.973611196    1.827526378
    0.759933222    6.983917521    6.968550113    1.826824263
    0.767111853    6.978875086    6.963450411    1.826117087
    0.774290484    6.973794480    6.958312326    1.825404884
    0.781469115    6.968675932    6.953136096    1.824687687
    0.788647746    6.963519673    6.947921957    1.823965530
    0.795826377    6.958325937    6.942670150    1.823238446
    0.803005008    6.953094956    6.937380915    1.822506469
    0.810183639    6.947826966    6.932054491    1.821769632
    0.817362270    6.942522200    6.926691122    1.821027969
    0.824540902    6.937180895    6.921291049    1.820281514
    0.831719533    6.931803287    6.915854516    1.819530301
    0.838898164    6.926389615    6.910381767    1.818774362
    0.846076795    6.920940116    6.904873046    1.818013732
    0.853255426    6.915455030    6.899328599    1.817248445
    0.860434057    6.909934596    6.893748672    1.816478533
    0.867612688    6.904379055    6.888133513    1.815704031
    0.874791319    6.898788647    6.882483368    1.814924971
    0.881969950    6.893163615    6.876798486    1.814141389
    0.889148581    6.887504201    6.871079116    1.813353316
    0.896327212    6.881810647    6.865325506    1.812560788
    0.903505843    6.876083198    6.859537907    1.811763837
    0.910684474    6.870322098    6.853716569    1.810962497
    0.917863105    6.864527591    6.847861742    1.810156802
    0.925041736    6.858699922    6.841973679    1.809346785
    0.932220367    6.852839337    6.836052630    1.808532479
    0.939398998    6.846946081    6.830098849    1.807713919
    0.946577629    6.841020402    6.824112587    1.806891138
    0.953756260    6.835062547    6.818094097    1.806064170
    0.960934891    6.829072762    6.812043634    1.805233047
    0.968113523    6.823051295    6.805961450    1.804397804
    0.975292154    6.816998395    6.799847800    1.803558473
    0.982470785    6.810914309    6.793702937    1.802715089
    0.989649416    6.804799286    6.787527117    1.801867684
    0.996828047    6.798653576    6.781320593    1.801016293
    1.004006678    6.792477426    6.775083622    1.800160948
    1.011185309    6.786271088    6.768816458    1.799301683
    1.018363940    6.780034809    6.762519356    1.798438532
    1.025542571    6.773768841    6.756192573    1.797571527
    1.032721202    6.767473433    6.749836363    1.796700701
    1.039899833    6.761148835    6.743450982    1.795826089
    1.047078464    6.754795298    6.737036687    1.794947724
    1.054257095    6.748413071    6.730593733    1.794065637
    1.061435726    6.742002405    6.724122376    1.793179864
    1.068614357    6.735563552    6.717622871    1.792290436
    1.075792988    6.729096761    6.711095476    1.791397388
    1.082971619    6.722602282    6.704540446    1.790500751
    1.090150250    6.716080367    6.697958037    1.789600560
    1.097328881    6.709531267    6.691348504    1.788696846
    1.104507513    6.702955231    6.684712104    1.787789644
    1.111686144    6.696352510    6.678049092    1.786878985
    1.118864775    6.689723355    6.671359724    1.785964904
    1.126043406    6.683068016    6.664644256    1.785047432
    1.133222037    6.676386743    6.657902942    1.784126602
    1.140400668    6.669679787    6.651136037    1.783202448
    1.147579299    6.662947397    6.644343798    1.782275001
    1.154757930    6.656189823    6.637526477    1.781344295
    1.161936561    6.649407315    6.630684331    1.780410362
    1.169115192    6.642600122    6.623817612    1.779473235
    1.176293823    6.635768493    6.616926576    1.778532946
    1.183472454    6.628912678    6.610011475    1.777589527
    1.190651085    6.622032925    6.603072564    1.776643011
    1.197829716    6.615129483    6.596110095    1.775693431
    1.205008347    6.608202599    6.589124321    1.774740818
    1.212186978    6.601252522    6.582115494    1.773785205
    1.219365609    6.594279499    6.575083867    1.772826623
    1.226544240    6.587283778    6.568029690    1.771865106
    1.233722871    6.580265605    6.560953217    1.770900684
    1.240901503    6.573225227    6.553854696    1.769933390
    1.248080134    6.566162889    6.546734379    1.768963256
    1.255258765    6.559078838    6.539592515    1.767990314
    1.262437396    6.551973319    6.532429354    1.767014595
    1.269616027    6.544846577    6.525245145    1.766036131
    1.276794658    6.537698855    6.518040137    1.765054954
    1.283973289    6.530530399    6.510814577    1.764071095
    1.291151920    6.523341451    6.503568713    1.763084585
    1.298330551    6.516132255    6.496302791    1.762095457
    1.305509182    6.508903053    6.489017059    1.761103741
    1.312687813    6.501654087    6.481711762    1.760109468
    1.319866444    6.494385598    6.474387144    1.759112670
    1.327045075    6.487097827    6.467043452    1.758113378
    1.334223706    6.479791015    6.459680928    1.757111622
    1.341402337    6.472465401    6.452299816    1.756107434
    1.348580968    6.465121225    6.444900359    1.755100845
    1.355759599    6.457758724    6.437482799    1.754091885
    1.362938230    6.450378138    6.430047377    1.753080585
    1.370116861    6.442979703    6.422594334    1.752066975
    1.377295492    6.435563655    6.415123910    1.751051086
    1.384474124    6.428130232    6.407636344    1.750032948
    1.391652755    6.420679668    6.400131875    1.749012592
    1.398831386    6.413212197    6.392610742    1.747990048
    1.406010017    6.405728055    6.385073180    1.746965346
    1.413188648    6.398227474    6.377519426    1.745938515
    1.420367279    6.390710686    6.369949717    1.744909587
    1.427545910    6.383177925    6.362364286    1.743878590
    1.434724541    6.375629420    6.354763369    1.742845554
    1.441903172    6.368065402    6.347147197    1.741810509
    1.449081803    6.360486101    6.339516005    1.740773485
    1.456260434    6.352891745    6.331870023    1.739734511
    1.463439065    6.345282563    6.324209482    1.738693616
    1.470617696    6.337658782    6.316534612    1.737650829
    1.477796327    6.330020629    6.308845643    1.736606180
    1.484974958    6.322368329    6.301142803    1.735559698
    1.492153589    6.314702107    6.293426318    1.734511411
    1.499332220    6.307022186    6.285696417    1.733461349
    1.506510851    6.299328792    6.277953324    1.732409539
    1.513689482    6.291622145    6.270197264    1.731356011
    1.520868114    6.283902467    6.262428461    1.730300794
    1.528046745    6.276169979    6.254647138    1.729243914
    1.535225376    6.268424900    6.246853518    1.728185401
    1.542404007    6.260667451    6.239047820    1.727125283
    1.549582638    6.252897848    6.231230267    1.726063588
    1.556761269    6.245116308    6.223401075    1.725000344
    1.563939900    6.237323049    6.215560465    1.723935578
    1.571118531    6.229518285    6.207708654    1.722869318
    1.578297162    6.221702231    6.199845857    1.721801592
    1.585475793    6.213875100    6.191972291    1.720732427
    1.592654424    6.206037105    6.184088169    1.719661851
    1.599833055    6.198188457    6.176193705    1.718589891
    1.607011686    6.190329368    6.168289113    1.717516573
    1.614190317    6.182460046    6.160374602    1.716441926
    1.621368948    6.174580701    6.152450383    1.715365975
    1.628547579    6.166691540    6.144516667    1.714288747
    1.635726210    6.158792770    6.136573662    1.713210270
    1.642904841    6.150884598    6.128621574    1.712130569
    1.650083472    6.142967228    6.120660611    1.711049671
    1.657262104    6.135040863    6.112690977    1.709967602
    1.664440735    6.127105708    6.104712878    1.708884388
    1.671619366    6.119161963    6.096726515    1.707800056
    1.678797997    6.111209829    6.088732093    1.706714631
    1.685976628    6.103249508    6.080729811    1.705628138
    1.693155259    6.095281196    6.072719870    1.704540604
    1.700333890    6.087305093    6.064702469    1.703452054
    1.707512521    6.079321395    6.056677807    1.702362514
    1.714691152    6.071330297    6.048646079    1.701272008
    1.721869783    6.063331996    6.040607482    1.700180561
    1.729048414    6.055326683    6.032562211    1.699088199
    1.736227045    6.047314553    6.024510459    1.697994947
    1.743405676    6.039295797    6.016452419    1.696900829
    1.750584307    6.031270605    6.008388283    1.695805870
    1.757762938    6.023239167    6.000318241    1.694710094
    1.764941569    6.015201672    5.992242482    1.693613525
    1.772120200    6.007158306    5.984161195    1.692516189
    1.779298831    5.999109257    5.976074567    1.691418108
    1.786477462    5.991054710    5.967982783    1.690319307
    1.793656093    5.982994848    5.959886030    1.689219809
    1.800834725    5.974929856    5.951784490    1.688119639
    1.808013356    5.966859915    5.943678347    1.687018819
    1.815191987    5.958785206    5.935567782    1.685917374
    1.822370618    5.950705910    5.927452976    1.684815326
    1.829549249    5.942622205    5.919334108    1.683712699
    1.836727880    5.934534269    5.911211357    1.682609515
    1.843906511    5.926442278    5.903084899    1.681505797
    1.851085142    5.918346410    5.894954910    1.680401569
    1.858263773    5.910246837    5.886821567    1.679296852
    1.865442404    5.902143734    5.878685041    1.678191670
    1.872621035    5.894037273    5.870545507    1.677086044
    1.879799666    5.885927625    5.862403136    1.675979997
    1.886978297    5.877814961    5.854258098    1.674873551
    1.894156928    5.869699449    5.846110563    1.673766727
    1.901335559    5.861581259    5.837960698    1.672659548
    1.908514190    5.853460555    5.829808671    1.671552034
    1.915692821    5.845337506    5.821654648    1.670444209
    1.922871452    5.837212274    5.813498794    1.669336093
    1.930050083    5.829085025    5.805341272    1.668227706
    1.937228715    5.820955920    5.797182245    1.667119071
    1.944407346    5.812825120    5.789021874    1.666010209
    1.951585977    5.804692788    5.780860320    1.664901139
    1.958764608    5.796559081    5.772697742    1.663791884
    1.965943239    5.788424157    5.764534298    1.662682463
    1.973121870    5.780288175    5.756370145    1.661572896
    1.980300501    5.772151290    5.748205439    1.660463205
    1.987479132    5.764013656    5.740040334    1.659353409
    1.994657763    5.755875428    5.731874985    1.658243528
    2.001836394    5.747736759    5.723709543    1.657133583
    2.009015025    5.739597799    5.715544160    1.656023592
    2.016193656    5.731458700    5.707378986    1.654913576
    2.023372287    5.723319611    5.699214170    1.653803554
    2.030550918    5.715180681    5.691049860    1.652693545
    2.037729549    5.707042056    5.682886204    1.651583569
    2.044908180    5.698903882    5.674723346    1.650473644
    2.052086811    5.690766305    5.666561432    1.649363790
    2.059265442    5.682629470    5.658400605    1.648254025
    2.066444073    5.674493518    5.650241007    1.647144368
    2.073622705    5.666358591    5.642082780    1.646034837
    2.080801336    5.658224831    5.633926064    1.644925452
    2.087979967    5.650092377    5.625770999    1.643816229
    2.095158598    5.641961367    5.617617721    1.642707188
    2.102337229    5.633831939    5.609466368    1.641598346
    2.109515860    5.625704230    5.601317076    1.640489721
    2.116694491    5.617578375    5.593169980    1.639381330
    2.123873122    5.609454508    5.585025213    1.638273193
    2.131051753    5.601332762    5.576882908    1.637165325
    2.138230384    5.593213270    5.568743195    1.636057744
    2.145409015    5.585096162    5.560606207    1.634950467
    2.152587646    5.576981569    5.552472071    1.633843512
    2.159766277    5.568869620    5.544340916    1.632736895
    2.166944908    5.560760442    5.536212869    1.631630633
    2.174123539    5.552654163    5.528088056    1.630524743
    2.181302170    5.544550908    5.519966602    1.629419241
    2.188480801    5.536450802    5.511848632    1.628314143
    2.195659432    5.528353968    5.503734267    1.627209467
    2.202838063    5.520260530    5.495623630    1.626105227
    2.210016694    5.512170608    5.487516841    1.625001441
    2.217195326    5.504084325    5.479414021    1.623898123
    2.224373957    5.496001798    5.471315287    1.622795290
    2.231552588    5.487923147    5.463220757    1.621692958
    2.238731219    5.479848489    5.455130548    1.620591140
    2.245909850    5.471777941    5.447044775    1.619489854
    2.253088481    5.463711617    5.438963552    1.618389114
    2.260267112    5.455649633    5.430886994    1.617288936
    2.267445743    5.447592101    5.422815212    1.616189334
    2.274624374    5.439539135    5.414748318    1.615090322
    2.281803005    5.431490846    5.406686422    1.613991917
    2.288981636    5.423447343    5.398629633    1.612894132
    2.296160267    5.415408736    5.390578059    1.611796982
    2.303338898    5.407375134    5.382531809    1.610700481
    2.310517529    5.399346644    5.374490987    1.609604644
    2.317696160    5.391323372    5.366455700    1.608509484
    2.324874791    5.383305424    5.358426051    1.607415015
    2.332053422    5.375292904    5.350402144    1.606321252
    2.339232053    5.367285916    5.342384082    1.605228207
    2.346410684    5.359284561    5.334371964    1.604135895
    2.353589316    5.351288942    5.326365892    1.603044329
    2.360767947    5.343299159    5.318365965    1.601953523
    2.367946578    5.335315311    5.310372280    1.600863489
    2.375125209    5.327337497    5.302384937    1.599774240
    2.382303840    5.319365815    5.294404030    1.598685790
    2.389482471    5.311400361    5.286429655    1.597598151
    2.396661102    5.303441231    5.278461907    1.596511337
    2.403839733    5.295488519    5.270500879    1.595425359
    2.411018364    5.287542320    5.262546663    1.594340231
    2.418196995    5.279602726    5.254599352    1.593255964
    2.425375626    5.271669829    5.246659036    1.592172571
    2.432554257    5.263743720    5.238725804    1.591090064
    2.439732888    5.255824490    5.230799745    1.590008455
    2.446911519    5.247912227    5.222880947    1.588927755
    2.454090150    5.240007019    5.214969498    1.587847978
    2.461268781    5.232108954    5.207065482    1.586769133
    2.468447412    5.224218119    5.199168985    1.585691234
    2.475626043    5.216334599    5.191280091    1.584614291
    2.482804674    5.208458477    5.183398884    1.583538315
    2.489983306    5.200589839    5.175525446    1.582463318
    2.497161937    5.192728767    5.167659857    1.581389311
    2.504340568    5.184875343    5.159802199    1.580316305
    2.511519199    5.177029647    5.151952552    1.579244310
    2.518697830    5.169191760    5.144110993    1.578173338
    2.525876461    5.161361762    5.136277601    1.577103399
    2.533055092    5.153539730    5.128452453    1.576034504
    2.540233723    5.145725742    5.120635626    1.574966663
