# energy grid [eV]     ieps_x  ieps_y  ieps_z
#
    0.200000000    9.068101789    8.572887992    8.081381766
    0.207178631    9.066083213    8.571023409    8.079719829
    0.214357262    9.063994592    8.569094109    8.078000158
    0.221535893    9.061836043    8.567100197    8.076222842
    0.228714524    9.059607685    8.565041783    8.074387973
    0.235893155    9.057309643    8.562918980    8.072495646
    0.243071786    9.054942045    8.560731904    8.070545960
    0.250250417    9.052505021    8.558480675    8.068539014
    0.257429048    9.049998709    8.556165415    8.066474914
    0.264607679    9.047423245    8.553786252    8.064353764
    0.271786311    9.044778773    8.551343314    8.062175676
    0.278964942    9.042065440    8.548836736    8.059940760
    0.286143573    9.039283394    8.546266652    8.057649133
    0.293322204    9.036432790    8.543633204    8.055300911
    0.300500835    9.033513785    8.540936533    8.052896216
    0.307679466    9.030526538    8.538176787    8.050435170
    0.314858097    9.027471216    8.535354114    8.047917900
    0.322036728    9.024347984    8.532468667    8.045344535
    0.329215359    9.021157015    8.529520602    8.042715206
    0.336393990    9.017898482    8.526510077    8.040030047
    0.343572621    9.014572565    8.523437256    8.037289195
    0.350751252    9.011179445    8.520302303    8.034492790
    0.357929883    9.007719306    8.517105386    8.031640973
    0.365108514    9.004192336    8.513846677    8.028733891
    0.372287145    9.000598729    8.510526351    8.025771689
    0.379465776    8.996938678    8.507144584    8.022754517
    0.386644407    8.993212381    8.503701557    8.019682530
    0.393823038    8.989420041    8.500197454    8.016555880
    0.401001669    8.985561862    8.496632460    8.013374727
    0.408180301    8.981638051    8.493006766    8.010139229
    0.415358932    8.977648821    8.489320564    8.006849550
    0.422537563    8.973594384    8.485574048    8.003505854
    0.429716194    8.969474959    8.481767416    8.000108309
    0.436894825    8.965290767    8.477900869    7.996657084
    0.444073456    8.961042029    8.473974610    7.993152352
    0.451252087    8.956728973    8.469988847    7.989594288
    0.458430718    8.952351829    8.465943787    7.985983068
    0.465609349    8.947910829    8.461839643    7.982318871
    0.472787980    8.943406208    8.457676629    7.978601880
    0.479966611    8.938838205    8.453454961    7.974832277
    0.487145242    8.934207060    8.449174860    7.971010249
    0.494323873    8.929513018    8.444836547    7.967135984
    0.501502504    8.924756326    8.440440249    7.963209673
    0.508681135    8.919937232    8.435986190    7.959231508
    0.515859766    8.915055990    8.431474603    7.955201685
    0.523038397    8.910112854    8.426905718    7.951120399
    0.530217028    8.905108082    8.422279771    7.946987851
    0.537395659    8.900041934    8.417596999    7.942804242
    0.544574290    8.894914673    8.412857641    7.938569774
    0.551752922    8.889726565    8.408061939    7.934284653
    0.558931553    8.884477877    8.403210137    7.929949086
    0.566110184    8.879168879    8.398302482    7.925563283
    0.573288815    8.873799846    8.393339222    7.921127454
    0.580467446    8.868371051    8.388320608    7.916641813
    0.587646077    8.862882773    8.383246894    7.912106575
    0.594824708    8.857335292    8.378118335    7.907521957
    0.602003339    8.851728890    8.372935187    7.902888178
    0.609181970    8.846063852    8.367697711    7.898205458
    0.616360601    8.840340464    8.362406169    7.893474020
    0.623539232    8.834559017    8.357060822    7.888694088
    0.630717863    8.828719800    8.351661938    7.883865888
    0.637896494    8.822823108    8.346209784    7.878989648
    0.645075125    8.816869236    8.340704629    7.874065596
    0.652253756    8.810858481    8.335146745    7.869093965
    0.659432387    8.804791143    8.329536404    7.864074987
    0.666611018    8.798667524    8.323873882    7.859008896
    0.673789649    8.792487928    8.318159455    7.853895928
    0.680968280    8.786252659    8.312393403    7.848736321
    0.688146912    8.779962025    8.306576006    7.843530314
    0.695325543    8.773616335    8.300707544    7.838278147
    0.702504174    8.767215900    8.294788304    7.832980062
    0.709682805    8.760761033    8.288818568    7.827636303
    0.716861436    8.754252048    8.282798626    7.822247114
    0.724040067    8.747689261    8.276728764    7.816812743
    0.731218698    8.741072991    8.270609273    7.811333436
    0.738397329    8.734403557    8.264440445    7.805809443
    0.745575960    8.727681279    8.258222572    7.800241015
    0.752754591    8.720906480    8.251955949    7.794628402
    0.759933222    8.714079484    8.245640872    7.788971857
    0.767111853    8.707200617    8.239277637    7.783271636
    0.774290484    8.700270206    8.232866544    7.777527993
    0.781469115    8.693288578    8.226407892    7.771741185
    0.788647746    8.686256065    8.219901981    7.765911469
    0.795826377    8.679172996    8.213349116    7.760039104
    0.803005008    8.672039704    8.206749598    7.754124351
    0.810183639    8.664856523    8.200103732    7.748167470
    0.817362270    8.657623787    8.193411824    7.742168724
    0.824540902    8.650341832    8.186674182    7.736128375
    0.831719533    8.643010995    8.179891112    7.730046687
    0.838898164    8.635631616    8.173062925    7.723923926
    0.846076795    8.628204031    8.166189929    7.717760358
    0.853255426    8.620728583    8.159272436    7.711556249
    0.860434057    8.613205612    8.152310757    7.705311867
    0.867612688    8.605635461    8.145305205    7.699027481
    0.874791319    8.598018472    8.138256095    7.692703361
    0.881969950    8.590354990    8.131163739    7.686339776
    0.889148581    8.582645360    8.124028454    7.679936997
    0.896327212    8.574889926    8.116850556    7.673495297
    0.903505843    8.567089037    8.109630360    7.667014949
    0.910684474    8.559243038    8.102368186    7.660496224
    0.917863105    8.551352278    8.095064350    7.653939397
    0.925041736    8.543417106    8.087719172    7.647344743
    0.932220367    8.535437870    8.080332970    7.640712537
    0.939398998    8.527414920    8.072906066    7.634043054
    0.946577629    8.519348608    8.065438779    7.627336571
    0.953756260    8.511239283    8.057931430    7.620593365
    0.960934891    8.503087297    8.050384341    7.613813713
    0.968113523    8.494893003    8.042797834    7.606997893
    0.975292154    8.486656752    8.035172231    7.600146183
    0.982470785    8.478378898    8.027507855    7.593258862
    0.989649416    8.470059792    8.019805029    7.586336209
    0.996828047    8.461699790    8.012064077    7.579378505
    1.004006678    8.453299244    8.004285323    7.572386028
    1.011185309    8.444858509    7.996469089    7.565359059
    1.018363940    8.436377939    7.988615702    7.558297878
    1.025542571    8.427857888    7.980725485    7.551202767
    1.032721202    8.419298711    7.972798764    7.544074007
    1.039899833    8.410700763    7.964835862    7.536911879
    1.047078464    8.402064399    7.956837105    7.529716664
    1.054257095    8.393389974    7.948802818    7.522488645
    1.061435726    8.384677842    7.940733327    7.515228104
    1.068614357    8.375928359    7.932628957    7.507935322
    1.075792988    8.367141880    7.924490032    7.500610581
    1.082971619    8.358318760    7.916316878    7.493254165
    1.090150250    8.349459354    7.908109821    7.485866356
    1.097328881    8.340564016    7.899869185    7.478447436
    1.104507513    8.331633102    7.891595296    7.470997687
    1.111686144    8.322666965    7.883288479    7.463517392
    1.118864775    8.313665961    7.874949058    7.456006834
    1.126043406    8.304630444    7.866577359    7.448466296
    1.133222037    8.295560766    7.858173705    7.440896058
    1.140400668    8.286457283    7.849738421    7.433296405
    1.147579299    8.277320347    7.841271831    7.425667618
    1.154757930    8.268150312    7.832774258    7.418009979
    1.161936561    8.258947529    7.824246027    7.410323770
    1.169115192    8.249712352    7.815687461    7.402609273
    1.176293823    8.240445132    7.807098881    7.394866770
    1.183472454    8.231146221    7.798480611    7.387096542
    1.190651085    8.221815969    7.789832973    7.379298870
    1.197829716    8.212454727    7.781156288    7.371474035
    1.205008347    8.203062846    7.772450878    7.363622319
    1.212186978    8.193640674    7.763717063    7.355744000
    1.219365609    8.184188561    7.754955164    7.347839360
    1.226544240    8.174706854    7.746165501    7.339908679
    1.233722871    8.165195902    7.737348392    7.331952235
    1.240901503    8.155656052    7.728504157    7.323970307
    1.248080134    8.146087650    7.719633113    7.315963175
    1.255258765    8.136491042    7.710735579    7.307931117
    1.262437396    8.126866572    7.701811870    7.299874410
    1.269616027    8.117214586    7.692862305    7.291793332
    1.276794658    8.107535427    7.683887197    7.283688160
    1.283973289    8.097829437    7.674886863    7.275559170
    1.291151920    8.088096959    7.665861617    7.267406639
    1.298330551    8.078338334    7.656811772    7.259230841
    1.305509182    8.068553902    7.647737641    7.251032053
    1.312687813    8.058744004    7.638639536    7.242810548
    1.319866444    8.048908976    7.629517769    7.234566600
    1.327045075    8.039049159    7.620372650    7.226300483
    1.334223706    8.029164887    7.611204489    7.218012469
    1.341402337    8.019256498    7.602013595    7.209702830
    1.348580968    8.009324326    7.592800277    7.201371838
    1.355759599    7.999368705    7.583564841    7.193019764
    1.362938230    7.989389968    7.574307594    7.184646877
    1.370116861    7.979388447    7.565028841    7.176253448
    1.377295492    7.969364474    7.555728888    7.167839746
    1.384474124    7.959318378    7.546408037    7.159406038
    1.391652755    7.949250489    7.537066591    7.150952591
    1.398831386    7.939161133    7.527704853    7.142479673
    1.406010017    7.929050638    7.518323123    7.133987550
    1.413188648    7.918919329    7.508921701    7.125476486
    1.420367279    7.908767531    7.499500886    7.116946747
    1.427545910    7.898595568    7.490060976    7.108398595
    1.434724541    7.888403761    7.480602267    7.099832294
    1.441903172    7.878192431    7.471125055    7.091248106
    1.449081803    7.867961899    7.461629635    7.082646291
    1.456260434    7.857712483    7.452116301    7.074027112
    1.463439065    7.847444500    7.442585344    7.065390826
    1.470617696    7.837158267    7.433037058    7.056737692
    1.477796327    7.826854098    7.423471731    7.048067969
    1.484974958    7.816532308    7.413889653    7.039381914
    1.492153589    7.806193208    7.404291113    7.030679782
    1.499332220    7.795837110    7.394676397    7.021961828
    1.506510851    7.785464324    7.385045790    7.013228308
    1.513689482    7.775075158    7.375399578    7.004479473
    1.520868114    7.764669920    7.365738044    6.995715578
    1.528046745    7.754248915    7.356061471    6.986936872
    1.535225376    7.743812448    7.346370138    6.978143606
    1.542404007    7.733360822    7.336664326    6.969336031
    1.549582638    7.722894338    7.326944314    6.960514394
    1.556761269    7.712413298    7.317210379    6.951678942
    1.563939900    7.701918001    7.307462797    6.942829924
    1.571118531    7.691408743    7.297701843    6.933967583
    1.578297162    7.680885822    7.287927791    6.925092165
    1.585475793    7.670349532    7.278140912    6.916203913
    1.592654424    7.659800166    7.268341478    6.907303069
    1.599833055    7.649238017    7.258529758    6.898389876
    1.607011686    7.638663375    7.248706022    6.889464572
    1.614190317    7.628076529    7.238870536    6.880527399
    1.621368948    7.617477767    7.229023565    6.871578593
    1.628547579    7.606867374    7.219165376    6.862618392
    1.635726210    7.596245636    7.209296230    6.853647032
    1.642904841    7.585612835    7.199416389    6.844664749
    1.650083472    7.574969254    7.189526114    6.835671775
    1.657262104    7.564315173    7.179625665    6.826668344
    1.664440735    7.553650869    7.169715298    6.817654688
    1.671619366    7.542976621    7.159795271    6.808631037
    1.678797997    7.532292704    7.149865838    6.799597621
    1.685976628    7.521599392    7.139927253    6.790554667
    1.693155259    7.510896957    7.129979768    6.781502404
    1.700333890    7.500185671    7.120023635    6.772441057
    1.707512521    7.489465804    7.110059102    6.763370851
    1.714691152    7.478737622    7.100086418    6.754292010
    1.721869783    7.468001393    7.090105830    6.745204756
    1.729048414    7.457257382    7.080117583    6.736109312
    1.736227045    7.446505851    7.070121920    6.727005896
    1.743405676    7.435747063    7.060119085    6.717894729
    1.750584307    7.424981277    7.050109318    6.708776029
    1.757762938    7.414208752    7.040092859    6.699650011
    1.764941569    7.403429746    7.030069945    6.690516892
    1.772120200    7.392644512    7.020040815    6.681376887
    1.779298831    7.381853307    7.010005703    6.672230207
    1.786477462    7.371056380    6.999964844    6.663077066
    1.793656093    7.360253984    6.989918468    6.653917674
    1.800834725    7.349446367    6.979866809    6.644752241
    1.808013356    7.338633777    6.969810095    6.635580975
    1.815191987    7.327816460    6.959748554    6.626404083
    1.822370618    7.316994659    6.949682413    6.617221771
    1.829549249    7.306168617    6.939611897    6.608034245
    1.836727880    7.295338577    6.929537230    6.598841707
    1.843906511    7.284504776    6.919458635    6.589644360
    1.851085142    7.273667453    6.909376331    6.580442405
    1.858263773    7.262826843    6.899290540    6.571236042
    1.865442404    7.251983183    6.889201477    6.562025470
    1.872621035    7.241136704    6.879109361    6.552810885
    1.879799666    7.230287638    6.869014406    6.543592485
    1.886978297    7.219436215    6.858916825    6.534370464
    1.894156928    7.208582663    6.848816832    6.525145016
    1.901335559    7.197727209    6.838714635    6.515916334
    1.908514190    7.186870077    6.828610445    6.506684608
    1.915692821    7.176011490    6.818504469    6.497450029
    1.922871452    7.165151672    6.808396913    6.488212785
    1.930050083    7.154290841    6.798287983    6.478973065
    1.937228715    7.143429217    6.788177881    6.469731054
    1.944407346    7.132567015    6.778066809    6.460486937
    1.951585977    7.121704452    6.767954969    6.451240898
    1.958764608    7.110841741    6.757842557    6.441993121
    1.965943239    7.099979095    6.747729773    6.432743786
    1.973121870    7.089116723    6.737616813    6.423493073
    1.980300501    7.078254834    6.727503869    6.414241161
    1.987479132    7.067393637    6.717391137    6.404988228
    1.994657763    7.056533336    6.707278807    6.395734450
    2.001836394    7.045674136    6.697167070    6.386480003
    2.009015025    7.034816239    6.687056114    6.377225059
    2.016193656    7.023959846    6.676946127    6.367969793
    2.023372287    7.013105156    6.666837294    6.358714375
    2.030550918    7.002252367    6.656729800    6.349458976
    2.037729549    6.991401676    6.646623828    6.340203764
    2.044908180    6.980553277    6.636519559    6.330948907
    2.052086811    6.969707362    6.626417174    6.321694572
    2.059265442    6.958864124    6.616316851    6.312440924
    2.066444073    6.948023751    6.606218767    6.303188127
    2.073622705    6.937186433    6.596123098    6.293936344
    2.080801336    6.926352357    6.586030018    6.284685736
    2.087979967    6.915521706    6.575939701    6.275436464
    2.095158598    6.904694665    6.565852317    6.266188686
    2.102337229    6.893871416    6.555768037    6.256942561
    2.109515860    6.883052139    6.545687030    6.247698245
    2.116694491    6.872237013    6.535609462    6.238455894
    2.123873122    6.861426217    6.525535500    6.229215661
    2.131051753    6.850619924    6.515465307    6.219977701
    2.138230384    6.839818310    6.505399048    6.210742164
    2.145409015    6.829021548    6.495336883    6.201509202
    2.152587646    6.818229809    6.485278973    6.192278963
    2.159766277    6.807443263    6.475225477    6.183051596
    2.166944908    6.796662077    6.465176551    6.173827248
    2.174123539    6.785886419    6.455132353    6.164606064
    2.181302170    6.775116454    6.445093037    6.155388190
    2.188480801    6.764352345    6.435058756    6.146173768
    2.195659432    6.753594255    6.425029662    6.136962940
    2.202838063    6.742842344    6.415005906    6.127755848
    2.210016694    6.732096772    6.404987636    6.118552631
    2.217195326    6.721357696    6.394975001    6.109353429
    2.224373957    6.710625273    6.384968148    6.100158377
    2.231552588    6.699899657    6.374967220    6.090967614
    2.238731219    6.689181003    6.364972363    6.081781273
    2.245909850    6.678469460    6.354983719    6.072599489
    2.253088481    6.667765181    6.345001428    6.063422394
    2.260267112    6.657068314    6.335025631    6.054250120
    2.267445743    6.646379006    6.325056466    6.045082797
    2.274624374    6.635697405    6.315094070    6.035920555
    2.281803005    6.625023653    6.305138580    6.026763522
    2.288981636    6.614357895    6.295190128    6.017611824
    2.296160267    6.603700272    6.285248850    6.008465588
    2.303338898    6.593050925    6.275314876    5.999324938
    2.310517529    6.582409992    6.265388338    5.990189998
    2.317696160    6.571777612    6.255469365    5.981060890
    2.324874791    6.561153920    6.245558084    5.971937735
    2.332053422    6.550539051    6.235654623    5.962820654
    2.339232053    6.539933139    6.225759106    5.953709765
    2.346410684    6.529336316    6.215871660    5.944605187
    2.353589316    6.518748712    6.205992405    5.935507035
    2.360767947    6.508170456    6.196121465    5.926415427
    2.367946578    6.497601677    6.186258959    5.917330476
    2.375125209    6.487042501    6.176405007    5.908252296
    2.382303840    6.476493053    6.166559726    5.899180999
    2.389482471    6.465953457    6.156723234    5.890116697
    2.396661102    6.455423836    6.146895646    5.881059500
    2.403839733    6.444904311    6.137077077    5.872009517
    2.411018364    6.434395002    6.127267639    5.862966855
    2.418196995    6.423896027    6.117467444    5.853931623
    2.425375626    6.413407504    6.107676603    5.844903925
    2.432554257    6.402929548    6.097895226    5.835883867
    2.439732888    6.392462274    6.088123420    5.826871552
    2.446911519    6.382005797    6.078361294    5.817867083
    2.454090150    6.371560227    6.068608952    5.808870562
    2.461268781    6.361125676    6.058866500    5.799882090
    2.468447412    6.350702253    6.049134041    5.790901765
    2.475626043    6.340290066    6.039411677    5.781929687
    2.482804674    6.329889223    6.029699510    5.772965953
    2.489983306    6.319499830    6.019997641    5.764010660
    2.497161937    6.309121990    6.010306167    5.755063902
    2.504340568    6.298755808    6.000625186    5.746125775
    2.511519199    6.288401385    5.990954797    5.737196372
    2.518697830    6.278058823    5.981295093    5.728275785
    2.525876461    6.267728220    5.971646170    5.719364105
    2.533055092    6.257409676    5.962008120    5.710461424
    2.540233723    6.247103287    5.952381037    5.701567830
