# energy grid [eV]     epsr_x  epsr_y  epsr_z
#
    0.200000000   17.627082016   17.265828543    8.336465372
    0.207178631   17.631697662   17.270494158    8.338320705
    0.214357262   17.636480233   17.275330183    8.340245341
    0.221535893   17.641430185   17.280337283    8.342239733
    0.228714524   17.646547994   17.285516157    8.344304357
    0.235893155   17.651834155   17.290867539    8.346439717
    0.243071786   17.657289184   17.296392197    8.348646342
    0.250250417   17.662913620   17.302090938    8.350924791
    0.257429048   17.668708020   17.307964607    8.353275654
    0.264607679   17.674672969   17.314014090    8.355699552
    0.271786311   17.680809070   17.320240316    8.358197139
    0.278964942   17.687116955   17.326644258    8.360769106
    0.286143573   17.693597277   17.333226938    8.363416183
    0.293322204   17.700250717   17.339989427    8.366139138
    0.300500835   17.707077984   17.346932847    8.368938783
    0.307679466   17.714079814   17.354058379    8.371815976
    0.314858097   17.721256972   17.361367260    8.374771623
    0.322036728   17.728610253   17.368860790    8.377806682
    0.329215359   17.736140487   17.376540337    8.380922167
    0.336393990   17.743848536   17.384407338    8.384119152
    0.343572621   17.751735296   17.392463306    8.387398774
    0.350751252   17.759801702   17.400709835    8.390762239
    0.357929883   17.768048727   17.409148605    8.394210828
    0.365108514   17.776477388   17.417781389    8.397745900
    0.372287145   17.785088742   17.426610059    8.401368901
    0.379465776   17.793883896   17.435636593    8.405081370
    0.386644407   17.802864004   17.444863087    8.408884947
    0.393823038   17.812030274   17.454291760    8.412781383
    0.401001669   17.821383972   17.463924968    8.416772545
    0.408180301   17.830926421   17.473765212    8.420860434
    0.415358932   17.840659011   17.483815153    8.425047189
    0.422537563   17.850583201   17.494077629    8.429335106
    0.429716194   17.860700527   17.504555664    8.433726651
    0.436894825   17.871012605   17.515252495    8.438224476
    0.444073456   17.881521139   17.526171586    8.442831439
    0.451252087   17.892227931   17.537316651    8.447550626
    0.458430718   17.903134886   17.548691686    8.452385371
    0.465609349   17.914244028   17.560300991    8.457339288
    0.472787980   17.925557503   17.572149211    8.462416298
    0.479966611   17.937077598   17.584241367    8.467620669
    0.487145242   17.948806756   17.596582905    8.472957050
    0.494323873   17.960747587   17.609179744    8.478430521
    0.501502504   17.972902894   17.622038334    8.484046647
    0.508681135   17.985275691   17.635165724    8.489811535
    0.515859766   17.997869231   17.648569638    8.495731909
    0.523038397   18.010687033   17.662258565    8.501815190
    0.530217028   18.023732921   17.676241864    8.508069595
    0.537395659   18.037011062   17.690529889    8.514504246
    0.544574290   18.050526012   17.705134132    8.521129304
    0.551752922   18.064282779   17.720067396    8.527956127
    0.558931553   18.078286884   17.735343996    8.534997456
    0.566110184   18.092544444   17.750980008    8.542267636
    0.573288815   18.107062268   17.766993556    8.549782887
    0.580467446   18.121847973   17.783405171    8.557561619
    0.587646077   18.136910126   17.800238215    8.565624830
    0.594824708   18.152258415   17.817519409    8.573996581
    0.602003339   18.167903860   17.835279477    8.582704585
    0.609181970   18.183859078   17.853553949    8.591780935
    0.616360601   18.200138609   17.872384157    8.601263010
    0.623539232   18.216759326   17.891818498    8.611194626
    0.630717863   18.233740962   17.911914028    8.621627478
    0.637896494   18.251106775   17.932738507    8.632623008
    0.645075125   18.268884416   17.954373051    8.644254799
    0.652253756   18.287107060   17.976915589    8.656611720
    0.659432387   18.305814897   18.000485434    8.669802068
    0.666611018   18.325057128   18.025229386    8.683959106
    0.673789649   18.344894661   18.051329994    8.699248543
    0.680968280   18.365403799   18.079016849    8.715878772
    0.688146912   18.386681345   18.108582228    8.734115040
    0.695325543   18.408851746   18.140402978    8.754299259
    0.702504174   18.432077161   18.174971367    8.776877948
    0.709682805   18.456571659   18.212938608    8.802441620
    0.716861436   18.482620940   18.255175294    8.831779494
    0.724040067   18.510608223   18.302850742    8.865951291
    0.731218698   18.541042234   18.357518791    8.906364902
    0.738397329   18.574563210   18.421136153    8.954793071
    0.745575960   18.611823216   18.495695390    9.013041591
    0.752754591   18.652821320   18.581186322    9.081105937
    0.759933222   18.694035697   18.666802241    9.149219131
    0.767111853   18.717770365   18.698274193    9.168312083
    0.774290484   18.670521067   18.511535111    8.990025785
    0.781469115   18.522724239   18.015925246    8.532385874
    0.788647746   18.418939331   17.654689235    8.196234455
    0.795826377   18.417366489   17.606270606    8.142954654
    0.803005008   18.455298855   17.678379328    8.198675852
    0.810183639   18.499383077   17.768728375    8.270922734
    0.817362270   18.541232916   17.851583230    8.336453422
    0.824540902   18.579738318   17.923516056    8.392206649
    0.831719533   18.615390488   17.986003586    8.439567855
    0.838898164   18.648881675   18.041131880    8.480489158
    0.846076795   18.680807833   18.090681975    8.516668414
    0.853255426   18.711636740   18.136028535    8.549465775
    0.860434057   18.741732816   18.178211196    8.579978957
    0.867612688   18.771387544   18.218022809    8.609134551
    0.874791319   18.800842726   18.256079841    8.637753629
    0.881969950   18.830296669   18.292864117    8.666537435
    0.889148581   18.859857975   18.328706131    8.695766761
    0.896327212   18.889303906   18.363581622    8.723890327
    0.903505843   18.917162778   18.396282980    8.742242065
    0.910684474   18.938908093   18.422772352    8.724666914
    0.917863105   18.952370448   18.441151750    8.658562396
    0.925041736   18.969978368   18.462894293    8.615103789
    0.932220367   18.996237221   18.492193450    8.620023371
    0.939398998   19.025874252   18.524264603    8.642963446
    0.946577629   19.056186094   18.556671286    8.668317455
    0.953756260   19.086517954   18.588849168    8.692239233
    0.960934891   19.116804661   18.620769309    8.714270156
    0.968113523   19.147108805   18.652515586    8.734687444
    0.975292154   19.177507428   18.684181578    8.753852465
    0.982470785   19.208068318   18.715849481    8.772073294
    0.989649416   19.238847789   18.747588608    8.789590578
    0.996828047   19.269892980   18.779457947    8.806589309
    1.004006678   19.301244570   18.811509039    8.823212882
    1.011185309   19.332939074   18.843788427    8.839574540
    1.018363940   19.365010669   18.876339649    8.855765857
    1.025542571   19.397492689   18.909204917    8.871862896
    1.032721202   19.430418933   18.942426642    8.887930698
    1.039899833   19.463824925   18.976048930    8.904026628
    1.047078464   19.497749249   19.010119217    8.920202964
    1.054257095   19.532235085   19.044690181    8.936508997
    1.061435726   19.567332129   19.079822142    8.952992856
    1.068614357   19.603099092   19.115586217    8.969703243
    1.075792988   19.639607075   19.152068586    8.986691213
    1.082971619   19.676944203   19.189376371    9.004012188
    1.090150250   19.715221969   19.227645699    9.021728353
    1.097328881   19.754583547   19.267052273    9.039911555
    1.104507513   19.795213051   19.307823130    9.058646498
    1.111686144   19.837339134   19.350241098    9.078032624
    1.118864775   19.881204153   19.394604948    9.098177594
    1.126043406   19.926882192   19.440995216    9.119153355
    1.133222037   19.973482896   19.488250508    9.140799548
    1.140400668   20.016137096   19.530092496    9.161974881
    1.147579299   20.039197762   19.546386117    9.178866457
    1.154757930   20.030462811   19.521420347    9.188535948
    1.161936561   20.032017377   19.509258081    9.201587907
    1.169115192   20.067476836   19.540215686    9.224054469
    1.176293823   20.117875964   19.589870084    9.251398896
    1.183472454   20.171912720   19.643638003    9.281042336
    1.190651085   20.226761402   19.697817968    9.312583634
    1.197829716   20.282190358   19.752024957    9.346358509
    1.205008347   20.338595952   19.806657138    9.382983890
    1.212186978   20.396526865   19.862276116    9.423285714
    1.219365609   20.456600541   19.919489450    9.468335213
    1.226544240   20.519512608   19.978955087    9.519498598
    1.233722871   20.586037373   20.041395776    9.578376288
    1.240901503   20.656880563   20.107523243    9.646190643
    1.248080134   20.731891418   20.177551269    9.720868163
    1.255258765   20.806773859   20.249091215    9.785166143
    1.262437396   20.862709521   20.310448666    9.769466637
    1.269616027   20.863372917   20.338664301    9.541167820
    1.276794658   20.842955687   20.356317977    9.220318464
    1.283973289   20.886912846   20.417905264    9.114752105
    1.291151920   20.971169509   20.501055755    9.160904018
    1.298330551   21.036078635   20.541077961    9.231842775
    1.305509182   21.025793334   20.453647732    9.266101650
    1.312687813   20.978666646   20.291887751    9.271919722
    1.319866444   21.011386819   20.253083692    9.310731855
    1.327045075   21.118928029   20.332365206    9.383662024
    1.334223706   21.256397704   20.451331366    9.468610824
    1.341402337   21.406794345   20.579707852    9.557678452
    1.348580968   21.559451769   20.707215927    9.646900896
    1.355759599   21.674882696   20.812162613    9.720161442
    1.362938230   21.628766624   20.827747780    9.725075346
    1.370116861   21.338652593   20.712935674    9.628944018
    1.377295492   21.143824440   20.655069958    9.580299193
    1.384474124   21.193899504   20.733780992    9.645541070
    1.391652755   21.304878360   20.845100478    9.746356297
    1.398831386   21.386441788   20.883423522    9.793291500
    1.406010017   21.430367792   20.732709101    9.678583047
    1.413188648   21.436002958   20.508745019    9.500971666
    1.420367279   21.383645549   20.479872180    9.485817896
    1.427545910   21.207155382   20.582882655    9.574420910
    1.434724541   21.149521509   20.713189887    9.674679181
    1.441903172   21.264091337   20.821812584    9.690971300
    1.449081803   21.384048612   20.899341288    9.603715699
    1.456260434   21.386141951   20.966304090    9.524014161
    1.463439065   21.251829705   20.972230904    9.302773707
    1.470617696   21.064838098   20.918113588    8.921020219
    1.477796327   21.048701396   20.936905783    8.766469782
    1.484974958   21.180089107   21.028463872    8.832033238
    1.492153589   21.352366586   21.139507949    8.950000787
    1.499332220   21.524681284   21.246129290    9.034215602
    1.506510851   21.683984420   21.342006596    9.057560087
    1.513689482   21.812585053   21.438551288    9.087131046
    1.520868114   21.841430478   21.536401859    9.143197055
    1.528046745   21.729317410   21.628220684    9.191992332
    1.535225376   21.675604258   21.727454190    9.247171850
    1.542404007   21.758028346   21.833222096    9.315372630
    1.549582638   21.874930091   21.909809468    9.376513150
    1.556761269   21.951583139   21.905080059    9.411605783
    1.563939900   21.998571924   21.866049377    9.435283712
    1.571118531   22.087125990   21.908788520    9.480090344
    1.578297162   22.217077118   22.023195729    9.542493771
    1.585475793   22.359012036   22.163814484    9.610045766
    1.592654424   22.492594696   22.311114523    9.675323354
    1.599833055   22.591665303   22.452471963    9.729011137
    1.607011686   22.661669659   22.577191027    9.771410174
    1.614190317   22.744493807   22.646999761    9.809713681
    1.621368948   22.794614521   22.538356712    9.811731973
    1.628547579   22.817269057   22.322742641    9.791726522
    1.635726210   22.897481187   22.274266396    9.822789348
    1.642904841   22.972566763   22.305817896    9.880975874
    1.650083472   22.954330829   22.304305378    9.904162401
    1.657262104   22.864817865   22.303477167    9.850939450
    1.664440735   22.802439658   22.315127931    9.747986472
    1.671619366   22.840821276   22.381395426    9.710212405
    1.678797997   22.934552937   22.489570299    9.750702688
    1.685976628   22.996324981   22.589613954    9.789089355
    1.693155259   23.035910181   22.690854090    9.785027324
    1.700333890   23.111066606   22.808780019    9.790334159
    1.707512521   23.246885405   22.942537237    9.851876637
    1.714691152   23.406487328   23.080984929    9.938690919
    1.721869783   23.555551909   23.215832861   10.015318303
    1.729048414   23.644233046   23.334675050   10.026899036
    1.736227045   23.626861928   23.426617948    9.921378777
    1.743405676   23.612541357   23.523741832    9.814947945
    1.750584307   23.691805204   23.650960513    9.810722292
    1.757762938   23.814601224   23.794320532    9.857691771
    1.764941569   23.946424461   23.944922597    9.914316707
    1.772120200   24.094466785   24.098928208    9.982350725
    1.779298831   24.248931960   24.225853113   10.045210454
    1.786477462   24.390756343   24.271656172   10.078985551
    1.793656093   24.490795880   24.216850624   10.083419770
    1.800834725   24.543574111   24.135043168   10.091657950
    1.808013356   24.634903066   24.168576442   10.130207856
    1.815191987   24.781540425   24.315912377   10.180349042
    1.822370618   24.927309323   24.484904282   10.224275967
    1.829549249   25.003525829   24.600515947   10.268179856
    1.836727880   24.963723699   24.643806991   10.305043249
    1.843906511   24.918034567   24.719992652   10.344649769
    1.851085142   24.984434054   24.878892685   10.401016075
    1.858263773   25.107763087   25.079761483   10.461260340
    1.865442404   25.242105406   25.296087355   10.522019156
    1.872621035   25.416062499   25.522844089   10.594629683
    1.879799666   25.598992428   25.704584718   10.654205086
    1.886978297   25.736557013   25.731187256   10.656624602
    1.894156928   25.794338466   25.517055907   10.583607055
    1.901335559   25.780758902   25.154178388   10.448741244
    1.908514190   25.845936225   25.042169981   10.384621991
    1.915692821   26.019147223   25.188669920   10.432215507
    1.922871452   26.189727988   25.382487150   10.513641691
    1.930050083   26.280882570   25.577161557   10.582822897
    1.937228715   26.353902777   25.799672618   10.642235176
    1.944407346   26.451757429   26.006415305   10.690238854
    1.951585977   26.487062467   26.162429523   10.704668400
    1.958764608   26.462247490   26.326416756   10.725625137
    1.965943239   26.523503180   26.533062364   10.786820413
    1.973121870   26.701926529   26.719803402   10.866238473
    1.980300501   26.872303242   26.807622282   10.908051152
    1.987479132   26.978917660   26.849489441   10.874270108
    1.994657763   27.088777025   26.979252624   10.848642608
    2.001836394   27.259447635   27.196916197   10.894240691
    2.009015025   27.431979068   27.350577516   10.951921920
    2.016193656   27.564373261   27.348181456   10.981753538
    2.023372287   27.732323692   27.311681627   11.004974282
    2.030550918   27.934367129   27.326800160   11.023760923
    2.037729549   28.116908687   27.385519822   11.056954117
    2.044908180   28.188291382   27.355889640   11.091996459
    2.052086811   28.185703604   27.393938868   11.136350643
    2.059265442   28.291609745   27.641782726   11.200846617
    2.066444073   28.545725473   27.987086606   11.288466837
    2.073622705   28.779675577   28.245074076   11.335784741
    2.080801336   28.753190426   28.173636213   11.254077574
    2.087979967   28.534433456   27.880710578   11.158068041
    2.095158598   28.544360300   27.875522905   11.189944956
    2.102337229   28.734666408   28.111619186   11.280995987
    2.109515860   28.979417861   28.421112640   11.374194389
    2.116694491   29.164328354   28.697000857   11.419830292
    2.123873122   29.226341539   28.876106827   11.402277169
    2.131051753   29.306351125   29.042719703   11.392317238
    2.138230384   29.363179096   29.164530312   11.375459498
    2.145409015   29.343956960   29.153814553   11.313490095
    2.152587646   29.423980672   29.156590108   11.288199403
    2.159766277   29.688571932   29.365185618   11.360588899
    2.166944908   30.040941837   29.684238767   11.466896370
    2.174123539   30.373007718   29.978429534   11.536521878
    2.181302170   30.660412690   30.261483965   11.582173179
    2.188480801   30.988755091   30.615593435   11.661806707
    2.195659432   31.369499205   31.037805651   11.741061652
    2.202838063   31.726386811   31.468439749   11.757913626
    2.210016694   31.983149863   31.827439111   11.789854139
    2.217195326   31.967797872   32.032724589   11.866820601
    2.224373957   31.740881385   32.089089205   11.912640395
    2.231552588   31.658999765   32.057014292   11.892623469
    2.238731219   31.564563837   31.907006680   11.802724210
    2.245909850   31.497784409   31.821992421   11.729511235
    2.253088481   31.739767190   32.077449211   11.799541891
    2.260267112   32.126675167   32.420669190   11.932987767
    2.267445743   32.451522560   32.617734973   12.052671789
    2.274624374   32.612491542   32.690030981   12.140692684
    2.281803005   32.782352538   32.811591744   12.146044060
    2.288981636   33.075891647   32.989003600   12.000589781
    2.296160267   33.425264136   33.243745813   11.888800556
    2.303338898   33.774276654   33.578020435   11.922366856
    2.310517529   34.087317394   33.901940050   11.990996845
    2.317696160   34.442967121   34.263744947   12.059530568
    2.324874791   34.896054331   34.760948002   12.150457917
    2.332053422   35.375167227   35.267616293   12.230154082
    2.339232053   35.800641494   35.691274953   12.275702314
    2.346410684   36.166746253   36.166429401   12.248741795
    2.353589316   36.545855564   36.755674506   12.219668075
    2.360767947   36.938688642   37.277755894   12.297644691
    2.367946578   37.217213536   37.658202913   12.400801649
    2.375125209   37.304509377   37.931885511   12.437519916
    2.382303840   37.369717374   38.084567411   12.431997949
    2.389482471   37.640369266   38.132396945   12.485304455
    2.396661102   38.125014963   38.315957795   12.627722440
    2.403839733   38.801284466   38.903520245   12.807337375
    2.411018364   39.351934222   39.413952107   12.936016946
    2.418196995   39.363764464   39.307737418   12.885080331
    2.425375626   38.971451621   39.181532806   12.675018126
    2.432554257   39.031106461   39.771859830   12.605594813
    2.439732888   39.760083564   40.884056649   12.734416817
    2.446911519   40.657203529   42.126908912   12.922339647
    2.454090150   41.204227967   43.174129784   13.063438561
    2.461268781   41.374258992   43.901460786   13.103778195
    2.468447412   41.722136690   44.453401064   13.061059828
    2.475626043   42.003617290   44.558903845   13.052621249
    2.482804674   41.677624574   43.880809563   13.104799372
    2.489983306   41.323507775   43.462870574   13.173385050
    2.497161937   41.897576787   44.479990056   13.294727412
    2.504340568   42.957382235   46.275329171   13.386608750
    2.511519199   43.801555451   48.023989947   13.360614081
    2.518697830   44.395389999   49.490139699   13.320370756
    2.525876461   45.229171716   50.953898473   13.409604309
    2.533055092   46.258898934   51.856741178   13.563473788
    2.540233723   46.909652632   50.033095532   13.660816880
