# energy grid [eV]     epsr_x  epsr_y  epsr_z
#
    0.200000000   14.454307555   12.829093746   12.543910645
    0.207178631   14.457577810   12.831807219   12.546595717
    0.214357262   14.460965173   12.834617773   12.549376879
    0.221535893   14.464469834   12.837525555   12.552254278
    0.228714524   14.468091987   12.840530718   12.555228068
    0.235893155   14.471831835   12.843633420   12.558298408
    0.243071786   14.475689586   12.846833822   12.561465462
    0.250250417   14.479665456   12.850132093   12.564729399
    0.257429048   14.483759668   12.853528407   12.568090394
    0.264607679   14.487972451   12.857022942   12.571548627
    0.271786311   14.492304040   12.860615882   12.575104283
    0.278964942   14.496754680   12.864307417   12.578757553
    0.286143573   14.501324620   12.868097742   12.582508634
    0.293322204   14.506014117   12.871987056   12.586357727
    0.300500835   14.510823436   12.875975567   12.590305040
    0.307679466   14.515752848   12.880063484   12.594350785
    0.314858097   14.520802631   12.884251025   12.598495181
    0.322036728   14.525973070   12.888538412   12.602738452
    0.329215359   14.531264460   12.892925873   12.607080828
    0.336393990   14.536677099   12.897413641   12.611522544
    0.343572621   14.542211295   12.902001957   12.616063842
    0.350751252   14.547867364   12.906691064   12.620704967
    0.357929883   14.553645626   12.911481214   12.625446174
    0.365108514   14.559546411   12.916372663   12.630287719
    0.372287145   14.565570057   12.921365672   12.635229868
    0.379465776   14.571716909   12.926460511   12.640272891
    0.386644407   14.577987318   12.931657453   12.645417064
    0.393823038   14.584381644   12.936956777   12.650662669
    0.401001669   14.590900256   12.942358770   12.656009994
    0.408180301   14.597543528   12.947863723   12.661459333
    0.415358932   14.604311844   12.953471934   12.667010987
    0.422537563   14.611205595   12.959183708   12.672665262
    0.429716194   14.618225180   12.964999353   12.678422471
    0.436894825   14.625371006   12.970919187   12.684282933
    0.444073456   14.632643489   12.976943531   12.690246973
    0.451252087   14.640043052   12.983072715   12.696314922
    0.458430718   14.647570127   12.989307073   12.702487119
    0.465609349   14.655225154   12.995646947   12.708763908
    0.472787980   14.663008580   13.002092685   12.715145640
    0.479966611   14.670920863   13.008644640   12.721632672
    0.487145242   14.678962468   13.015303175   12.728225369
    0.494323873   14.687133868   13.022068655   12.734924100
    0.501502504   14.695435547   13.028941455   12.741729245
    0.508681135   14.703867996   13.035921956   12.748641186
    0.515859766   14.712431714   13.043010545   12.755660315
    0.523038397   14.721127211   13.050207617   12.762787030
    0.530217028   14.729955004   13.057513572   12.770021737
    0.537395659   14.738915621   13.064928819   12.777364846
    0.544574290   14.748009598   13.072453773   12.784816778
    0.551752922   14.757237480   13.080088856   12.792377958
    0.558931553   14.766599823   13.087834497   12.800048820
    0.566110184   14.776097190   13.095691132   12.807829804
    0.573288815   14.785730155   13.103659206   12.815721360
    0.580467446   14.795499302   13.111739169   12.823723942
    0.587646077   14.805405223   13.119931480   12.831838013
    0.594824708   14.815448523   13.128236605   12.840064046
    0.602003339   14.825629813   13.136655016   12.848402517
    0.609181970   14.835949717   13.145187197   12.856853913
    0.616360601   14.846408868   13.153833634   12.865418728
    0.623539232   14.857007909   13.162594824   12.874097464
    0.630717863   14.867747494   13.171471273   12.882890631
    0.637896494   14.878628287   13.180463492   12.891798747
    0.645075125   14.889650964   13.189572002   12.900822337
    0.652253756   14.900816209   13.198797331   12.909961937
    0.659432387   14.912124718   13.208140016   12.919218089
    0.666611018   14.923577201   13.217600602   12.928591345
    0.673789649   14.935174374   13.227179643   12.938082263
    0.680968280   14.946916967   13.236877699   12.947691413
    0.688146912   14.958805722   13.246695342   12.957419371
    0.695325543   14.970841391   13.256633150   12.967266723
    0.702504174   14.983024737   13.266691711   12.977234064
    0.709682805   14.995356538   13.276871623   12.987321998
    0.716861436   15.007837581   13.287173489   12.997531138
    0.724040067   15.020468665   13.297597926   13.007862106
    0.731218698   15.033250603   13.308145556   13.018315533
    0.738397329   15.046184219   13.318817013   13.028892061
    0.745575960   15.059270349   13.329612940   13.039592340
    0.752754591   15.072509844   13.340533987   13.050417031
    0.759933222   15.085903566   13.351580818   13.061366802
    0.767111853   15.099452390   13.362754101   13.072442335
    0.774290484   15.113157204   13.374054520   13.083644320
    0.781469115   15.127018911   13.385482765   13.094973456
    0.788647746   15.141038425   13.397039536   13.106430454
    0.795826377   15.155216676   13.408725545   13.118016035
    0.803005008   15.169554606   13.420541514   13.129730931
    0.810183639   15.184053172   13.432488175   13.141575883
    0.817362270   15.198713345   13.444566270   13.153551645
    0.824540902   15.213536111   13.456776552   13.165658981
    0.831719533   15.228522470   13.469119786   13.177898665
    0.838898164   15.243673436   13.481596747   13.190271485
    0.846076795   15.258990040   13.494208221   13.202778238
    0.853255426   15.274473326   13.506955006   13.215419734
    0.860434057   15.290124355   13.519837911   13.228196793
    0.867612688   15.305944203   13.532857756   13.241110249
    0.874791319   15.321933963   13.546015373   13.254160946
    0.881969950   15.338094741   13.559311607   13.267349742
    0.889148581   15.354427663   13.572747315   13.280677507
    0.896327212   15.370933870   13.586323363   13.294145122
    0.903505843   15.387614519   13.600040635   13.307753483
    0.910684474   15.404470785   13.613900022   13.321503498
    0.917863105   15.421503860   13.627902431   13.335396086
    0.925041736   15.438714954   13.642048780   13.349432183
    0.932220367   15.456105294   13.656340003   13.363612736
    0.939398998   15.473676125   13.670777044   13.377938706
    0.946577629   15.491428712   13.685360863   13.392411069
    0.953756260   15.509364337   13.700092430   13.407030813
    0.960934891   15.527484300   13.714972734   13.421798942
    0.968113523   15.545789923   13.730002774   13.436716473
    0.975292154   15.564282545   13.745183565   13.451784440
    0.982470785   15.582963526   13.760516135   13.467003890
    0.989649416   15.601834246   13.776001528   13.482375885
    0.996828047   15.620896105   13.791640803   13.497901503
    1.004006678   15.640150523   13.807435034   13.513581838
    1.011185309   15.659598942   13.823385309   13.529417999
    1.018363940   15.679242827   13.839492732   13.545411111
    1.025542571   15.699083661   13.855758424   13.561562317
    1.032721202   15.719122951   13.872183521   13.577872773
    1.039899833   15.739362228   13.888769176   13.594343656
    1.047078464   15.759803043   13.905516557   13.610976158
    1.054257095   15.780446971   13.922426850   13.627771487
    1.061435726   15.801295611   13.939501258   13.644730871
    1.068614357   15.822350586   13.956741001   13.661855554
    1.075792988   15.843613543   13.974147316   13.679146801
    1.082971619   15.865086153   13.991721458   13.696605892
    1.090150250   15.886770114   14.009464702   13.714234129
    1.097328881   15.908667147   14.027378338   13.732032829
    1.104507513   15.930779002   14.045463678   13.750003333
    1.111686144   15.953107452   14.063722050   13.768146999
    1.118864775   15.975654299   14.082154804   13.786465206
    1.126043406   15.998421373   14.100763308   13.804959352
    1.133222037   16.021410530   14.119548950   13.823630857
    1.140400668   16.044623655   14.138513138   13.842481162
    1.147579299   16.068062661   14.157657302   13.861511729
    1.154757930   16.091729493   14.176982891   13.880724043
    1.161936561   16.115626122   14.196491377   13.900119609
    1.169115192   16.139754553   14.216184252   13.919699956
    1.176293823   16.164116818   14.236063032   13.939466636
    1.183472454   16.188714984   14.256129253   13.959421223
    1.190651085   16.213551144   14.276384474   13.979565312
    1.197829716   16.238627420   14.296830279   13.999900512
    1.205008347   16.263945958   14.317468270   14.020428447
    1.212186978   16.289508975   14.338300082   14.041150817
    1.219365609   16.315318738   14.359327371   14.062069371
    1.226544240   16.341377500   14.380551816   14.083185815
    1.233722871   16.367687552   14.401975121   14.104501881
    1.240901503   16.394251228   14.423599014   14.126019340
    1.248080134   16.421070901   14.445425253   14.147739995
    1.255258765   16.448148985   14.467455619   14.169665678
    1.262437396   16.475487930   14.489691922   14.191798247
    1.269616027   16.503090229   14.512136000   14.214139593
    1.276794658   16.530958410   14.534789718   14.236691634
    1.283973289   16.559095045   14.557654968   14.259456317
    1.291151920   16.587502746   14.580733675   14.282435622
    1.298330551   16.616184169   14.604027789   14.305631558
    1.305509182   16.645142011   14.627539293   14.329046165
    1.312687813   16.674379013   14.651270201   14.352681518
    1.319866444   16.703897963   14.675222555   14.376539723
    1.327045075   16.733701693   14.699398432   14.400622919
    1.334223706   16.763793081   14.723799940   14.424933281
    1.341402337   16.794175054   14.748429219   14.449473016
    1.348580968   16.824850583   14.773288440   14.474244370
    1.355759599   16.855822683   14.798379796   14.499249620
    1.362938230   16.887094420   14.823705520   14.524491084
    1.370116861   16.918668948   14.849267927   14.549971119
    1.377295492   16.950549462   14.875069359   14.575692120
    1.384474124   16.982739184   14.901112149   14.601656519
    1.391652755   17.015241393   14.927398677   14.627866786
    1.398831386   17.048059427   14.953931367   14.654325432
    1.406010017   17.081196668   14.980712688   14.681034995
    1.413188648   17.114656531   15.007745145   14.707998032
    1.420367279   17.148442531   15.035031286   14.735217180
    1.427545910   17.182558367   15.062573706   14.762695229
    1.434724541   17.217007700   15.090375038   14.790434925
    1.441903172   17.251794187   15.118437956   14.818438999
    1.449081803   17.286921577   15.146765178   14.846710256
    1.456260434   17.322393698   15.175359470   14.875251556
    1.463439065   17.358214453   15.204223639   14.904065814
    1.470617696   17.394387821   15.233360547   14.933156010
    1.477796327   17.430917852   15.262773102   14.962525175
    1.484974958   17.467808662   15.292464255   14.992176378
    1.492153589   17.505064439   15.322437012   15.022112741
    1.499332220   17.542689450   15.352694428   15.052337443
    1.506510851   17.580688040   15.383239609   15.082853722
    1.513689482   17.619064633   15.414075718   15.113664871
    1.520868114   17.657823734   15.445205968   15.144774243
    1.528046745   17.696969932   15.476633632   15.176185248
    1.535225376   17.736507899   15.508362036   15.207901361
    1.542404007   17.776442396   15.540394565   15.239926116
    1.549582638   17.816778272   15.572734665   15.272263111
    1.556761269   17.857520468   15.605385841   15.304916011
    1.563939900   17.898674015   15.638351660   15.337888547
    1.571118531   17.940244043   15.671635750   15.371184518
    1.578297162   17.982235771   15.705241799   15.404807791
    1.585475793   18.024654522   15.739173563   15.438762308
    1.592654424   18.067505742   15.773434889   15.473052083
    1.599833055   18.110794979   15.808029687   15.507681206
    1.607011686   18.154527868   15.842961919   15.542653842
    1.614190317   18.198710159   15.878235622   15.577974235
    1.621368948   18.243347719   15.913854910   15.613646709
    1.628547579   18.288446530   15.949823975   15.649675673
    1.635726210   18.334012692   15.986147084   15.686065618
    1.642904841   18.380052416   16.022828573   15.722821123
    1.650083472   18.426572007   16.059872833   15.759946855
    1.657262104   18.473577926   16.097284361   15.797447571
    1.664440735   18.521076903   16.135067854   15.835328121
    1.671619366   18.569075716   16.173228030   15.873593446
    1.678797997   18.617581189   16.211769638   15.912248591
    1.685976628   18.666600327   16.250697532   15.951298703
    1.693155259   18.716140334   16.290016665   15.990749056
    1.700333890   18.766208539   16.329732090   16.030605007
    1.707512521   18.816812410   16.369848966   16.070872010
    1.714691152   18.867959579   16.410372552   16.111555636
    1.721869783   18.919657848   16.451308214   16.152661577
    1.729048414   18.971915189   16.492661422   16.194195641
    1.736227045   19.024739746   16.534437758   16.236163758
    1.743405676   19.078139838   16.576642914   16.278571982
    1.750584307   19.132123970   16.619282701   16.321426494
    1.757762938   19.186700832   16.662363044   16.364733608
    1.764941569   19.241879309   16.705889991   16.408499771
    1.772120200   19.297668482   16.749869717   16.452731570
    1.779298831   19.354077638   16.794308521   16.497435733
    1.786477462   19.411116272   16.839212837   16.542619132
    1.793656093   19.468794094   16.884589233   16.588288789
    1.800834725   19.527121043   16.930444414   16.634451888
    1.808013356   19.586107295   16.976785235   16.681115782
    1.815191987   19.645763252   17.023618690   16.728287974
    1.822370618   19.706099556   17.070951924   16.775976133
    1.829549249   19.767127102   17.118792226   16.824188101
    1.836727880   19.828857045   17.167147023   16.872931895
    1.843906511   19.891300806   17.216023925   16.922215721
    1.851085142   19.954470097   17.265430819   16.972048012
    1.858263773   20.018376905   17.315375707   17.022437377
    1.865442404   20.083033504   17.365866695   17.073392604
    1.872621035   20.148452471   17.416912095   17.124922697
    1.879799666   20.214646699   17.468520422   17.177036878
    1.886978297   20.281629401   17.520700392   17.229744593
    1.894156928   20.349414128   17.573460920   17.283055519
    1.901335559   20.418014772   17.626811134   17.336979567
    1.908514190   20.487445582   17.680760370   17.391526893
    1.915692821   20.557721175   17.735318189   17.446707906
    1.922871452   20.628856547   17.790494374   17.502533273
    1.930050083   20.700867089   17.846298947   17.559013932
    1.937228715   20.773768598   17.902742170   17.616161098
    1.944407346   20.847577293   17.959834553   17.673986276
    1.951585977   20.922309827   18.017586866   17.732501264
    1.958764608   20.997983305   18.076010142   17.791718171
    1.965943239   21.074615293   18.135115685   17.851649421
    1.973121870   21.152223840   18.194915079   17.912307765
    1.980300501   21.230827503   18.255420205   17.973706279
    1.987479132   21.310445383   18.316643253   18.035858364
    1.994657763   21.391097096   18.378596730   18.098777846
    2.001836394   21.472802829   18.441293501   18.162479021
    2.009015025   21.555583336   18.504746723   18.226976441
    2.016193656   21.639459970   18.568969886   18.292285084
    2.023372287   21.724454717   18.633976851   18.358420424
    2.030550918   21.810590213   18.699781854   18.425398298
    2.037729549   21.897889771   18.766399518   18.493234992
    2.044908180   21.986377403   18.833844866   18.561947279
    2.052086811   22.076077844   18.902133334   18.631552426
    2.059265442   22.167016571   18.971280786   18.702068191
    2.066444073   22.259219845   19.041303532   18.773512860
    2.073622705   22.352714855   19.112218342   18.845905378
    2.080801336   22.447529636   19.184042466   18.919265254
    2.087979967   22.543693018   19.256793651   18.993612496
    2.095158598   22.641234770   19.330490158   19.068967744
    2.102337229   22.740185650   19.405150788   19.145352307
    2.109515860   22.840577434   19.480794898   19.222788178
    2.116694491   22.942442955   19.557442425   19.301298053
    2.123873122   23.045816148   19.635113910   19.380905368
    2.131051753   23.150732093   19.713830519   19.461634317
    2.138230384   23.257227052   19.793614068   19.543509880
    2.145409015   23.365338509   19.874487037   19.626557842
    2.152587646   23.475105257   19.956472597   19.710804891
    2.159766277   23.586567419   20.039594591   19.796278618
    2.166944908   23.699766834   20.123877751   19.883007729
    2.174123539   23.814747085   20.209347922   19.971022052
    2.181302170   23.931552847   20.296031496   20.060352150
    2.188480801   24.050230377   20.383955588   20.151029660
    2.195659432   24.170827780   20.473148291   20.243087444
    2.202838063   24.293395007   20.563638644   20.336559587
    2.210016694   24.417983877   20.655456504   20.431481429
    2.217195326   24.544648172   20.748632564   20.527889630
    2.224373957   24.673444111   20.843199540   20.625822394
    2.231552588   24.804430282   20.939191928   20.725319406
    2.238731219   24.937667206   21.036644108   20.826421759
    2.245909850   25.073217811   21.135591532   20.929172183
    2.253088481   25.211147588   21.236071162   21.033615146
    2.260267112   25.351524578   21.338121343   21.139796916
    2.267445743   25.494420201   21.441782283   21.247765688
    2.274624374   25.639909852   21.547096124   21.357571807
    2.281803005   25.788071197   21.654105997   21.469267709
    2.288981636   25.938984784   21.762856476   21.582907955
    2.296160267   26.092734791   21.873393833   21.698549445
    2.303338898   26.249409631   21.985766594   21.816251675
    2.310517529   26.409102768   22.100026228   21.936077168
    2.317696160   26.571911434   22.216225654   22.058091159
    2.324874791   26.737936758   22.334419302   22.182361581
    2.332053422   26.907284804   22.454664325   22.308959454
    2.339232053   27.080066793   22.577020621   22.437958839
    2.346410684   27.256399820   22.701550546   22.569438263
    2.353589316   27.436407392   22.828319403   22.703481758
    2.360767947   27.620217910   22.957394980   22.840175681
    2.367946578   27.807965155   23.088847771   22.979609845
    2.375125209   27.999792819   23.222752812   23.121879546
    2.382303840   28.195855962   23.359189685   23.267086335
    2.389482471   28.396313414   23.498239981   23.415336445
    2.396661102   28.601331392   23.639989533   23.566741392
    2.403839733   28.811086404   23.784528810   23.721419058
    2.411018364   29.025764681   23.931952385   23.879493825
    2.418196995   29.245562932   24.082359779   24.041096886
    2.425375626   29.470691882   24.235856156   24.206368744
    2.432554257   29.701376897   24.392552520   24.375459715
    2.439732888   29.937854319   24.552565591   24.548527412
    2.446911519   30.180373704   24.716018398   24.725738677
    2.454090150   30.429200531   24.883040958   24.907270811
    2.461268781   30.684618776   25.053771087   25.093313019
    2.468447412   30.946931945   25.228355036   25.284066942
    2.475626043   31.216461969   25.406947275   25.479747406
    2.482804674   31.493556716   25.589711883   25.680587878
    2.489983306   31.778589921   25.776823228   25.886839134
    2.497161937   32.071958441   25.968466605   26.098767051
    2.504340568   32.374086975   26.164839727   26.316655905
    2.511519199   32.685432779   26.366153337   26.540812189
    2.518697830   33.006488797   26.572632401   26.771566985
    2.525876461   33.337787220   26.784517720   27.009279054
    2.533055092   33.679903154   27.002067191   27.254337200
    2.540233723   34.033458792   27.225557403   27.507162088
