# energy grid [eV]     epsr_x  epsr_y  epsr_z
#
    0.200000000   15.434749325    9.840291083   15.673626742
    0.207178631   15.438298341    9.842139594   15.677241079
    0.214357262   15.441974485    9.844054153   15.680984875
    0.221535893   15.445777967    9.846034851   15.684858342
    0.228714524   15.449709003    9.848081781   15.688861699
    0.235893155   15.453767816    9.850195041   15.692995171
    0.243071786   15.457954638    9.852374732   15.697258994
    0.250250417   15.462269707    9.854620957   15.701653410
    0.257429048   15.466713269    9.856933824   15.706178667
    0.264607679   15.471285578    9.859313442   15.710835022
    0.271786311   15.475986896    9.861759926   15.715622742
    0.278964942   15.480817491    9.864273393   15.720542098
    0.286143573   15.485777641    9.866853963   15.725593370
    0.293322204   15.490867630    9.869501760   15.730776848
    0.300500835   15.496087751    9.872216910   15.736092828
    0.307679466   15.501438304    9.874999545   15.741541614
    0.314858097   15.506919597    9.877849797   15.747123518
    0.322036728   15.512531946    9.880767804   15.752838860
    0.329215359   15.518275676    9.883753706   15.758687970
    0.336393990   15.524151118    9.886807649   15.764671183
    0.343572621   15.530158614    9.889929778   15.770788844
    0.350751252   15.536298511    9.893120245   15.777041307
    0.357929883   15.542571167    9.896379205   15.783428932
    0.365108514   15.548976947    9.899706816   15.789952090
    0.372287145   15.555516223    9.903103238   15.796611159
    0.379465776   15.562189378    9.906568637   15.803406525
    0.386644407   15.568996802    9.910103182   15.810338583
    0.393823038   15.575938894    9.913707045   15.817407738
    0.401001669   15.583016060    9.917380401   15.824614402
    0.408180301   15.590228718    9.921123431   15.831958997
    0.415358932   15.597577291    9.924936317   15.839441951
    0.422537563   15.605062213    9.928819247   15.847063705
    0.429716194   15.612683926    9.932772410   15.854824706
    0.436894825   15.620442882    9.936796002   15.862725411
    0.444073456   15.628339541    9.940890220   15.870766286
    0.451252087   15.636374372    9.945055266   15.878947807
    0.458430718   15.644547854    9.949291346   15.887270457
    0.465609349   15.652860474    9.953598670   15.895734730
    0.472787980   15.661312729    9.957977450   15.904341131
    0.479966611   15.669905127    9.962427905   15.913090170
    0.487145242   15.678638182    9.966950256   15.921982371
    0.494323873   15.687512420    9.971544727   15.931018266
    0.501502504   15.696528377    9.976211548   15.940198396
    0.508681135   15.705686597    9.980950953   15.949523312
    0.515859766   15.714987635    9.985763178   15.958993577
    0.523038397   15.724432055    9.990648466   15.968609761
    0.530217028   15.734020432    9.995607061   15.978372445
    0.537395659   15.743753352   10.000639214   15.988282223
    0.544574290   15.753631408   10.005745178   15.998339696
    0.551752922   15.763655206   10.010925212   16.008545475
    0.558931553   15.773825363   10.016179577   16.018900185
    0.566110184   15.784142504   10.021508541   16.029404460
    0.573288815   15.794607266   10.026912375   16.040058942
    0.580467446   15.805220296   10.032391354   16.050864288
    0.587646077   15.815982255   10.037945757   16.061821164
    0.594824708   15.826893810   10.043575870   16.072930247
    0.602003339   15.837955642   10.049281980   16.084192226
    0.609181970   15.849168444   10.055064382   16.095607800
    0.616360601   15.860532919   10.060923373   16.107177680
    0.623539232   15.872049781   10.066859256   16.118902589
    0.630717863   15.883719757   10.072872337   16.130783262
    0.637896494   15.895543584   10.078962929   16.142820445
    0.645075125   15.907522012   10.085131349   16.155014896
    0.652253756   15.919655804   10.091377917   16.167367385
    0.659432387   15.931945732   10.097702960   16.179878695
    0.666611018   15.944392585   10.104106809   16.192549621
    0.673789649   15.956997159   10.110589801   16.205380969
    0.680968280   15.969760266   10.117152276   16.218373561
    0.688146912   15.982682731   10.123794580   16.231528228
    0.695325543   15.995765390   10.130517065   16.244845817
    0.702504174   16.009009094   10.137320087   16.258327186
    0.709682805   16.022414704   10.144204007   16.271973207
    0.716861436   16.035983097   10.151169193   16.285784767
    0.724040067   16.049715164   10.158216016   16.299762764
    0.731218698   16.063611808   10.165344854   16.313908111
    0.738397329   16.077673946   10.172556090   16.328221734
    0.745575960   16.091902510   10.179850112   16.342704576
    0.752754591   16.106298446   10.187227314   16.357357590
    0.759933222   16.120862713   10.194688096   16.372181747
    0.767111853   16.135596287   10.202232862   16.387178031
    0.774290484   16.150500157   10.209862023   16.402347442
    0.781469115   16.165575327   10.217575997   16.417690992
    0.788647746   16.180822816   10.225375205   16.433209713
    0.795826377   16.196243661   10.233260076   16.448904648
    0.803005008   16.211838911   10.241231044   16.464776858
    0.810183639   16.227609634   10.249288550   16.480827419
    0.817362270   16.243556910   10.257433040   16.497057425
    0.824540902   16.259681839   10.265664967   16.513467983
    0.831719533   16.275985537   10.273984790   16.530060220
    0.838898164   16.292469134   10.282392974   16.546835276
    0.846076795   16.309133780   10.290889991   16.563794311
    0.853255426   16.325980641   10.299476319   16.580938500
    0.860434057   16.343010901   10.308152443   16.598269039
    0.867612688   16.360225759   10.316918854   16.615787137
    0.874791319   16.377626435   10.325776050   16.633494024
    0.881969950   16.395214159   10.334724537   16.651390944
    0.889148581   16.412990165   10.343764824   16.669479152
    0.896327212   16.430955701   10.352897430   16.687759923
    0.903505843   16.449112110   10.362122883   16.706234581
    0.910684474   16.467460760   10.371441717   16.724904475
    0.917863105   16.486002955   10.380854472   16.743770935
    0.925041736   16.504740027   10.390361694   16.762835314
    0.932220367   16.523673340   10.399963939   16.782098990
    0.939398998   16.542804286   10.409661768   16.801563365
    0.946577629   16.562134277   10.419455752   16.821229864
    0.953756260   16.581664748   10.429346468   16.841099931
    0.960934891   16.601397155   10.439334502   16.861175030
    0.968113523   16.621332974   10.449420448   16.881456651
    0.975292154   16.641473706   10.459604907   16.901946303
    0.982470785   16.661820871   10.469888488   16.922645517
    0.989649416   16.682376014   10.480271810   16.943555848
    0.996828047   16.703140702   10.490755499   16.964678874
    1.004006678   16.724116526   10.501340190   16.986016196
    1.011185309   16.745305102   10.512026524   17.007569439
    1.018363940   16.766708068   10.522815156   17.029340251
    1.025542571   16.788327088   10.533706745   17.051330308
    1.032721202   16.810163850   10.544701960   17.073541306
    1.039899833   16.832220069   10.555801481   17.095974971
    1.047078464   16.854497485   10.567005996   17.118633052
    1.054257095   16.876997865   10.578316201   17.141517325
    1.061435726   16.899723000   10.589732803   17.164629593
    1.068614357   16.922674712   10.601256518   17.187971685
    1.075792988   16.945854846   10.612888072   17.211545459
    1.082971619   16.969265278   10.624628200   17.235352800
    1.090150250   16.992907919   10.636477649   17.259395622
    1.097328881   17.016784702   10.648437174   17.283675868
    1.104507513   17.040897589   10.660507541   17.308195508
    1.111686144   17.065248573   10.672689527   17.332956547
    1.118864775   17.089839678   10.684983917   17.357961015
    1.126043406   17.114672959   10.697391511   17.383210977
    1.133222037   17.139750505   10.709913117   17.408708528
    1.140400668   17.165074434   10.722549554   17.434455793
    1.147579299   17.190646899   10.735301653   17.460454935
    1.154757930   17.216470086   10.748170257   17.486708144
    1.161936561   17.242546214   10.761156218   17.513217648
    1.169115192   17.268877540   10.774260404   17.539985707
    1.176293823   17.295466351   10.787483690   17.567014619
    1.183472454   17.322314976   10.800826967   17.594306713
    1.190651085   17.349425776   10.814291136   17.621864359
    1.197829716   17.376801151   10.827877112   17.649689962
    1.205008347   17.404443539   10.841585820   17.677785963
    1.212186978   17.432355417   10.855418202   17.706154844
    1.219365609   17.460539302   10.869375209   17.734799124
    1.226544240   17.488997749   10.883457808   17.763721363
    1.233722871   17.517733356   10.897666977   17.792924161
    1.240901503   17.546748762   10.912003712   17.822410159
    1.248080134   17.576046648   10.926469017   17.852182041
    1.255258765   17.605629741   10.941063915   17.882242533
    1.262437396   17.635500809   10.955789441   17.912594404
    1.269616027   17.665662666   10.970646646   17.943240470
    1.276794658   17.696118174   10.985636594   17.974183588
    1.283973289   17.726870236   11.000760362   18.005426662
    1.291151920   17.757921803   11.016019039   18.036972632
    1.298330551   17.789275865   11.031413723   18.068824480
    1.305509182   17.820935482   11.046945549   18.100985277
    1.312687813   17.852903771   11.062615677   18.133458157
    1.319866444   17.885183894   11.078425271   18.166246265
    1.327045075   17.917779076   11.094375514   18.199352798
    1.334223706   17.950692567   11.110467590   18.232781004
    1.341402337   17.983927677   11.126702700   18.266534188
    1.348580968   18.017487778   11.143082071   18.300615711
    1.355759599   18.051376299   11.159606946   18.335028995
    1.362938230   18.085596731   11.176278588   18.369777518
    1.370116861   18.120152624   11.193098280   18.404864817
    1.377295492   18.155047588   11.210067321   18.440294488
    1.384474124   18.190285296   11.227187031   18.476070190
    1.391652755   18.225869485   11.244458748   18.512195640
    1.398831386   18.261803958   11.261883831   18.548674625
    1.406010017   18.298092581   11.279463659   18.585510990
    1.413188648   18.334739291   11.297199629   18.622708653
    1.420367279   18.371748094   11.315093163   18.660271594
    1.427545910   18.409123066   11.333145699   18.698203865
    1.434724541   18.446868356   11.351358702   18.736509590
    1.441903172   18.484988188   11.369733655   18.775192963
    1.449081803   18.523486860   11.388272065   18.814258252
    1.456260434   18.562368748   11.406975461   18.853709802
    1.463439065   18.601638304   11.425845394   18.893552033
    1.470617696   18.641300056   11.444883439   18.933789444
    1.477796327   18.681358624   11.464091195   18.974426613
    1.484974958   18.721818728   11.483470292   19.015468203
    1.492153589   18.762685151   11.503022377   19.056918968
    1.499332220   18.803962767   11.522749124   19.098783743
    1.506510851   18.845656574   11.542652243   19.141067450
    1.513689482   18.887771638   11.562733460   19.183775100
    1.520868114   18.930313107   11.582994528   19.226911795
    1.528046745   18.973286231   11.603437225   19.270482734
    1.535225376   19.016696369   11.624063363   19.314493212
    1.542404007   19.060548979   11.644874780   19.358948625
    1.549582638   19.104849627   11.665873343   19.403854467
    1.556761269   19.149603984   11.687060950   19.449216340
    1.563939900   19.194817833   11.708439529   19.495039949
    1.571118531   19.240497071   11.730011039   19.541331108
    1.578297162   19.286647706   11.751777468   19.588095742
    1.585475793   19.333275869   11.773740830   19.635339888
    1.592654424   19.380387806   11.795903167   19.683069696
    1.599833055   19.427989883   11.818266563   19.731291451
    1.607011686   19.476088600   11.840833143   19.780011558
    1.614190317   19.524690618   11.863605105   19.829236545
    1.621368948   19.573802720   11.886584651   19.878973066
    1.628547579   19.623431801   11.909774001   19.929227910
    1.635726210   19.673584907   11.933175413   19.980007997
    1.642904841   19.724269226   11.956791181   20.031320383
    1.650083472   19.775492093   11.980623647   20.083172256
    1.657262104   19.827260998   12.004675193   20.135570953
    1.664440735   19.879583622   12.028948240   20.188524015
    1.671619366   19.932467803   12.053445253   20.242039123
    1.678797997   19.985921512   12.078168738   20.296124074
    1.685976628   20.039952898   12.103121244   20.350786832
    1.693155259   20.094570290   12.128305364   20.406035538
    1.700333890   20.149782201   12.153723736   20.461878508
    1.707512521   20.205597328   12.179379044   20.518324233
    1.714691152   20.262024563   12.205274019   20.575381386
    1.721869783   20.319072992   12.231411438   20.633058825
    1.729048414   20.376751904   12.257794132   20.691365602
    1.736227045   20.435070796   12.284424976   20.750310961
    1.743405676   20.494039377   12.311306901   20.809904348
    1.750584307   20.553667565   12.338442889   20.870155402
    1.757762938   20.613965482   12.365835974   20.931073942
    1.764941569   20.674943495   12.393489247   20.992670025
    1.772120200   20.736612327   12.421405855   21.054954093
    1.779298831   20.798982892   12.449589005   21.117936731
    1.786477462   20.862066280   12.478041962   21.181628654
    1.793656093   20.925873895   12.506768048   21.246040897
    1.800834725   20.990417445   12.535770646   21.311184791
    1.808013356   21.055708876   12.565053208   21.377071875
    1.815191987   21.121760424   12.594619256   21.443713954
    1.822370618   21.188584618   12.624472371   21.511123109
    1.829549249   21.256194270   12.654616198   21.579311692
    1.836727880   21.324602472   12.685054456   21.648292314
    1.843906511   21.393822733   12.715790935   21.718077959
    1.851085142   21.463869008   12.746829503   21.788682003
    1.858263773   21.534755490   12.778174101   21.860118071
    1.865442404   21.606496824   12.809828744   21.932400234
    1.872621035   21.679107902   12.841797530   22.005542718
    1.879799666   21.752603895   12.874084635   22.079559894
    1.886978297   21.827000328   12.906694316   22.154466525
    1.894156928   21.902313254   12.939630918   22.230278496
    1.901335559   21.978559594   12.972898888   22.307012045
    1.908514190   22.055756663   13.006502762   22.384683179
    1.915692821   22.133921761   13.040447153   22.463308329
    1.922871452   22.213072709   13.074736773   22.542904506
    1.930050083   22.293227895   13.109376433   22.623489188
    1.937228715   22.374406251   13.144371044   22.705080333
    1.944407346   22.456627237   13.179725622   22.787696380
    1.951585977   22.539910803   13.215445278   22.871356248
    1.958764608   22.624277390   13.251535233   22.956079334
    1.965943239   22.709748018   13.288000854   23.041885528
    1.973121870   22.796344182   13.324847613   23.128795186
    1.980300501   22.884089022   13.362081080   23.216829649
    1.987479132   22.973006427   13.399706969   23.306010852
    1.994657763   23.063119580   13.437731122   23.396360506
    2.001836394   23.154452469   13.476159480   23.487901115
    2.009015025   23.247030725   13.514998120   23.580657581
    2.016193656   23.340880344   13.554253234   23.674654387
    2.023372287   23.436028253   13.593931210   23.769915782
    2.030550918   23.532502479   13.634038664   23.866467598
    2.037729549   23.630331506   13.674582270   23.964336816
    2.044908180   23.729544687   13.715568824   24.063550865
    2.052086811   23.830172349   13.757005299   24.164137568
    2.059265442   23.932245890   13.798898849   24.266125774
    2.066444073   24.035797786   13.841256802   24.369545362
    2.073622705   24.140861605   13.884086666   24.474427188
    2.080801336   24.247472055   13.927396132   24.580803092
    2.087979967   24.355665025   13.971193080   24.688705929
    2.095158598   24.465477644   14.015485588   24.798169615
    2.102337229   24.576948338   14.060281932   24.909229171
    2.109515860   24.690116890   14.105590595   25.021920768
    2.116694491   24.805024501   14.151420261   25.136281780
    2.123873122   24.921713867   14.197779834   25.252350836
    2.131051753   25.040229259   14.244678502   25.370167879
    2.138230384   25.160616580   14.292125729   25.489774242
    2.145409015   25.282923442   14.340131204   25.611212686
    2.152587646   25.407199241   14.388704810   25.734527444
    2.159766277   25.533495220   14.437856708   25.859764288
    2.166944908   25.661864677   14.487597358   25.986970671
    2.174123539   25.792363292   14.537937521   26.116195932
    2.181302170   25.925048792   14.588888259   26.247491118
    2.188480801   26.059981064   14.640460942   26.380909073
    2.195659432   26.197222514   14.692667274   26.516504667
    2.202838063   26.336838179   14.745519293   26.654334887
    2.210016694   26.478895811   14.799029396   26.794458871
    2.217195326   26.623465964   14.853210350   26.936937966
    2.224373957   26.770622209   14.908075304   27.081835904
    2.231552588   26.920441934   14.963637826   27.229219499
    2.238731219   27.073006013   15.019911905   27.379158285
    2.245909850   27.228398376   15.076911956   27.531724106
    2.253088481   27.386706875   15.134652860   27.686991863
    2.260267112   27.548023582   15.193149976   27.845039692
    2.267445743   27.712444955   15.252419147   28.005949072
    2.274624374   27.880072071   15.312476674   28.169805020
    2.281803005   28.051010905   15.373339192   28.336696259
    2.288981636   28.225372879   15.435023850   28.506715450
    2.296160267   28.403275365   15.497549457   28.679959578
    2.303338898   28.584841587   15.560935311   28.856529994
    2.310517529   28.770200894   15.625200078   29.036532624
    2.317696160   28.959489723   15.690364062   29.220078738
    2.324874791   29.152852077   15.756448619   29.407284908
    2.332053422   29.350439826   15.823474751   29.598273082
    2.339232053   29.552413508   15.891465586   29.793171345
    2.346410684   29.758942806   15.960445316   29.992114119
    2.353589316   29.970206853   16.030437686   30.195242099
    2.360767947   30.186395186   16.101467480   30.402702938
    2.367946578   30.407710592   16.173561556   30.614654281
    2.375125209   30.634369446   16.246748076   30.831263049
    2.382303840   30.866599909   16.321055651   31.052702977
    2.389482471   31.104644746   16.396514227   31.279157287
    2.396661102   31.348763029   16.473155455   31.510819607
    2.403839733   31.599231639   16.551012448   31.747894952
    2.411018364   31.856346768   16.630119793   31.990600459
    2.418196995   32.120425598   16.710513771   32.239166159
    2.425375626   32.391808434   16.792232683   32.493836090
    2.432554257   32.670861542   16.875316985   32.754870093
    2.439732888   32.957979495   16.959809310   33.022544560
    2.446911519   33.253588380   17.045755307   33.297153392
    2.454090150   33.558148188   17.133202763   33.579010163
    2.461268781   33.872156375   17.222202040   33.868449313
    2.468447412   34.196152761   17.312806962   34.165828236
    2.475626043   34.530724070   17.405075037   34.471529648
    2.482804674   34.876511873   17.499067647   34.785964485
    2.489983306   35.234222796   17.594850634   35.109575440
    2.497161937   35.604627782   17.692494716   35.442837654
    2.504340568   35.988572674   17.792076104   35.786262973
    2.511519199   36.386991614   17.893677425   36.140404449
    2.518697830   36.800919407   17.997388467   36.505860704
    2.525876461   37.231506337   18.103307114   36.883282069
    2.533055092   37.680035962   18.211540715   37.273376454
    2.540233723   38.147945159   18.322207246   37.676914095
