# energy grid [eV]     ieps_x  ieps_y  ieps_z
#
    0.200000000    8.445609872    6.454785378    8.962682299
    0.207178631    8.443757816    6.453569051    8.960683268
    0.214357262    8.441841484    6.452310432    8.958614862
    0.221535893    8.439860981    6.451009583    8.956477194
    0.228714524    8.437816418    6.449666568    8.954270384
    0.235893155    8.435707907    6.448281452    8.951994553
    0.243071786    8.433535565    6.446854302    8.949649826
    0.250250417    8.431299510    6.445385189    8.947236334
    0.257429048    8.428999867    6.443874184    8.944754208
    0.264607679    8.426636760    6.442321361    8.942203586
    0.271786311    8.424210321    6.440726794    8.939584607
    0.278964942    8.421720682    6.439090561    8.936897416
    0.286143573    8.419167979    6.437412742    8.934142160
    0.293322204    8.416552352    6.435693418    8.931318989
    0.300500835    8.413873944    6.433932672    8.928428058
    0.307679466    8.411132901    6.432130590    8.925469525
    0.314858097    8.408329372    6.430287257    8.922443552
    0.322036728    8.405463510    6.428402764    8.919350303
    0.329215359    8.402535472    6.426477201    8.916189947
    0.336393990    8.399545414    6.424510660    8.912962655
    0.343572621    8.396493501    6.422503237    8.909668602
    0.350751252    8.393379896    6.420455027    8.906307968
    0.357929883    8.390204768    6.418366129    8.902880934
    0.365108514    8.386968289    6.416236642    8.899387685
    0.372287145    8.383670632    6.414066670    8.895828410
    0.379465776    8.380311976    6.411856314    8.892203300
    0.386644407    8.376892500    6.409605681    8.888512551
    0.393823038    8.373412388    6.407314878    8.884756361
    0.401001669    8.369871827    6.404984014    8.880934930
    0.408180301    8.366271005    6.402613199    8.877048464
    0.415358932    8.362610114    6.400202546    8.873097170
    0.422537563    8.358889350    6.397752169    8.869081260
    0.429716194    8.355108911    6.395262183    8.865000946
    0.436894825    8.351268997    6.392732707    8.860856447
    0.444073456    8.347369811    6.390163860    8.856647981
    0.451252087    8.343411559    6.387555761    8.852375772
    0.458430718    8.339394452    6.384908535    8.848040045
    0.465609349    8.335318699    6.382222305    8.843641030
    0.472787980    8.331184516    6.379497196    8.839178958
    0.479966611    8.326992120    6.376733337    8.834654064
    0.487145242    8.322741730    6.373930855    8.830066585
    0.494323873    8.318433567    6.371089882    8.825416761
    0.501502504    8.314067858    6.368210550    8.820704835
    0.508681135    8.309644829    6.365292992    8.815931053
    0.515859766    8.305164709    6.362337343    8.811095663
    0.523038397    8.300627732    6.359343740    8.806198917
    0.530217028    8.296034131    6.356312321    8.801241068
    0.537395659    8.291384143    6.353243226    8.796222373
    0.544574290    8.286678009    6.350136596    8.791143089
    0.551752922    8.281915970    6.346992573    8.786003480
    0.558931553    8.277098270    6.343811301    8.780803808
    0.566110184    8.272225155    6.340592926    8.775544341
    0.573288815    8.267296873    6.337337594    8.770225346
    0.580467446    8.262313677    6.334045454    8.764847096
    0.587646077    8.257275818    6.330716654    8.759409863
    0.594824708    8.252183552    6.327351346    8.753913925
    0.602003339    8.247037136    6.323949683    8.748359559
    0.609181970    8.241836830    6.320511816    8.742747045
    0.616360601    8.236582894    6.317037902    8.737076667
    0.623539232    8.231275593    6.313528096    8.731348709
    0.630717863    8.225915192    6.309982555    8.725563458
    0.637896494    8.220501958    6.306401438    8.719721205
    0.645075125    8.215036160    6.302784905    8.713822239
    0.652253756    8.209518071    6.299133117    8.707866856
    0.659432387    8.203947962    6.295446236    8.701855348
    0.666611018    8.198326109    6.291724424    8.695788016
    0.673789649    8.192652789    6.287967848    8.689665157
    0.680968280    8.186928279    6.284176671    8.683487073
    0.688146912    8.181152861    6.280351062    8.677254066
    0.695325543    8.175326816    6.276491188    8.670966443
    0.702504174    8.169450427    6.272597217    8.664624510
    0.709682805    8.163523980    6.268669320    8.658228575
    0.716861436    8.157547761    6.264707667    8.651778948
    0.724040067    8.151522060    6.260712432    8.645275942
    0.731218698    8.145447165    6.256683786    8.638719870
    0.738397329    8.139323368    6.252621904    8.632111047
    0.745575960    8.133150961    6.248526961    8.625449790
    0.752754591    8.126930240    6.244399132    8.618736418
    0.759933222    8.120661500    6.240238596    8.611971250
    0.767111853    8.114345037    6.236045528    8.605154608
    0.774290484    8.107981150    6.231820110    8.598286815
    0.781469115    8.101570139    6.227562519    8.591368194
    0.788647746    8.095112303    6.223272936    8.584399071
    0.795826377    8.088607947    6.218951543    8.577379774
    0.803005008    8.082057372    6.214598521    8.570310630
    0.810183639    8.075460883    6.210214055    8.563191969
    0.817362270    8.068818785    6.205798326    8.556024121
    0.824540902    8.062131386    6.201351521    8.548807419
    0.831719533    8.055398993    6.196873824    8.541542195
    0.838898164    8.048621915    6.192365421    8.534228784
    0.846076795    8.041800461    6.187826499    8.526867520
    0.853255426    8.034934941    6.183257245    8.519458740
    0.860434057    8.028025669    6.178657848    8.512002782
    0.867612688    8.021072955    6.174028496    8.504499983
    0.874791319    8.014077114    6.169369379    8.496950683
    0.881969950    8.007038460    6.164680686    8.489355221
    0.889148581    7.999957307    6.159962608    8.481713939
    0.896327212    7.992833972    6.155215337    8.474027179
    0.903505843    7.985668770    6.150439064    8.466295282
    0.910684474    7.978462019    6.145633982    8.458518593
    0.917863105    7.971214037    6.140800284    8.450697456
    0.925041736    7.963925142    6.135938162    8.442832214
    0.932220367    7.956595653    6.131047811    8.434923215
    0.939398998    7.949225890    6.126129426    8.426970803
    0.946577629    7.941816174    6.121183200    8.418975326
    0.953756260    7.934366824    6.116209331    8.410937130
    0.960934891    7.926878162    6.111208012    8.402856564
    0.968113523    7.919350510    6.106179441    8.394733975
    0.975292154    7.911784190    6.101123814    8.386569712
    0.982470785    7.904179523    6.096041328    8.378364125
    0.989649416    7.896536834    6.090932180    8.370117564
    0.996828047    7.888856444    6.085796567    8.361830377
    1.004006678    7.881138679    6.080634689    8.353502915
    1.011185309    7.873383860    6.075446743    8.345135528
    1.018363940    7.865592312    6.070232928    8.336728568
    1.025542571    7.857764360    6.064993442    8.328282386
    1.032721202    7.849900327    6.059728485    8.319797332
    1.039899833    7.842000539    6.054438257    8.311273759
    1.047078464    7.834065319    6.049122956    8.302712017
    1.054257095    7.826094992    6.043782782    8.294112458
    1.061435726    7.818089884    6.038417936    8.285475434
    1.068614357    7.810050319    6.033028618    8.276801297
    1.075792988    7.801976621    6.027615028    8.268090399
    1.082971619    7.793869117    6.022177367    8.259343091
    1.090150250    7.785728129    6.016715835    8.250559725
    1.097328881    7.777553984    6.011230633    8.241740653
    1.104507513    7.769347006    6.005721962    8.232886226
    1.111686144    7.761107519    6.000190023    8.223996796
    1.118864775    7.752835847    5.994635017    8.215072715
    1.126043406    7.744532315    5.989057144    8.206114333
    1.133222037    7.736197247    5.983456607    8.197122001
    1.140400668    7.727830967    5.977833605    8.188096070
    1.147579299    7.719433797    5.972188341    8.179036890
    1.154757930    7.711006062    5.966521015    8.169944812
    1.161936561    7.702548084    5.960831829    8.160820185
    1.169115192    7.694060185    5.955120983    8.151663359
    1.176293823    7.685542689    5.949388679    8.142474683
    1.183472454    7.676995916    5.943635117    8.133254505
    1.190651085    7.668420189    5.937860498    8.124003174
    1.197829716    7.659815828    5.932065024    8.114721037
    1.205008347    7.651183155    5.926248895    8.105408443
    1.212186978    7.642522488    5.920412310    8.096065737
    1.219365609    7.633834148    5.914555472    8.086693266
    1.226544240    7.625118455    5.908678580    8.077291376
    1.233722871    7.616375726    5.902781833    8.067860412
    1.240901503    7.607606279    5.896865433    8.058400718
    1.248080134    7.598810433    5.890929578    8.048912639
    1.255258765    7.589988504    5.884974469    8.039396518
    1.262437396    7.581140809    5.879000304    8.029852698
    1.269616027    7.572267662    5.873007283    8.020281520
    1.276794658    7.563369380    5.866995604    8.010683325
    1.283973289    7.554446275    5.860965467    8.001058455
    1.291151920    7.545498663    5.854917069    7.991407249
    1.298330551    7.536526855    5.848850608    7.981730046
    1.305509182    7.527531165    5.842766282    7.972027185
    1.312687813    7.518511902    5.836664289    7.962299002
    1.319866444    7.509469379    5.830544826    7.952545834
    1.327045075    7.500403904    5.824408089    7.942768017
    1.334223706    7.491315787    5.818254276    7.932965885
    1.341402337    7.482205336    5.812083581    7.923139773
    1.348580968    7.473072858    5.805896201    7.913290014
    1.355759599    7.463918660    5.799692331    7.903416939
    1.362938230    7.454743047    5.793472167    7.893520879
    1.370116861    7.445546324    5.787235902    7.883602165
    1.377295492    7.436328794    5.780983731    7.873661127
    1.384474124    7.427090761    5.774715848    7.863698091
    1.391652755    7.417832527    5.768432445    7.853713385
    1.398831386    7.408554391    5.762133717    7.843707335
    1.406010017    7.399256655    5.755819855    7.833680266
    1.413188648    7.389939616    5.749491051    7.823632502
    1.420367279    7.380603574    5.743147497    7.813564366
    1.427545910    7.371248824    5.736789384    7.803476179
    1.434724541    7.361875663    5.730416902    7.793368262
    1.441903172    7.352484386    5.724030242    7.783240934
    1.449081803    7.343075286    5.717629592    7.773094514
    1.456260434    7.333648655    5.711215143    7.762929319
    1.463439065    7.324204786    5.704787082    7.752745664
    1.470617696    7.314743969    5.698345598    7.742543864
    1.477796327    7.305266492    5.691890877    7.732324233
    1.484974958    7.295772645    5.685423107    7.722087083
    1.492153589    7.286262714    5.678942474    7.711832725
    1.499332220    7.276736986    5.672449163    7.701561469
    1.506510851    7.267195744    5.665943360    7.691273623
    1.513689482    7.257639272    5.659425250    7.680969494
    1.520868114    7.248067853    5.652895016    7.670649388
    1.528046745    7.238481768    5.646352842    7.660313610
    1.535225376    7.228881297    5.639798910    7.649962463
    1.542404007    7.219266718    5.633233402    7.639596248
    1.549582638    7.209638308    5.626656501    7.629215268
    1.556761269    7.199996345    5.620068386    7.618819820
    1.563939900    7.190341102    5.613469238    7.608410203
    1.571118531    7.180672855    5.606859237    7.597986713
    1.578297162    7.170991873    5.600238562    7.587549645
    1.585475793    7.161298430    5.593607390    7.577099294
    1.592654424    7.151592795    5.586965900    7.566635950
    1.599833055    7.141875236    5.580314267    7.556159906
    1.607011686    7.132146021    5.573652670    7.545671450
    1.614190317    7.122405415    5.566981282    7.535170871
    1.621368948    7.112653683    5.560300279    7.524658455
    1.628547579    7.102891089    5.553609834    7.514134488
    1.635726210    7.093117893    5.546910123    7.503599253
    1.642904841    7.083334357    5.540201316    7.493053032
    1.650083472    7.073540740    5.533483586    7.482496107
    1.657262104    7.063737299    5.526757104    7.471928755
    1.664440735    7.053924292    5.520022041    7.461351256
    1.671619366    7.044101972    5.513278567    7.450763886
    1.678797997    7.034270595    5.506526851    7.440166918
    1.685976628    7.024430411    5.499767060    7.429560628
    1.693155259    7.014581672    5.492999363    7.418945285
    1.700333890    7.004724628    5.486223926    7.408321161
    1.707512521    6.994859527    5.479440915    7.397688525
    1.714691152    6.984986614    5.472650496    7.387047643
    1.721869783    6.975106137    5.465852833    7.376398781
    1.729048414    6.965218337    5.459048090    7.365742203
    1.736227045    6.955323459    5.452236429    7.355078172
    1.743405676    6.945421743    5.445418014    7.344406949
    1.750584307    6.935513428    5.438593004    7.333728794
    1.757762938    6.925598752    5.431761562    7.323043963
    1.764941569    6.915677953    5.424923846    7.312352714
    1.772120200    6.905751266    5.418080016    7.301655302
    1.779298831    6.895818924    5.411230229    7.290951979
    1.786477462    6.885881160    5.404374644    7.280242997
    1.793656093    6.875938205    5.397513417    7.269528606
    1.800834725    6.865990288    5.390646703    7.258809055
    1.808013356    6.856037637    5.383774658    7.248084591
    1.815191987    6.846080479    5.376897436    7.237355459
    1.822370618    6.836119039    5.370015189    7.226621902
    1.829549249    6.826153540    5.363128071    7.215884163
    1.836727880    6.816184206    5.356236233    7.205142482
    1.843906511    6.806211255    5.349339826    7.194397098
    1.851085142    6.796234909    5.342439000    7.183648249
    1.858263773    6.786255384    5.335533904    7.172896170
    1.865442404    6.776272896    5.328624686    7.162141096
    1.872621035    6.766287662    5.321711495    7.151383258
    1.879799666    6.756299893    5.314794476    7.140622888
    1.886978297    6.746309802    5.307873776    7.129860216
    1.894156928    6.736317600    5.300949539    7.119095469
    1.901335559    6.726323495    5.294021909    7.108328872
    1.908514190    6.716327695    5.287091030    7.097560652
    1.915692821    6.706330405    5.280157045    7.086791030
    1.922871452    6.696331831    5.273220094    7.076020228
    1.930050083    6.686332175    5.266280319    7.065248465
    1.937228715    6.676331639    5.259337859    7.054475961
    1.944407346    6.666330424    5.252392854    7.043702930
    1.951585977    6.656328727    5.245445442    7.032929589
    1.958764608    6.646326746    5.238495759    7.022156151
    1.965943239    6.636324676    5.231543943    7.011382827
    1.973121870    6.626322713    5.224590128    7.000609828
    1.980300501    6.616321049    5.217634451    6.989837361
    1.987479132    6.606319874    5.210677044    6.979065635
    1.994657763    6.596319379    5.203718041    6.968294854
    2.001836394    6.586319753    5.196757573    6.957525222
    2.009015025    6.576321182    5.189795772    6.946756941
    2.016193656    6.566323852    5.182832769    6.935990212
    2.023372287    6.556327946    5.175868693    6.925225234
    2.030550918    6.546333648    5.168903673    6.914462204
    2.037729549    6.536341138    5.161937837    6.903701319
    2.044908180    6.526350596    5.154971311    6.892942772
    2.052086811    6.516362201    5.148004222    6.882186756
    2.059265442    6.506376129    5.141036695    6.871433462
    2.066444073    6.496392556    5.134068855    6.860683081
    2.073622705    6.486411655    5.127100824    6.849935799
    2.080801336    6.476433599    5.120132726    6.839191803
    2.087979967    6.466458559    5.113164683    6.828451278
    2.095158598    6.456486704    5.106196815    6.817714408
    2.102337229    6.446518203    5.099229243    6.806981374
    2.109515860    6.436553223    5.092262085    6.796252357
    2.116694491    6.426591929    5.085295461    6.785527535
    2.123873122    6.416634484    5.078329488    6.774807085
    2.131051753    6.406681052    5.071364282    6.764091182
    2.138230384    6.396731794    5.064399959    6.753380002
    2.145409015    6.386786868    5.057436635    6.742673716
    2.152587646    6.376846434    5.050474423    6.731972495
    2.159766277    6.366910649    5.043513437    6.721276510
    2.166944908    6.356979668    5.036553789    6.710585927
    2.174123539    6.347053644    5.029595590    6.699900914
    2.181302170    6.337132732    5.022638952    6.689221635
    2.188480801    6.327217082    5.015683984    6.678548254
    2.195659432    6.317306844    5.008730795    6.667880933
    2.202838063    6.307402167    5.001779494    6.657219832
    2.210016694    6.297503198    4.994830188    6.646565110
    2.217195326    6.287610083    4.987882983    6.635916925
    2.224373957    6.277722967    4.980937985    6.625275432
    2.231552588    6.267841993    4.973995298    6.614640787
    2.238731219    6.257967302    4.967055028    6.604013142
    2.245909850    6.248099036    4.960117276    6.593392650
    2.253088481    6.238237333    4.953182146    6.582779459
    2.260267112    6.228382331    4.946249739    6.572173719
    2.267445743    6.218534166    4.939320155    6.561575578
    2.274624374    6.208692975    4.932393494    6.550985180
    2.281803005    6.198858891    4.925469856    6.540402671
    2.288981636    6.189032045    4.918549338    6.529828193
    2.296160267    6.179212571    4.911632038    6.519261888
    2.303338898    6.169400597    4.904718053    6.508703896
    2.310517529    6.159596252    4.897807478    6.498154355
    2.317696160    6.149799664    4.890900408    6.487613404
    2.324874791    6.140010958    4.883996937    6.477081178
    2.332053422    6.130230260    4.877097159    6.466557811
    2.339232053    6.120457693    4.870201165    6.456043437
    2.346410684    6.110693379    4.863309049    6.445538187
    2.353589316    6.100937439    4.856420901    6.435042192
    2.360767947    6.091189993    4.849536810    6.424555580
    2.367946578    6.081451160    4.842656866    6.414078480
    2.375125209    6.071721057    4.835781158    6.403611018
    2.382303840    6.061999799    4.828909773    6.393153319
    2.389482471    6.052287502    4.822042799    6.382705505
    2.396661102    6.042584279    4.815180321    6.372267700
    2.403839733    6.032890242    4.808322425    6.361840025
    2.411018364    6.023205503    4.801469195    6.351422599
    2.418196995    6.013530171    4.794620715    6.341015540
    2.425375626    6.003864356    4.787777069    6.330618965
    2.432554257    5.994208163    4.780938338    6.320232990
    2.439732888    5.984561701    4.774104604    6.309857730
    2.446911519    5.974925074    4.767275948    6.299493297
    2.454090150    5.965298386    4.760452449    6.289139804
    2.461268781    5.955681739    4.753634188    6.278797360
    2.468447412    5.946075236    4.746821242    6.268466076
    2.475626043    5.936478977    4.740013689    6.258146058
    2.482804674    5.926893060    4.733211605    6.247837415
    2.489983306    5.917317585    4.726415069    6.237540250
    2.497161937    5.907752648    4.719624153    6.227254670
    2.504340568    5.898198345    4.712838934    6.216980775
    2.511519199    5.888654770    4.706059486    6.206718670
    2.518697830    5.879122019    4.699285881    6.196468453
    2.525876461    5.869600181    4.692518191    6.186230224
    2.533055092    5.860089351    4.685756490    6.176004082
    2.540233723    5.850589616    4.679000848    6.165790123
