# energy grid [eV]     epsr_x  epsr_y  epsr_z
#
    0.200000000    8.237259889   10.999304528    9.218567920
    0.207178631    8.238814848   11.001472562    9.220355174
    0.214357262    8.240425713   11.003718311    9.222206456
    0.221535893    8.242092599   11.006041912    9.224121873
    0.228714524    8.243815626   11.008443503    9.226101536
    0.235893155    8.245594918   11.010923231    9.228145561
    0.243071786    8.247430604   11.013481246    9.230254065
    0.250250417    8.249322819   11.016117705    9.232427172
    0.257429048    8.251271701   11.018832768    9.234665009
    0.264607679    8.253277394   11.021626602    9.236967708
    0.271786311    8.255340046   11.024499382    9.239335405
    0.278964942    8.257459812   11.027451283    9.241768240
    0.286143573    8.259636850   11.030482492    9.244266358
    0.293322204    8.261871325   11.033593197    9.246829907
    0.300500835    8.264163407   11.036783595    9.249459040
    0.307679466    8.266513271   11.040053887    9.252153917
    0.314858097    8.268921099   11.043404282    9.254914700
    0.322036728    8.271387078   11.046834994    9.257741557
    0.329215359    8.273911400   11.050346245    9.260634659
    0.336393990    8.276494266   11.053938262    9.263594185
    0.343572621    8.279135880   11.057611279    9.266620317
    0.350751252    8.281836456   11.061365538    9.269713241
    0.357929883    8.284596212   11.065201286    9.272873151
    0.365108514    8.287415373   11.069118781    9.276100245
    0.372287145    8.290294174   11.073118284    9.279394726
    0.379465776    8.293232854   11.077200067    9.282756803
    0.386644407    8.296231662   11.081364408    9.286186690
    0.393823038    8.299290853   11.085611594    9.289684610
    0.401001669    8.302410693   11.089941920    9.293250787
    0.408180301    8.305591453   11.094355690    9.296885455
    0.415358932    8.308833416   11.098853216    9.300588852
    0.422537563    8.312136872   11.103434821    9.304361225
    0.429716194    8.315502122   11.108100836    9.308202826
    0.436894825    8.318929477   11.112851602    9.312113914
    0.444073456    8.322419257   11.117687471    9.316094754
    0.451252087    8.325971795   11.122608805    9.320145622
    0.458430718    8.329587435   11.127615978    9.324266799
    0.465609349    8.333266532   11.132709375    9.328458574
    0.472787980    8.337009454   11.137889393    9.332721245
    0.479966611    8.340816584   11.143156442    9.337055119
    0.487145242    8.344688318   11.148510946    9.341460511
    0.494323873    8.348625066   11.153953342    9.345937745
    0.501502504    8.352627256   11.159484083    9.350487157
    0.508681135    8.356695330   11.165103635    9.355109091
    0.515859766    8.360829752   11.170812484    9.359803903
    0.523038397    8.365031001   11.176611130    9.364571962
    0.530217028    8.369299578   11.182500094    9.369413645
    0.537395659    8.373636006   11.188479915    9.374329344
    0.544574290    8.378040831   11.194551154    9.379319466
    0.551752922    8.382514625   11.200714393    9.384384431
    0.558931553    8.387057985   11.206970240    9.389524672
    0.566110184    8.391671539   11.213319326    9.394740642
    0.573288815    8.396355946   11.219762311    9.400032808
    0.580467446    8.401111898   11.226299885    9.405401659
    0.587646077    8.405940127   11.232932769    9.410847702
    0.594824708    8.410841403   11.239661720    9.416371466
    0.602003339    8.415816541   11.246487533    9.421973504
    0.609181970    8.420866405   11.253411042    9.427654393
    0.616360601    8.425991913   11.260433128    9.433414741
    0.623539232    8.431194041   11.267554723    9.439255182
    0.630717863    8.436473831   11.274776811    9.445176386
    0.637896494    8.441832396   11.282100436    9.451179060
    0.645075125    8.447270933   11.289526712    9.457263950
    0.652253756    8.452790725   11.297056824    9.463431848
    0.659432387    8.458393158   11.304692041    9.469683595
    0.666611018    8.464079733   11.312433725    9.476020088
    0.673789649    8.469852075   11.320283343    9.482442287
    0.680968280    8.475711960   11.328242480    9.488951221
    0.688146912    8.481661325   11.336312852    9.495548002
    0.695325543    8.487702299   11.344496332    9.502233829
    0.702504174    8.493837226   11.352794964    9.509010006
    0.709682805    8.500068705   11.361210994    9.515877958
    0.716861436    8.506399620   11.369746901    9.522839246
    0.724040067    8.512833198   11.378405432    9.529895588
    0.731218698    8.519373062   11.387189649    9.537048892
    0.738397329    8.526023301   11.396102986    9.544301282
    0.745575960    8.532788560   11.405149313    9.551655141
    0.752754591    8.539674144   11.414333022    9.559113160
    0.759933222    8.546686151   11.423659129    9.566678395
    0.767111853    8.553831639   11.433133405    9.574354349
    0.774290484    8.561118835   11.442762537    9.582145063
    0.781469115    8.568557405   11.452554338    9.590055237
    0.788647746    8.576158790   11.462518010    9.598090394
    0.795826377    8.583936659   11.472664498    9.606257075
    0.803005008    8.591907492   11.483006935    9.614563110
    0.810183639    8.600091351   11.493561251    9.623017972
    0.817362270    8.608512929   11.504346979    9.631633251
    0.824540902    8.617202954   11.515388353    9.640423297
    0.831719533    8.626200144   11.526715817    9.649406109
    0.838898164    8.635553899   11.538368119    9.658604563
    0.846076795    8.645328100   11.550395258    9.668048146
    0.853255426    8.655606466   11.562862639    9.677775390
    0.860434057    8.666500077   11.575856907    9.687837309
    0.867612688    8.678157685   11.589493948    9.698302087
    0.874791319    8.690778603   11.603928884    9.709260961
    0.881969950    8.704624094   11.619364904    9.720833399
    0.889148581    8.720007115   11.636045321    9.733162437
    0.896327212    8.737177028   11.654164175    9.746362166
    0.903505843    8.755764127   11.673435519    9.760264702
    0.910684474    8.772497526   11.691323851    9.773380663
    0.917863105    8.773717666   11.697238250    9.779488519
    0.925041736    8.730073700   11.668420675    9.765219188
    0.932220367    8.658342458   11.617880998    9.738215366
    0.939398998    8.630057677   11.601088200    9.731062263
    0.946577629    8.638549341   11.612871400    9.740722311
    0.953756260    8.657140229   11.632546034    9.755044453
    0.960934891    8.676281092   11.652708836    9.769679689
    0.968113523    8.693963147   11.671803612    9.783713855
    0.975292154    8.710105549   11.689769239    9.797111050
    0.982470785    8.725002342   11.706835441    9.810006209
    0.989649416    8.738957365   11.723239713    9.822538809
    0.996828047    8.752215182   11.739173779    9.834821418
    1.004006678    8.764961039   11.754783600    9.846939686
    1.011185309    8.777333634   11.770179298    9.858958176
    1.018363940    8.789437445   11.785444765    9.870926004
    1.025542571    8.801352243   11.800645080    9.882881185
    1.032721202    8.813139973   11.815831905    9.894853797
    1.039899833    8.824849656   11.831047353    9.906868241
    1.047078464    8.836520884   11.846326778    9.918944875
    1.054257095    8.848186339   11.861700833    9.931101199
    1.061435726    8.859873639   11.877197018    9.943352752
    1.068614357    8.871606724   11.892840907    9.955713810
    1.075792988    8.883406921   11.908657154    9.968197953
    1.082971619    8.895293795   11.924670387    9.980818550
    1.090150250    8.907285857   11.940906041    9.993589213
    1.097328881    8.919401193   11.957391210   10.006524241
    1.104507513    8.931658050   11.974155566   10.019639094
    1.111686144    8.944075433   11.991232417   10.032950925
    1.118864775    8.956673751   12.008659981   10.046479219
    1.126043406    8.969475555   12.026482980   10.060246577
    1.133222037    8.982506442   12.044754689   10.074279727
    1.140400668    8.995796198   12.063539629   10.088610839
    1.147579299    9.009380282   12.082917193   10.103279294
    1.154757930    9.023301837   12.102986576   10.118334092
    1.161936561    9.037614423   12.123873611   10.133837176
    1.169115192    9.052385832   12.145740330   10.149868088
    1.176293823    9.067703438   12.168798446   10.166530529
    1.183472454    9.083681693   12.193328294   10.183961568
    1.190651085    9.100472396   12.219704799   10.202344276
    1.197829716    9.118277612   12.248430199   10.221923638
    1.205008347    9.137361469   12.280163900   10.243021068
    1.212186978    9.158041956   12.315701541   10.266024240
    1.219365609    9.180584229   12.355703911   10.291255285
    1.226544240    9.204679783   12.399374130   10.318327644
    1.233722871    9.227293913   12.438990845   10.343488099
    1.240901503    9.235465060   12.441621128   10.350725569
    1.248080134    9.199870971   12.332780713   10.303826705
    1.255258765    9.133043454   12.144277612   10.218257627
    1.262437396    9.108034779   12.061617592   10.184212537
    1.269616027    9.121617590   12.076582617   10.197696945
    1.276794658    9.146306527   12.119346085   10.224762263
    1.283973289    9.171894547   12.163959231   10.252793421
    1.291151920    9.196194716   12.204838271   10.279076899
    1.298330551    9.219098951   12.241675267   10.303464377
    1.305509182    9.240912166   12.275206818   10.326315470
    1.312687813    9.261958637   12.306213534   10.348011287
    1.319866444    9.282506482   12.335327229   10.368860689
    1.327045075    9.302766754   12.363027334   10.389098553
    1.334223706    9.322906791   12.389673190   10.408901479
    1.341402337    9.343063599   12.415535941   10.428403300
    1.348580968    9.363354667   12.440823344   10.447707143
    1.355759599    9.383886482   12.465697881   10.466894224
    1.362938230    9.404761504   12.490289831   10.486030187
    1.370116861    9.426084387   12.514706838   10.505169713
    1.377295492    9.447968162   12.539041163   10.524359976
    1.384474124    9.470541114   12.563375501   10.543643347
    1.391652755    9.493955122   12.587788037   10.563059666
    1.398831386    9.518396402   12.612357323   10.582648306
    1.406010017    9.544099608   12.637167422   10.602450237
    1.413188648    9.571365649   12.662313555   10.622510212
    1.420367279    9.600580158   12.687907484   10.642878994
    1.427545910    9.632215271   12.714077919   10.663614637
    1.434724541    9.666740614   12.740945738   10.684778384
    1.441903172    9.704143684   12.768492256   10.706406854
    1.449081803    9.741884911   12.796000370   10.728388372
    1.456260434    9.767620143   12.820069274   10.750017902
    1.463439065    9.748261985   12.831630512   10.769327689
    1.470617696    9.681890931   12.830084272   10.786289607
    1.477796327    9.657439723   12.839551218   10.806498134
    1.484974958    9.688895035   12.863695206   10.830970383
    1.492153589    9.741975375   12.892984524   10.857795338
    1.499332220    9.802460724   12.923323433   10.886325110
    1.506510851    9.867458638   12.953796329   10.916516471
    1.513689482    9.934321600   12.984213003   10.947696856
    1.520868114    9.987979138   13.013901879   10.975591274
    1.528046745    9.971118432   13.040053935   10.984166423
    1.535225376    9.795505998   13.058275052   10.948801598
    1.542404007    9.589869201   13.075239499   10.905172298
    1.549582638    9.544735683   13.100777208   10.906124218
    1.556761269    9.594353012   13.131646392   10.933270984
    1.563939900    9.667474946   13.164341571   10.966677135
    1.571118531    9.743189254   13.197941817   11.000369137
    1.578297162    9.818386658   13.232410157   11.033322295
    1.585475793    9.893146788   13.267646745   11.065556283
    1.592654424    9.962688594   13.302247716   11.096579058
    1.599833055   10.000357414   13.329916821   11.123221505
    1.607011686    9.930763724   13.336238199   11.137492563
    1.614190317    9.739540672   13.326766221   11.141421441
    1.621368948    9.631036660   13.337772679   11.156070119
    1.628547579    9.648107620   13.368967256   11.182627480
    1.635726210    9.706906125   13.406267926   11.212873741
    1.642904841    9.764642828   13.443150024   11.242843933
    1.650083472    9.800791014   13.475763853   11.270222897
    1.657262104    9.819748742   13.505337716   11.295783088
    1.664440735    9.851648306   13.538953184   11.323836895
    1.671619366    9.896069694   13.576510104   11.354338778
    1.678797997    9.942603256   13.615437887   11.385653235
    1.685976628    9.986405648   13.653832738   11.416143259
    1.693155259   10.022014369   13.687616057   11.441604043
    1.700333890   10.042753253   13.711369623   11.456355834
    1.707512521   10.061005431   13.734787166   11.470288177
    1.714691152   10.091629637   13.769591476   11.495358953
    1.721869783   10.128823070   13.811185449   11.526641033
    1.729048414   10.167179998   13.855377574   11.559574709
    1.736227045   10.205245041   13.901213680   11.592871555
    1.743405676   10.242900710   13.948912762   11.626366488
    1.750584307   10.280335875   13.999025223   11.660166217
    1.757762938   10.317778359   14.052034987   11.694419506
    1.764941569   10.355413965   14.107425288   11.729216127
    1.772120200   10.393274715   14.160045281   11.764362665
    1.779298831   10.430900610   14.188453818   11.798683585
    1.786477462   10.467169907   14.148889925   11.829664197
    1.793656093   10.503202460   14.073049418   11.859359936
    1.800834725   10.542296665   14.065628378   11.894257447
    1.808013356   10.584250800   14.112106039   11.933684967
    1.815191987   10.628194915   14.173952186   11.975574011
    1.822370618   10.674071390   14.238057469   12.019463169
    1.829549249   10.722221451   14.302037098   12.065636857
    1.836727880   10.773172708   14.366302637   12.114672632
    1.843906511   10.827578713   14.431919597   12.167309019
    1.851085142   10.886101857   14.500115742   12.224261383
    1.858263773   10.948848169   14.572096716   12.285406482
    1.865442404   11.013008834   14.648493318   12.346419142
    1.872621035   11.065701308   14.727376843   12.388506180
    1.879799666   11.084514858   14.801686937   12.377743314
    1.886978297   11.097927712   14.861093327   12.343609370
    1.894156928   11.155577875   14.868166649   12.329573688
    1.901335559   11.239269792   14.802721979   12.304955068
    1.908514190   11.320431258   14.778057717   12.311806751
    1.915692821   11.327137699   14.778838283   12.331397219
    1.922871452   11.151267228   14.674016347   12.283461910
    1.930050083   10.935119280   14.533185862   12.221253550
    1.937228715   10.893398466   14.505571241   12.238991820
    1.944407346   10.976756788   14.570303888   12.306812316
    1.951585977   11.103801967   14.665113713   12.383674940
    1.958764608   11.236377976   14.748644912   12.443471445
    1.965943239   11.365915362   14.810580089   12.480432987
    1.973121870   11.502227564   14.882110655   12.530815198
    1.980300501   11.614351138   14.972414088   12.602723951
    1.987479132   11.571460581   15.068954702   12.674756663
    1.994657763   11.234761323   15.164291789   12.731261621
    2.001836394   10.922626218   15.255008575   12.785099940
    2.009015025   10.874250118   15.314299095   12.824588093
    2.016193656   10.863832481   15.270788765   12.775290688
    2.023372287   10.789630372   15.149858814   12.658835817
    2.030550918   10.762140384   15.116755475   12.624387159
    2.037729549   10.767870119   15.159385795   12.651697180
    2.044908180   10.809172401   15.216173753   12.694019590
    2.052086811   10.902877488   15.294077976   12.758411825
    2.059265442   11.013469028   15.391113097   12.838053866
    2.066444073   11.121753046   15.487348014   12.917110651
    2.073622705   11.224248303   15.559039393   12.980796018
    2.080801336   11.322071011   15.594726721   13.022553358
    2.087979967   11.417302458   15.646082365   13.072473891
    2.095158598   11.510115162   15.733416708   13.142293452
    2.102337229   11.593504293   15.821691175   13.210673350
    2.109515860   11.642875214   15.868024475   13.247501597
    2.116694491   11.640246735   15.880037105   13.248272038
    2.123873122   11.645892984   15.929991449   13.266708688
    2.131051753   11.675740883   16.002699647   13.302441991
    2.138230384   11.708396747   16.055567750   13.337224058
    2.145409015   11.762391225   16.053671091   13.386696451
    2.152587646   11.821748650   15.987228584   13.442549134
    2.159766277   11.870993050   15.980535186   13.503706288
    2.166944908   11.922056323   16.051250649   13.573404135
    2.174123539   11.996471400   16.160601178   13.653326765
    2.181302170   12.086015025   16.283842515   13.737376288
    2.188480801   12.180829498   16.398191492   13.814000528
    2.195659432   12.277397138   16.467412537   13.857239125
    2.202838063   12.372676734   16.474622039   13.854836220
    2.210016694   12.457198150   16.504122323   13.873427419
    2.217195326   12.508874541   16.567200249   13.931969629
    2.224373957   12.535980053   16.615884297   14.000988654
    2.231552588   12.552234099   16.668469198   14.065143533
    2.238731219   12.513315260   16.707551012   14.106294119
    2.245909850   12.485364374   16.733855283   14.149865223
    2.253088481   12.539663867   16.795377015   14.223949167
    2.260267112   12.645466040   16.908095596   14.319878361
    2.267445743   12.767455431   17.044884326   14.424506608
    2.274624374   12.883240030   17.175342051   14.526274169
    2.281803005   12.958209164   17.255944167   14.602883995
    2.288981636   12.959406823   17.262490528   14.638620487
    2.296160267   12.964238293   17.281387149   14.674808120
    2.303338898   13.016063394   17.337608453   14.709040613
    2.310517529   13.045537507   17.383563871   14.695750934
    2.317696160   13.060461181   17.412608852   14.667994755
    2.324874791   13.113137787   17.434599881   14.662252586
    2.332053422   13.183538215   17.450260347   14.673335783
    2.339232053   13.272131976   17.521166181   14.726151250
    2.346410684   13.385423486   17.654572404   14.824873836
    2.353589316   13.511538908   17.802019019   14.943451781
    2.360767947   13.640626131   17.900073781   15.054875432
    2.367946578   13.769118388   17.922609421   15.148911493
    2.375125209   13.893471568   17.969502092   15.242365675
    2.382303840   14.000028173   18.040597958   15.321396628
    2.389482471   14.083204985   18.067084632   15.361575462
    2.396661102   14.155253833   18.103299299   15.397940160
    2.403839733   14.237755581   18.171992042   15.445461783
    2.411018364   14.358571124   18.278178045   15.524096089
    2.418196995   14.497846330   18.397231209   15.638137553
    2.425375626   14.621670827   18.452250292   15.757926373
    2.432554257   14.729828450   18.467420522   15.864165926
    2.439732888   14.836977355   18.505454894   15.949754655
    2.446911519   14.974258386   18.597685413   16.048451027
    2.454090150   15.157902796   18.748612417   16.181051432
    2.461268781   15.366305815   18.909362580   16.324367604
    2.468447412   15.580080277   19.029427403   16.446599365
    2.475626043   15.782375731   19.098536868   16.527220114
    2.482804674   15.957969183   19.187077046   16.579299544
    2.489983306   16.132540992   19.309061289   16.632876150
    2.497161937   16.377766630   19.454354745   16.721778584
    2.504340568   16.657222696   19.589263587   16.763150175
    2.511519199   16.882681387   19.703841012   16.742683391
    2.518697830   16.914340038   19.830601488   16.780735501
    2.525876461   16.452592191   19.934954828   16.853813338
    2.533055092   15.570476964   20.016446660   16.934420295
    2.540233723   15.225108631   20.157114083   17.079294946
