# energy grid [eV]     ieps_x  ieps_y  ieps_z
#
    0.200000000   11.290232741   13.117376659   13.067955628
    0.207178631   11.287559953   13.114074031   13.064664392
    0.214357262   11.284794470   13.110656943   13.061259093
    0.221535893   11.281936451   13.107125600   13.057739936
    0.228714524   11.278986060   13.103480215   13.054107133
    0.235893155   11.275943467   13.099721006   13.050360902
    0.243071786   11.272808847   13.095848198   13.046501467
    0.250250417   11.269582379   13.091862022   13.042529059
    0.257429048   11.266264250   13.087762716   13.038443915
    0.264607679   11.262854649   13.083550525   13.034246280
    0.271786311   11.259353771   13.079225700   13.029936404
    0.278964942   11.255761816   13.074788499   13.025514544
    0.286143573   11.252078990   13.070239184   13.020980962
    0.293322204   11.248305501   13.065578026   13.016335929
    0.300500835   11.244441566   13.060805302   13.011579720
    0.307679466   11.240487404   13.055921294   13.006712616
    0.314858097   11.236443240   13.050926290   13.001734907
    0.322036728   11.232309302   13.045820586   12.996646886
    0.329215359   11.228085825   13.040604482   12.991448853
    0.336393990   11.223773049   13.035278287   12.986141116
    0.343572621   11.219371215   13.029842312   12.980723986
    0.350751252   11.214880574   13.024296877   12.975197781
    0.357929883   11.210301377   13.018642307   12.969562826
    0.365108514   11.205633883   13.012878933   12.963819452
    0.372287145   11.200878353   13.007007091   12.957967993
    0.379465776   11.196035053   13.001027124   12.952008792
    0.386644407   11.191104256   12.994939381   12.945942196
    0.393823038   11.186086235   12.988744214   12.939768558
    0.401001669   11.180981272   12.982441984   12.933488236
    0.408180301   11.175789650   12.976033055   12.927101595
    0.415358932   11.170511657   12.969517799   12.920609005
    0.422537563   11.165147588   12.962896590   12.914010840
    0.429716194   11.159697738   12.956169811   12.907307481
    0.436894825   11.154162409   12.949337848   12.900499314
    0.444073456   11.148541906   12.942401093   12.893586730
    0.451252087   11.142836540   12.935359944   12.886570125
    0.458430718   11.137046623   12.928214803   12.879449901
    0.465609349   11.131172472   12.920966077   12.872226464
    0.472787980   11.125214411   12.913614179   12.864900226
    0.479966611   11.119172763   12.906159527   12.857471603
    0.487145242   11.113047859   12.898602543   12.849941018
    0.494323873   11.106840032   12.890943655   12.842308896
    0.501502504   11.100549618   12.883183295   12.834575669
    0.508681135   11.094176959   12.875321900   12.826741772
    0.515859766   11.087722399   12.867359911   12.818807647
    0.523038397   11.081186286   12.859297775   12.810773738
    0.530217028   11.074568972   12.851135944   12.802640495
    0.537395659   11.067870812   12.842874872   12.794408373
    0.544574290   11.061092165   12.834515018   12.786077830
    0.551752922   11.054233393   12.826056849   12.777649329
    0.558931553   11.047294863   12.817500831   12.769123339
    0.566110184   11.040276942   12.808847438   12.760500329
    0.573288815   11.033180004   12.800097147   12.751780777
    0.580467446   11.026004425   12.791250439   12.742965162
    0.587646077   11.018750582   12.782307800   12.734053968
    0.594824708   11.011418859   12.773269717   12.725047684
    0.602003339   11.004009639   12.764136685   12.715946800
    0.609181970   10.996523313   12.754909201   12.706751813
    0.616360601   10.988960270   12.745587765   12.697463222
    0.623539232   10.981320906   12.736172881   12.688081530
    0.630717863   10.973605616   12.726665058   12.678607245
    0.637896494   10.965814802   12.717064808   12.669040876
    0.645075125   10.957948867   12.707372646   12.659382938
    0.652253756   10.950008215   12.697589091   12.649633948
    0.659432387   10.941993255   12.687714664   12.639794427
    0.666611018   10.933904398   12.677749892   12.629864899
    0.673789649   10.925742059   12.667695303   12.619845891
    0.680968280   10.917506652   12.657551429   12.609737934
    0.688146912   10.909198597   12.647318805   12.599541561
    0.695325543   10.900818315   12.636997969   12.589257310
    0.702504174   10.892366230   12.626589462   12.578885719
    0.709682805   10.883842767   12.616093828   12.568427332
    0.716861436   10.875248355   12.605511615   12.557882694
    0.724040067   10.866583424   12.594843371   12.547252353
    0.731218698   10.857848406   12.584089649   12.536536859
    0.738397329   10.849043738   12.573251005   12.525736767
    0.745575960   10.840169855   12.562327995   12.514852633
    0.752754591   10.831227197   12.551321180   12.503885015
    0.759933222   10.822216204   12.540231122   12.492834474
    0.767111853   10.813137320   12.529058387   12.481701573
    0.774290484   10.803990989   12.517803541   12.470486879
    0.781469115   10.794777659   12.506467154   12.459190959
    0.788647746   10.785497777   12.495049798   12.447814383
    0.795826377   10.776151793   12.483552047   12.436357723
    0.803005008   10.766740161   12.471974476   12.424821555
    0.810183639   10.757263332   12.460317663   12.413206453
    0.817362270   10.747721763   12.448582187   12.401512997
    0.824540902   10.738115909   12.436768632   12.389741765
    0.831719533   10.728446230   12.424877578   12.377893340
    0.838898164   10.718713184   12.412909613   12.365968305
    0.846076795   10.708917232   12.400865322   12.353967245
    0.853255426   10.699058838   12.388745293   12.341890747
    0.860434057   10.689138463   12.376550117   12.329739399
    0.867612688   10.679156574   12.364280385   12.317513789
    0.874791319   10.669113636   12.351936688   12.305214510
    0.881969950   10.659010116   12.339519622   12.292842154
    0.889148581   10.648846482   12.327029781   12.280397313
    0.896327212   10.638623204   12.314467762   12.267880583
    0.903505843   10.628340751   12.301834162   12.255292559
    0.910684474   10.617999596   12.289129580   12.242633838
    0.917863105   10.607600209   12.276354615   12.229905018
    0.925041736   10.597143064   12.263509867   12.217106698
    0.932220367   10.586628635   12.250595939   12.204239477
    0.939398998   10.576057396   12.237613432   12.191303956
    0.946577629   10.565429821   12.224562949   12.178300735
    0.953756260   10.554746388   12.211445094   12.165230418
    0.960934891   10.544007571   12.198260471   12.152093605
    0.968113523   10.533213849   12.185009684   12.138890900
    0.975292154   10.522365698   12.171693340   12.125622908
    0.982470785   10.511463596   12.158312044   12.112290230
    0.989649416   10.500508022   12.144866403   12.098893473
    0.996828047   10.489499454   12.131357021   12.085433241
    1.004006678   10.478438371   12.117784508   12.071910138
    1.011185309   10.467325254   12.104149468   12.058324770
    1.018363940   10.456160580   12.090452510   12.044677742
    1.025542571   10.444944830   12.076694241   12.030969659
    1.032721202   10.433678484   12.062875269   12.017201127
    1.039899833   10.422362021   12.048996199   12.003372752
    1.047078464   10.410995923   12.035057640   11.989485138
    1.054257095   10.399580668   12.021060199   11.975538891
    1.061435726   10.388116737   12.007004482   11.961534616
    1.068614357   10.376604610   11.992891097   11.947472918
    1.075792988   10.365044767   11.978720649   11.933354401
    1.082971619   10.353437687   11.964493745   11.919179670
    1.090150250   10.341783850   11.950210991   11.904949327
    1.097328881   10.330083735   11.935872991   11.890663978
    1.104507513   10.318337822   11.921480351   11.876324223
    1.111686144   10.306546589   11.907033674   11.861930666
    1.118864775   10.294710514   11.892533564   11.847483909
    1.126043406   10.282830076   11.877980625   11.832984551
    1.133222037   10.270905752   11.863375458   11.818433195
    1.140400668   10.258938020   11.848718665   11.803830438
    1.147579299   10.246927355   11.834010846   11.789176881
    1.154757930   10.234874234   11.819252602   11.774473121
    1.161936561   10.222779132   11.804444532   11.759719755
    1.169115192   10.210642525   11.789587233   11.744917379
    1.176293823   10.198464887   11.774681303   11.730066588
    1.183472454   10.186246690   11.759727338   11.715167977
    1.190651085   10.173988409   11.744725933   11.700222138
    1.197829716   10.161690514   11.729677681   11.685229664
    1.205008347   10.149353478   11.714583175   11.670191145
    1.212186978   10.136977771   11.699443008   11.655107171
    1.219365609   10.124563862   11.684257769   11.639978329
    1.226544240   10.112112220   11.669028046   11.624805208
    1.233722871   10.099623314   11.653754429   11.609588393
    1.240901503   10.087097609   11.638437503   11.594328468
    1.248080134   10.074535572   11.623077853   11.579026016
    1.255258765   10.061937668   11.607676062   11.563681618
    1.262437396   10.049304360   11.592232713   11.548295855
    1.269616027   10.036636111   11.576748386   11.532869305
    1.276794658   10.023933383   11.561223659   11.517402545
    1.283973289   10.011196636   11.545659110   11.501896150
    1.291151920    9.998426329   11.530055315   11.486350694
    1.298330551    9.985622921   11.514412848   11.470766748
    1.305509182    9.972786869   11.498732280   11.455144884
    1.312687813    9.959918627   11.483014183   11.439485669
    1.319866444    9.947018651   11.467259124   11.423789671
    1.327045075    9.934087394   11.451467672   11.408057454
    1.334223706    9.921125307   11.435640390   11.392289581
    1.341402337    9.908132840   11.419777843   11.376486613
    1.348580968    9.895110442   11.403880590   11.360649111
    1.355759599    9.882058562   11.387949193   11.344777630
    1.362938230    9.868977644   11.371984207   11.328872727
    1.370116861    9.855868135   11.355986189   11.312934955
    1.377295492    9.842730476   11.339955692   11.296964865
    1.384474124    9.829565109   11.323893266   11.280963007
    1.391652755    9.816372475   11.307799461   11.264929927
    1.398831386    9.803153012   11.291674824   11.248866171
    1.406010017    9.789907157   11.275519900   11.232772281
    1.413188648    9.776635345   11.259335232   11.216648799
    1.420367279    9.763338010   11.243121360   11.200496262
    1.427545910    9.750015585   11.226878821   11.184315208
    1.434724541    9.736668499   11.210608153   11.168106169
    1.441903172    9.723297181   11.194309889   11.151869679
    1.449081803    9.709902058   11.177984561   11.135606266
    1.456260434    9.696483557   11.161632697   11.119316458
    1.463439065    9.683042099   11.145254824   11.103000779
    1.470617696    9.669578107   11.128851466   11.086659751
    1.477796327    9.656092001   11.112423146   11.070293896
    1.484974958    9.642584199   11.095970383   11.053903729
    1.492153589    9.629055117   11.079493694   11.037489767
    1.499332220    9.615505171   11.062993594   11.021052523
    1.506510851    9.601934772   11.046470594   11.004592506
    1.513689482    9.588344332   11.029925206   10.988110224
    1.520868114    9.574734259   11.013357934   10.971606183
    1.528046745    9.561104961   10.996769286   10.955080885
    1.535225376    9.547456843   10.980159761   10.938534830
    1.542404007    9.533790307   10.963529861   10.921968516
    1.549582638    9.520105756   10.946880081   10.905382438
    1.556761269    9.506403588   10.930210916   10.888777089
    1.563939900    9.492684201   10.913522858   10.872152957
    1.571118531    9.478947990   10.896816395   10.855510531
    1.578297162    9.465195348   10.880092015   10.838850294
    1.585475793    9.451426667   10.863350201   10.822172729
    1.592654424    9.437642337   10.846591433   10.805478315
    1.599833055    9.423842744   10.829816190   10.788767528
    1.607011686    9.410028273   10.813024948   10.772040842
    1.614190317    9.396199309   10.796218180   10.755298729
    1.621368948    9.382356231   10.779396356   10.738541655
    1.628547579    9.368499420   10.762559943   10.721770088
    1.635726210    9.354629252   10.745709406   10.704984490
    1.642904841    9.340746101   10.728845207   10.688185321
    1.650083472    9.326850342   10.711967806   10.671373038
    1.657262104    9.312942343   10.695077657   10.654548096
    1.664440735    9.299022475   10.678175216   10.637710946
    1.671619366    9.285091103   10.661260932   10.620862038
    1.678797997    9.271148591   10.644335254   10.604001818
    1.685976628    9.257195303   10.627398627   10.587130730
    1.693155259    9.243231596   10.610451493   10.570249213
    1.700333890    9.229257831   10.593494292   10.553357705
    1.707512521    9.215274361   10.576527460   10.536456642
    1.714691152    9.201281541   10.559551431   10.519546455
    1.721869783    9.187279722   10.542566637   10.502627573
    1.729048414    9.173269253   10.525573504   10.485700423
    1.736227045    9.159250481   10.508572458   10.468765429
    1.743405676    9.145223750   10.491563923   10.451823011
    1.750584307    9.131189404   10.474548316   10.434873586
    1.757762938    9.117147783   10.457526055   10.417917570
    1.764941569    9.103099224   10.440497554   10.400955375
    1.772120200    9.089044063   10.423463223   10.383987409
    1.779298831    9.074982635   10.406423470   10.367014079
    1.786477462    9.060915271   10.389378701   10.350035789
    1.793656093    9.046842300   10.372329317   10.333052939
    1.800834725    9.032764049   10.355275717   10.316065926
    1.808013356    9.018680843   10.338218299   10.299075146
    1.815191987    9.004593004   10.321157456   10.282080989
    1.822370618    8.990500853   10.304093578   10.265083846
    1.829549249    8.976404709   10.287027052   10.248084101
    1.836727880    8.962304886   10.269958265   10.231082139
    1.843906511    8.948201699   10.252887597   10.214078340
    1.851085142    8.934095459   10.235815427   10.197073080
    1.858263773    8.919986475   10.218742132   10.180066735
    1.865442404    8.905875055   10.201668086   10.163059676
    1.872621035    8.891761502   10.184593657   10.146052272
    1.879799666    8.877646120   10.167519215   10.129044888
    1.886978297    8.863529209   10.150445122   10.112037888
    1.894156928    8.849411067   10.133371742   10.095031632
    1.901335559    8.835291989   10.116299432   10.078026477
    1.908514190    8.821172269   10.099228549   10.061022778
    1.915692821    8.807052199   10.082159445   10.044020885
    1.922871452    8.792932068   10.065092471   10.027021148
    1.930050083    8.778812162   10.048027974   10.010023912
    1.937228715    8.764692767   10.030966299    9.993029520
    1.944407346    8.750574164   10.013907787    9.976038312
    1.951585977    8.736456634    9.996852776    9.959050626
    1.958764608    8.722340455    9.979801603    9.942066796
    1.965943239    8.708225903    9.962754600    9.925087153
    1.973121870    8.694113251    9.945712098    9.908112026
    1.980300501    8.680002771    9.928674425    9.891141740
    1.987479132    8.665894732    9.911641903    9.874176620
    1.994657763    8.651789400    9.894614856    9.857216985
    2.001836394    8.637687042    9.877593602    9.840263153
    2.009015025    8.623587918    9.860578456    9.823315437
    2.016193656    8.609492290    9.843569734    9.806374151
    2.023372287    8.595400416    9.826567743    9.789439603
    2.030550918    8.581312552    9.809572793    9.772512099
    2.037729549    8.567228952    9.792585188    9.755591942
    2.044908180    8.553149867    9.775605231    9.738679435
    2.052086811    8.539075548    9.758633220    9.721774873
    2.059265442    8.525006240    9.741669452    9.704878554
    2.066444073    8.510942190    9.724714221    9.687990768
    2.073622705    8.496883641    9.707767818    9.671111807
    2.080801336    8.482830833    9.690830531    9.654241956
    2.087979967    8.468784005    9.673902647    9.637381500
    2.095158598    8.454743395    9.656984446    9.620530721
    2.102337229    8.440709236    9.640076211    9.603689897
    2.109515860    8.426681761    9.623178218    9.586859306
    2.116694491    8.412661199    9.606290743    9.570039219
    2.123873122    8.398647781    9.589414056    9.553229908
    2.131051753    8.384641730    9.572548428    9.536431642
    2.138230384    8.370643272    9.555694126    9.519644685
    2.145409015    8.356652628    9.538851413    9.502869301
    2.152587646    8.342670019    9.522020550    9.486105750
    2.159766277    8.328695661    9.505201798    9.469354289
    2.166944908    8.314729771    9.488395412    9.452615174
    2.174123539    8.300772561    9.471601645    9.435888657
    2.181302170    8.286824245    9.454820749    9.419174987
    2.188480801    8.272885030    9.438052972    9.402474412
    2.195659432    8.258955125    9.421298560    9.385787176
    2.202838063    8.245034736    9.404557755    9.369113523
    2.210016694    8.231124064    9.387830800    9.352453690
    2.217195326    8.217223313    9.371117931    9.335807916
    2.224373957    8.203332681    9.354419385    9.319176434
    2.231552588    8.189452366    9.337735395    9.302559477
    2.238731219    8.175582563    9.321066191    9.285957274
    2.245909850    8.161723466    9.304412001    9.269370052
    2.253088481    8.147875266    9.287773051    9.252798036
    2.260267112    8.134038152    9.271149564    9.236241448
    2.267445743    8.120212312    9.254541761    9.219700507
    2.274624374    8.106397933    9.237949860    9.203175430
    2.281803005    8.092595196    9.221374077    9.186666433
    2.288981636    8.078804285    9.204814624    9.170173726
    2.296160267    8.065025379    9.188271713    9.153697522
    2.303338898    8.051258655    9.171745553    9.137238025
    2.310517529    8.037504291    9.155236350    9.120795443
    2.317696160    8.023762459    9.138744307    9.104369978
    2.324874791    8.010033332    9.122269625    9.087961829
    2.332053422    7.996317081    9.105812504    9.071571196
    2.339232053    7.982613874    9.089373141    9.055198273
    2.346410684    7.968923878    9.072951729    9.038843254
    2.353589316    7.955247257    9.056548461    9.022506331
    2.360767947    7.941584174    9.040163527    9.006187691
    2.367946578    7.927934790    9.023797114    8.989887522
    2.375125209    7.914299265    9.007449406    8.973606008
    2.382303840    7.900677757    8.991120588    8.957343331
    2.389482471    7.887070420    8.974810840    8.941099669
    2.396661102    7.873477408    8.958520340    8.924875202
    2.403839733    7.859898875    8.942249264    8.908670104
    2.411018364    7.846334969    8.925997786    8.892484549
    2.418196995    7.832785840    8.909766078    8.876318706
    2.425375626    7.819251635    8.893554310    8.860172746
    2.432554257    7.805732498    8.877362649    8.844046834
    2.439732888    7.792228572    8.861191260    8.827941135
    2.446911519    7.778740001    8.845040307    8.811855811
    2.454090150    7.765266922    8.828909950    8.795791022
    2.461268781    7.751809475    8.812800349    8.779746927
    2.468447412    7.738367796    8.796711659    8.763723681
    2.475626043    7.724942019    8.780644036    8.747721438
    2.482804674    7.711532278    8.764597633    8.731740349
    2.489983306    7.698138705    8.748572599    8.715780566
    2.497161937    7.684761429    8.732569083    8.699842235
    2.504340568    7.671400578    8.716587232    8.683925501
    2.511519199    7.658056279    8.700627190    8.668030509
    2.518697830    7.644728657    8.684689099    8.652157401
    2.525876461    7.631417835    8.668773101    8.636306315
    2.533055092    7.618123934    8.652879332    8.620477389
    2.540233723    7.604847075    8.637007930    8.604670760
