# energy grid [eV]     epsr_x  epsr_y  epsr_z
#
    0.200000000   11.950172723    6.198857190   10.716316176
    0.207178631   11.952508608    6.199778009   10.718423474
    0.214357262   11.954927976    6.200731667   10.720606114
    0.221535893   11.957430945    6.201718202   10.722864205
    0.228714524   11.960017637    6.202737654   10.725197858
    0.235893155   11.962688176    6.203790066   10.727607192
    0.243071786   11.965442692    6.204875479   10.730092325
    0.250250417   11.968281320    6.205993938   10.732653381
    0.257429048   11.971204197    6.207145489   10.735290491
    0.264607679   11.974211466    6.208330178   10.738003784
    0.271786311   11.977303274    6.209548054   10.740793397
    0.278964942   11.980479771    6.210799167   10.743659471
    0.286143573   11.983741112    6.212083568   10.746602149
    0.293322204   11.987087458    6.213401309   10.749621579
    0.300500835   11.990518972    6.214752444   10.752717913
    0.307679466   11.994035821    6.216137030   10.755891307
    0.314858097   11.997638179    6.217555121   10.759141921
    0.322036728   12.001326223    6.219006778   10.762469919
    0.329215359   12.005100133    6.220492060   10.765875471
    0.336393990   12.008960096    6.222011027   10.769358747
    0.343572621   12.012906302    6.223563742   10.772919924
    0.350751252   12.016938946    6.225150270   10.776559185
    0.357929883   12.021058226    6.226770675   10.780276712
    0.365108514   12.025264347    6.228425025   10.784072696
    0.372287145   12.029557517    6.230113389   10.787947330
    0.379465776   12.033937950    6.231835836   10.791900812
    0.386644407   12.038405862    6.233592438   10.795933343
    0.393823038   12.042961475    6.235383267   10.800045130
    0.401001669   12.047605018    6.237208399   10.804236385
    0.408180301   12.052336721    6.239067908   10.808507321
    0.415358932   12.057156821    6.240961874   10.812858159
    0.422537563   12.062065559    6.242890374   10.817289122
    0.429716194   12.067063181    6.244853489   10.821800439
    0.436894825   12.072149938    6.246851302   10.826392344
    0.444073456   12.077326086    6.248883895   10.831065073
    0.451252087   12.082591885    6.250951356   10.835818868
    0.458430718   12.087947600    6.253053769   10.840653978
    0.465609349   12.093393503    6.255191225   10.845570652
    0.472787980   12.098929869    6.257363812   10.850569148
    0.479966611   12.104556979    6.259571623   10.855649725
    0.487145242   12.110275118    6.261814751   10.860812650
    0.494323873   12.116084577    6.264093290   10.866058193
    0.501502504   12.121985652    6.266407338   10.871386629
    0.508681135   12.127978645    6.268756993   10.876798239
    0.515859766   12.134063862    6.271142354   10.882293307
    0.523038397   12.140241615    6.273563524   10.887872124
    0.530217028   12.146512221    6.276020605   10.893534984
    0.537395659   12.152876002    6.278513703   10.899282187
    0.544574290   12.159333288    6.281042924   10.905114040
    0.551752922   12.165884410    6.283608376   10.911030851
    0.558931553   12.172529709    6.286210171   10.917032937
    0.566110184   12.179269529    6.288848419   10.923120618
    0.573288815   12.186104219    6.291523235   10.929294220
    0.580467446   12.193034137    6.294234734   10.935554074
    0.587646077   12.200059643    6.296983033   10.941900517
    0.594824708   12.207181106    6.299768252   10.948333892
    0.602003339   12.214398897    6.302590511   10.954854545
    0.609181970   12.221713397    6.305449934   10.961462831
    0.616360601   12.229124991    6.308346645   10.968159106
    0.623539232   12.236634069    6.311280769   10.974943737
    0.630717863   12.244241029    6.314252437   10.981817092
    0.637896494   12.251946275    6.317261778   10.988779548
    0.645075125   12.259750214    6.320308924   10.995831485
    0.652253756   12.267653264    6.323394009   11.002973292
    0.659432387   12.275655846    6.326517170   11.010205362
    0.666611018   12.283758388    6.329678544   11.017528094
    0.673789649   12.291961326    6.332878272   11.024941893
    0.680968280   12.300265100    6.336116496   11.032447171
    0.688146912   12.308670158    6.339393359   11.040044345
    0.695325543   12.317176955    6.342709008   11.047733839
    0.702504174   12.325785951    6.346063591   11.055516084
    0.709682805   12.334497615    6.349457258   11.063391515
    0.716861436   12.343312421    6.352890162   11.071360577
    0.724040067   12.352230851    6.356362457   11.079423717
    0.731218698   12.361253394    6.359874299   11.087581393
    0.738397329   12.370380545    6.363425847   11.095834067
    0.745575960   12.379612806    6.367017263   11.104182208
    0.752754591   12.388950688    6.370648708   11.112626292
    0.759933222   12.398394709    6.374320349   11.121166804
    0.767111853   12.407945392    6.378032353   11.129804232
    0.774290484   12.417603270    6.381784890   11.138539074
    0.781469115   12.427368882    6.385578131   11.147371834
    0.788647746   12.437242775    6.389412252   11.156303024
    0.795826377   12.447225506    6.393287428   11.165333161
    0.803005008   12.457317635    6.397203840   11.174462774
    0.810183639   12.467519735    6.401161667   11.183692394
    0.817362270   12.477832383    6.405161095   11.193022563
    0.824540902   12.488256166    6.409202309   11.202453830
    0.831719533   12.498791680    6.413285498   11.211986751
    0.838898164   12.509439526    6.417410854   11.221621891
    0.846076795   12.520200318    6.421578569   11.231359822
    0.853255426   12.531074674    6.425788839   11.241201124
    0.860434057   12.542063223    6.430041865   11.251146386
    0.867612688   12.553166603    6.434337846   11.261196204
    0.874791319   12.564385460    6.438676987   11.271351184
    0.881969950   12.575720447    6.443059495   11.281611938
    0.889148581   12.587172230    6.447485578   11.291979089
    0.896327212   12.598741481    6.451955448   11.302453268
    0.903505843   12.610428883    6.456469320   11.313035113
    0.910684474   12.622235127    6.461027411   11.323725274
    0.917863105   12.634160914    6.465629942   11.334524407
    0.925041736   12.646206955    6.470277134   11.345433179
    0.932220367   12.658373969    6.474969215   11.356452266
    0.939398998   12.670662689    6.479706413   11.367582352
    0.946577629   12.683073852    6.484488958   11.378824133
    0.953756260   12.695608211    6.489317087   11.390178312
    0.960934891   12.708266524    6.494191035   11.401645604
    0.968113523   12.721049564    6.499111044   11.413226731
    0.975292154   12.733958111    6.504077357   11.424922429
    0.982470785   12.746992958    6.509090221   11.436733441
    0.989649416   12.760154907    6.514149885   11.448660521
    0.996828047   12.773444771    6.519256603   11.460704435
    1.004006678   12.786863377    6.524410630   11.472865956
    1.011185309   12.800411559    6.529612225   11.485145872
    1.018363940   12.814090166    6.534861652   11.497544980
    1.025542571   12.827900056    6.540159175   11.510064087
    1.032721202   12.841842100    6.545505065   11.522704013
    1.039899833   12.855917181    6.550899594   11.535465588
    1.047078464   12.870126192    6.556343037   11.548349654
    1.054257095   12.884470042    6.561835674   11.561357066
    1.061435726   12.898949649    6.567377789   11.574488689
    1.068614357   12.913565945    6.572969668   11.587745400
    1.075792988   12.928319875    6.578611601   11.601128090
    1.082971619   12.943212396    6.584303881   11.614637661
    1.090150250   12.958244478    6.590046807   11.628275028
    1.097328881   12.973417106    6.595840680   11.642041119
    1.104507513   12.988731277    6.601685804   11.655936874
    1.111686144   13.004188002    6.607582489   11.669963248
    1.118864775   13.019788306    6.613531047   11.684121207
    1.126043406   13.035533228    6.619531795   11.698411733
    1.133222037   13.051423822    6.625585054   11.712835820
    1.140400668   13.067461155    6.631691148   11.727394476
    1.147579299   13.083646311    6.637850407   11.742088726
    1.154757930   13.099980387    6.644063163   11.756919605
    1.161936561   13.116464496    6.650329754   11.771888166
    1.169115192   13.133099766    6.656650521   11.786995476
    1.176293823   13.149887342    6.663025810   11.802242617
    1.183472454   13.166828383    6.669455971   11.817630686
    1.190651085   13.183924067    6.675941358   11.833160796
    1.197829716   13.201175584    6.682482332   11.848834076
    1.205008347   13.218584145    6.689079255   11.864651671
    1.212186978   13.236150976    6.695732496   11.880614743
    1.219365609   13.253877321    6.702442427   11.896724469
    1.226544240   13.271764439    6.709209428   11.912982044
    1.233722871   13.289813611    6.716033879   11.929388681
    1.240901503   13.308026133    6.722916170   11.945945610
    1.248080134   13.326403320    6.729856691   11.962654077
    1.255258765   13.344946505    6.736855841   11.979515349
    1.262437396   13.363657043    6.743914022   11.996530709
    1.269616027   13.382536304    6.751031642   12.013701461
    1.276794658   13.401585681    6.758209114   12.031028925
    1.283973289   13.420806584    6.765446856   12.048514444
    1.291151920   13.440200447    6.772745293   12.066159377
    1.298330551   13.459768721    6.780104852   12.083965106
    1.305509182   13.479512879    6.787525970   12.101933032
    1.312687813   13.499434416    6.795009085   12.120064576
    1.319866444   13.519534848    6.802554645   12.138361180
    1.327045075   13.539815710    6.810163101   12.156824305
    1.334223706   13.560278561    6.817834910   12.175455431
    1.341402337   13.580924990    6.825570538   12.194256079
    1.348580968   13.601756608    6.833370454   12.213227787
    1.355759599   13.622775043    6.841235136   12.232372105
    1.362938230   13.643981947    6.849165064   12.251690607
    1.370116861   13.665378998    6.857160727   12.271184892
    1.377295492   13.686967898    6.865222621   12.290856587
    1.384474124   13.708750378    6.873351247   12.310707342
    1.391652755   13.730728191    6.881547115   12.330738832
    1.398831386   13.752903119    6.889810738   12.350952759
    1.406010017   13.775276967    6.898142639   12.371350850
    1.413188648   13.797851572    6.906543348   12.391934859
    1.420367279   13.820628794    6.915013400   12.412706567
    1.427545910   13.843610525    6.923553339   12.433667783
    1.434724541   13.866798684    6.932163717   12.454820344
    1.441903172   13.890195219    6.940845090   12.476166115
    1.449081803   13.913802108    6.949598026   12.497706992
    1.456260434   13.937621360    6.958423098   12.519444899
    1.463439065   13.961655009    6.967320884   12.541381790
    1.470617696   13.985905112    6.976291966   12.563519647
    1.477796327   14.010373734    6.985336916   12.585860474
    1.484974958   14.035063000    6.994456336   12.608406318
    1.492153589   14.059975182    7.003650902   12.631159296
    1.499332220   14.085112505    7.012921250   12.654121528
    1.506510851   14.110477162    7.022267985   12.677295153
    1.513689482   14.136071406    7.031691735   12.700682349
    1.520868114   14.161897541    7.041193145   12.724285334
    1.528046745   14.187957909    7.050772873   12.748106365
    1.535225376   14.214254894    7.060431585   12.772147736
    1.542404007   14.240790915    7.070169958   12.796411777
    1.549582638   14.267568431    7.079988678   12.820900860
    1.556761269   14.294589941    7.089888441   12.845617392
    1.563939900   14.321857982    7.099869951   12.870563823
    1.571118531   14.349375135    7.109933925   12.895742643
    1.578297162   14.377144022    7.120081087   12.921156383
    1.585475793   14.405167307    7.130312174   12.946807619
    1.592654424   14.433447699    7.140627932   12.972698968
    1.599833055   14.461987951    7.151029119   12.998833093
    1.607011686   14.490790861    7.161516503   13.025212703
    1.614190317   14.519859275    7.172090863   13.051840551
    1.621368948   14.549196087    7.182752991   13.078719440
    1.628547579   14.578804236    7.193503689   13.105852220
    1.635726210   14.608686715    7.204343770   13.133241791
    1.642904841   14.638846561    7.215274062   13.160891100
    1.650083472   14.669286861    7.226295402   13.188803132
    1.657262104   14.700010745    7.237408643   13.216980915
    1.664440735   14.731021430    7.248614647   13.245427589
    1.671619366   14.762322202    7.259914292   13.274146380
    1.678797997   14.793916357    7.271308467   13.303140487
    1.685976628   14.825807248    7.282798075   13.332413163
    1.693155259   14.857998311    7.294384034   13.361967747
    1.700333890   14.890493036    7.306067269   13.391807631
    1.707512521   14.923294940    7.317848714   13.421936227
    1.714691152   14.956407615    7.329729319   13.452357026
    1.721869783   14.989834802    7.341710092   13.483073730
    1.729048414   15.023580274    7.353792040   13.514090047
    1.736227045   15.057647812    7.365976152   13.545409650
    1.743405676   15.092041277    7.378263441   13.577036302
    1.750584307   15.126764615    7.390654940   13.608973860
    1.757762938   15.161821845    7.403151703   13.641226258
    1.764941569   15.197217063    7.415754800   13.673797508
    1.772120200   15.232954438    7.428465316   13.706691697
    1.779298831   15.269038217    7.441284356   13.739912991
    1.786477462   15.305472728    7.454213043   13.773465638
    1.793656093   15.342262378    7.467252515   13.807353964
    1.800834725   15.379411657    7.480403931   13.841582383
    1.808013356   15.416925141    7.493668468   13.876155395
    1.815191987   15.454807492    7.507047323   13.911077586
    1.822370618   15.493063461    7.520541711   13.946353635
    1.829549249   15.531697892    7.534152868   13.981988314
    1.836727880   15.570715722    7.547882052   14.017986492
    1.843906511   15.610121982    7.561730538   14.054353132
    1.851085142   15.649921804    7.575699628   14.091093302
    1.858263773   15.690120420    7.589790640   14.128212172
    1.865442404   15.730723167    7.604004919   14.165715017
    1.872621035   15.771735485    7.618343830   14.203607221
    1.879799666   15.813162926    7.632808763   14.241894282
    1.886978297   15.855011152    7.647401131   14.280581811
    1.894156928   15.897285941    7.662122371   14.319675536
    1.901335559   15.939993188    7.676973946   14.359181309
    1.908514190   15.983138909    7.691957345   14.399105104
    1.915692821   16.026729245    7.707074082   14.439453026
    1.922871452   16.070770462    7.722325698   14.480231307
    1.930050083   16.115268961    7.737713761   14.521446319
    1.937228715   16.160231273    7.753239869   14.563104570
    1.944407346   16.205664072    7.768905645   14.605212713
    1.951585977   16.251574169    7.784712746   14.647777547
    1.958764608   16.297968526    7.800662856   14.690806022
    1.965943239   16.344854251    7.816757691   14.734305246
    1.973121870   16.392238610    7.832998997   14.778282486
    1.980300501   16.440129025    7.849388554   14.822745173
    1.987479132   16.488533083    7.865928176   14.867700912
    1.994657763   16.537458539    7.882619708   14.913157478
    2.001836394   16.586913320    7.899465033   14.959122832
    2.009015025   16.636905532    7.916466067   15.005605116
    2.016193656   16.687443465    7.933624765   15.052612668
    2.023372287   16.738535596    7.950943118   15.100154021
    2.030550918   16.790190599    7.968423156   15.148237913
    2.037729549   16.842417348    7.986066949   15.196873291
    2.044908180   16.895224921    8.003876608   15.246069322
    2.052086811   16.948622612    8.021854283   15.295835394
    2.059265442   17.002619933    8.040002171   15.346181127
    2.066444073   17.057226624    8.058322510   15.397116380
    2.073622705   17.112452658    8.076817584   15.448651259
    2.080801336   17.168308249    8.095489724   15.500796123
    2.087979967   17.224803858    8.114341306   15.553561595
    2.095158598   17.281950207    8.133374757   15.606958566
    2.102337229   17.339758275    8.152592551   15.660998203
    2.109515860   17.398239317    8.171997221   15.715691954
    2.116694491   17.457404865    8.191591355   15.771051556
    2.123873122   17.517266768    8.211377590   15.827089135
    2.131051753   17.577837187    8.231358618   15.883817163
    2.138230384   17.639128555    8.251537185   15.941248347
    2.145409015   17.701153605    8.271916087   15.999395723
    2.152587646   17.763925404    8.292498194   16.058272695
    2.159766277   17.827457456    8.313286476   16.117893075
    2.166944908   17.891763649    8.334283948   16.178271120
    2.174123539   17.956858136    8.355493661   16.239421421
    2.181302170   18.022755492    8.376918754   16.301358960
    2.188480801   18.089470702    8.398562444   16.364099158
    2.195659432   18.157019127    8.420428012   16.427657894
    2.202838063   18.225416565    8.442518816   16.492051503
    2.210016694   18.294679259    8.464838297   16.557296787
    2.217195326   18.364823881    8.487389976   16.623410994
    2.224373957   18.435867474    8.510177457   16.690411844
    2.231552588   18.507827589    8.533204438   16.758317738
    2.238731219   18.580722837    8.556474704   16.827147909
    2.245909850   18.654572255    8.579992135   16.896922011
    2.253088481   18.729394964    8.603760701   16.967660034
    2.260267112   18.805210724    8.627784474   17.039382653
    2.267445743   18.882039975    8.652067628   17.112111252
    2.274624374   18.959903765    8.676614447   17.185867861
    2.281803005   19.038823741    8.701429317   17.260675155
    2.288981636   19.118822364    8.726516740   17.336556671
    2.296160267   19.199923080    8.751881354   17.413537098
    2.303338898   19.282150041    8.777527929   17.491641934
    2.310517529   19.365527809    8.803461338   17.570897052
    2.317696160   19.450081767    8.829686587   17.651329223
    2.324874791   19.535838229    8.856208827   17.732966259
    2.332053422   19.622824422    8.883033353   17.815836990
    2.339232053   19.711068500    8.910165609   17.899971276
    2.346410684   19.800599571    8.937611193   17.985400044
    2.353589316   19.891447704    8.965375860   18.072155321
    2.360767947   19.983643913    8.993465544   18.160270253
    2.367946578   20.077220399    9.021886360   18.249779245
    2.375125209   20.172211054    9.050644559   18.340718207
    2.382303840   20.268650564    9.079746431   18.433124089
    2.389482471   20.366574368    9.109198313   18.527035005
    2.396661102   20.466019960    9.139007431   18.622491420
    2.403839733   20.567026729    9.169181656   18.719535758
    2.411018364   20.669634658    9.199728125   18.818210746
    2.418196995   20.773885161    9.230654084   18.918560760
    2.425375626   20.879821672    9.261967330   19.020633510
    2.432554257   20.987489455    9.293675987   19.124478545
    2.439732888   21.096935411    9.325788379   19.230146438
    2.446911519   21.208208369    9.358313080   19.337690029
    2.454090150   21.321359243    9.391259029   19.447164689
    2.461268781   21.436441126    9.424635632   19.558628347
    2.468447412   21.553509375    9.458452507   19.672141517
    2.475626043   21.672621742    9.492719560   19.787767440
    2.482804674   21.793838529    9.527447101   19.905572259
    2.489983306   21.917222760    9.562645845   20.025625223
    2.497161937   22.042840324    9.598326938   20.147999009
    2.504340568   22.170760207    9.634501967   20.272769837
    2.511519199   22.301054708    9.671182971   20.400017497
    2.518697830   22.433799358    9.708382473   20.529825714
    2.525876461   22.569073247    9.746113516   20.662282451
    2.533055092   22.706959644    9.784389660   20.797480292
    2.540233723   22.847545633    9.823224955   20.935516379
