# energy grid [eV]     ieps_x  ieps_y  ieps_z
#
    0.200000000    9.280092278    6.934812824    9.013390651
    0.207178631    9.278040930    6.933444958    9.011437599
    0.214357262    9.275918376    6.932029552    9.009416736
    0.221535893    9.273724734    6.930566678    9.007328172
    0.228714524    9.271460124    6.929056408    9.005172019
    0.235893155    9.269124668    6.927498820    9.002948392
    0.243071786    9.266718495    6.925893991    9.000657411
    0.250250417    9.264241736    6.924242001    8.998299199
    0.257429048    9.261694524    6.922542934    8.995873881
    0.264607679    9.259076999    6.920796875    8.993381589
    0.271786311    9.256389304    6.919003912    8.990822454
    0.278964942    9.253631583    6.917164133    8.988196613
    0.286143573    9.250803986    6.915277631    8.985504207
    0.293322204    9.247906667    6.913344499    8.982745379
    0.300500835    9.244939781    6.911364836    8.979920275
    0.307679466    9.241903489    6.909338738    8.977029046
    0.314858097    9.238797956    6.907266306    8.974071845
    0.322036728    9.235623347    6.905147645    8.971048829
    0.329215359    9.232379835    6.902982858    8.967960157
    0.336393990    9.229067592    6.900772053    8.964805994
    0.343572621    9.225686798    6.898515340    8.961586505
    0.350751252    9.222237632    6.896212830    8.958301861
    0.357929883    9.218720280    6.893864637    8.954952234
    0.365108514    9.215134929    6.891470876    8.951537800
    0.372287145    9.211481770    6.889031666    8.948058738
    0.379465776    9.207760999    6.886547126    8.944515232
    0.386644407    9.203972813    6.884017378    8.940907465
    0.393823038    9.200117412    6.881442547    8.937235627
    0.401001669    9.196195002    6.878822758    8.933499910
    0.408180301    9.192205790    6.876158140    8.929700507
    0.415358932    9.188149986    6.873448823    8.925837617
    0.422537563    9.184027805    6.870694938    8.921911440
    0.429716194    9.179839464    6.867896621    8.917922179
    0.436894825    9.175585182    6.865054005    8.913870040
    0.444073456    9.171265183    6.862167231    8.909755234
    0.451252087    9.166879693    6.859236436    8.905577972
    0.458430718    9.162428941    6.856261764    8.901338468
    0.465609349    9.157913160    6.853243358    8.897036942
    0.472787980    9.153332584    6.850181362    8.892673612
    0.479966611    9.148687452    6.847075925    8.888248704
    0.487145242    9.143978004    6.843927196    8.883762441
    0.494323873    9.139204485    6.840735325    8.879215054
    0.501502504    9.134367140    6.837500464    8.874606773
    0.508681135    9.129466221    6.834222770    8.869937833
    0.515859766    9.124501977    6.830902397    8.865208469
    0.523038397    9.119474665    6.827539504    8.860418922
    0.530217028    9.114384542    6.824134250    8.855569432
    0.537395659    9.109231868    6.820686797    8.850660244
    0.544574290    9.104016906    6.817197308    8.845691604
    0.551752922    9.098739921    6.813665947    8.840663762
    0.558931553    9.093401181    6.810092880    8.835576969
    0.566110184    9.088000958    6.806478277    8.830431478
    0.573288815    9.082539523    6.802822305    8.825227546
    0.580467446    9.077017153    6.799125137    8.819965432
    0.587646077    9.071434124    6.795386945    8.814645396
    0.594824708    9.065790718    6.791607903    8.809267702
    0.602003339    9.060087217    6.787788187    8.803832614
    0.609181970    9.054323905    6.783927974    8.798340400
    0.616360601    9.048501070    6.780027443    8.792791329
    0.623539232    9.042619002    6.776086773    8.787185674
    0.630717863    9.036677992    6.772106148    8.781523708
    0.637896494    9.030678333    6.768085748    8.775805707
    0.645075125    9.024620322    6.764025760    8.770031949
    0.652253756    9.018504257    6.759926369    8.764202714
    0.659432387    9.012330437    6.755787761    8.758318284
    0.666611018    9.006099165    6.751610126    8.752378942
    0.673789649    8.999810745    6.747393652    8.746384974
    0.680968280    8.993465483    6.743138532    8.740336667
    0.688146912    8.987063687    6.738844957    8.734234312
    0.695325543    8.980605666    6.734513121    8.728078198
    0.702504174    8.974091733    6.730143219    8.721868620
    0.709682805    8.967522201    6.725735447    8.715605871
    0.716861436    8.960897385    6.721290002    8.709290248
    0.724040067    8.954217602    6.716807082    8.702922048
    0.731218698    8.947483171    6.712286887    8.696501572
    0.738397329    8.940694412    6.707729617    8.690029120
    0.745575960    8.933851647    6.703135475    8.683504995
    0.752754591    8.926955201    6.698504662    8.676929501
    0.759933222    8.920005397    6.693837383    8.670302944
    0.767111853    8.913002562    6.689133843    8.663625632
    0.774290484    8.905947026    6.684394248    8.656897872
    0.781469115    8.898839116    6.679618804    8.650119975
    0.788647746    8.891679165    6.674807719    8.643292251
    0.795826377    8.884467504    6.669961202    8.636415014
    0.803005008    8.877204468    6.665079463    8.629488578
    0.810183639    8.869890391    6.660162712    8.622513257
    0.817362270    8.862525609    6.655211162    8.615489368
    0.824540902    8.855110460    6.650225023    8.608417228
    0.831719533    8.847645283    6.645204511    8.601297156
    0.838898164    8.840130417    6.640149837    8.594129471
    0.846076795    8.832566204    6.635061219    8.586914496
    0.853255426    8.824952985    6.629938870    8.579652551
    0.860434057    8.817291103    6.624783008    8.572343959
    0.867612688    8.809580902    6.619593849    8.564989045
    0.874791319    8.801822728    6.614371611    8.557588132
    0.881969950    8.794016927    6.609116514    8.550141548
    0.889148581    8.786163844    6.603828775    8.542649618
    0.896327212    8.778263829    6.598508615    8.535112670
    0.903505843    8.770317229    6.593156255    8.527531033
    0.910684474    8.762324394    6.587771915    8.519905035
    0.917863105    8.754285675    6.582355817    8.512235005
    0.925041736    8.746201421    6.576908184    8.504521276
    0.932220367    8.738071985    6.571429237    8.496764177
    0.939398998    8.729897719    6.565919201    8.488964042
    0.946577629    8.721678975    6.560378299    8.481121201
    0.953756260    8.713416107    6.554806755    8.473235989
    0.960934891    8.705109470    6.549204795    8.465308739
    0.968113523    8.696759417    6.543572643    8.457339785
    0.975292154    8.688366304    6.537910525    8.449329462
    0.982470785    8.679930485    6.532218668    8.441278105
    0.989649416    8.671452318    6.526497296    8.433186049
    0.996828047    8.662932158    6.520746638    8.425053631
    1.004006678    8.654370362    6.514966920    8.416881187
    1.011185309    8.645767287    6.509158370    8.408669053
    1.018363940    8.637123290    6.503321216    8.400417567
    1.025542571    8.628438729    6.497455685    8.392127066
    1.032721202    8.619713962    6.491562006    8.383797886
    1.039899833    8.610949346    6.485640407    8.375430367
    1.047078464    8.602145240    6.479691118    8.367024846
    1.054257095    8.593302001    6.473714366    8.358581661
    1.061435726    8.584419989    6.467710382    8.350101151
    1.068614357    8.575499562    6.461679395    8.341583653
    1.075792988    8.566541078    6.455621633    8.333029506
    1.082971619    8.557544896    6.449537327    8.324439049
    1.090150250    8.548511374    6.443426707    8.315812620
    1.097328881    8.539440871    6.437290002    8.307150558
    1.104507513    8.530333746    6.431127442    8.298453201
    1.111686144    8.521190356    6.424939257    8.289720887
    1.118864775    8.512011059    6.418725677    8.280953955
    1.126043406    8.502796214    6.412486932    8.272152743
    1.133222037    8.493546179    6.406223252    8.263317589
    1.140400668    8.484261311    6.399934868    8.254448831
    1.147579299    8.474941967    6.393622008    8.245546807
    1.154757930    8.465588505    6.387284904    8.236611854
    1.161936561    8.456201281    6.380923784    8.227644309
    1.169115192    8.446780652    6.374538879    8.218644510
    1.176293823    8.437326974    6.368130419    8.209612792
    1.183472454    8.427840602    6.361698632    8.200549493
    1.190651085    8.418321893    6.355243749    8.191454948
    1.197829716    8.408771200    6.348765998    8.182329494
    1.205008347    8.399188879    6.342265609    8.173173464
    1.212186978    8.389575282    6.335742811    8.163987194
    1.219365609    8.379930765    6.329197833    8.154771019
    1.226544240    8.370255679    6.322630902    8.145525272
    1.233722871    8.360550377    6.316042248    8.136250287
    1.240901503    8.350815211    6.309432098    8.126946397
    1.248080134    8.341050531    6.302800681    8.117613933
    1.255258765    8.331256689    6.296148223    8.108253228
    1.262437396    8.321434035    6.289474952    8.098864614
    1.269616027    8.311582917    6.282781095    8.089448420
    1.276794658    8.301703684    6.276066879    8.080004977
    1.283973289    8.291796684    6.269332529    8.070534614
    1.291151920    8.281862264    6.262578272    8.061037660
    1.298330551    8.271900770    6.255804333    8.051514442
    1.305509182    8.261912548    6.249010938    8.041965289
    1.312687813    8.251897943    6.242198312    8.032390527
    1.319866444    8.241857297    6.235366678    8.022790481
    1.327045075    8.231790956    6.228516260    8.013165477
    1.334223706    8.221699259    6.221647283    8.003515839
    1.341402337    8.211582550    6.214759970    7.993841891
    1.348580968    8.201441168    6.207854542    7.984143955
    1.355759599    8.191275452    6.200931223    7.974422353
    1.362938230    8.181085741    6.193990233    7.964677406
    1.370116861    8.170872373    6.187031795    7.954909435
    1.377295492    8.160635685    6.180056128    7.945118758
    1.384474124    8.150376011    6.173063454    7.935305693
    1.391652755    8.140093686    6.166053991    7.925470559
    1.398831386    8.129789044    6.159027958    7.915613671
    1.406010017    8.119462417    6.151985575    7.905735346
    1.413188648    8.109114136    6.144927059    7.895835896
    1.420367279    8.098744533    6.137852628    7.885915637
    1.427545910    8.088353935    6.130762498    7.875974881
    1.434724541    8.077942671    6.123656886    7.866013938
    1.441903172    8.067511068    6.116536007    7.856033120
    1.449081803    8.057059452    6.109400076    7.846032735
    1.456260434    8.046588146    6.102249307    7.836013093
    1.463439065    8.036097476    6.095083915    7.825974500
    1.470617696    8.025587762    6.087904112    7.815917262
    1.477796327    8.015059326    6.080710110    7.805841685
    1.484974958    8.004512487    6.073502122    7.795748072
    1.492153589    7.993947564    6.066280358    7.785636726
    1.499332220    7.983364874    6.059045028    7.775507948
    1.506510851    7.972764734    6.051796343    7.765362040
    1.513689482    7.962147457    6.044534510    7.755199300
    1.520868114    7.951513358    6.037259739    7.745020026
    1.528046745    7.940862748    6.029972236    7.734824515
    1.535225376    7.930195938    6.022672209    7.724613063
    1.542404007    7.919513238    6.015359863    7.714385964
    1.549582638    7.908814956    6.008035404    7.704143511
    1.556761269    7.898101398    6.000699036    7.693885997
    1.563939900    7.887372870    5.993350962    7.683613712
    1.571118531    7.876629675    5.985991385    7.673326944
    1.578297162    7.865872117    5.978620508    7.663025984
    1.585475793    7.855100497    5.971238532    7.652711116
    1.592654424    7.844315115    5.963845657    7.642382627
    1.599833055    7.833516268    5.956442083    7.632040801
    1.607011686    7.822704254    5.949028009    7.621685921
    1.614190317    7.811879369    5.941603633    7.611318268
    1.621368948    7.801041906    5.934169152    7.600938123
    1.628547579    7.790192158    5.926724762    7.590545764
    1.635726210    7.779330417    5.919270660    7.580141469
    1.642904841    7.768456971    5.911807038    7.569725514
    1.650083472    7.757572110    5.904334092    7.559298174
    1.657262104    7.746676120    5.896852015    7.548859722
    1.664440735    7.735769285    5.889360997    7.538410431
    1.671619366    7.724851891    5.881861231    7.527950571
    1.678797997    7.713924219    5.874352907    7.517480410
    1.685976628    7.702986550    5.866836215    7.507000218
    1.693155259    7.692039163    5.859311341    7.496510260
    1.700333890    7.681082336    5.851778476    7.486010802
    1.707512521    7.670116344    5.844237804    7.475502106
    1.714691152    7.659141463    5.836689512    7.464984436
    1.721869783    7.648157965    5.829133785    7.454458051
    1.729048414    7.637166123    5.821570807    7.443923211
    1.736227045    7.626166205    5.814000760    7.433380175
    1.743405676    7.615158481    5.806423828    7.422829197
    1.750584307    7.604143216    5.798840190    7.412270533
    1.757762938    7.593120677    5.791250028    7.401704437
    1.764941569    7.582091127    5.783653521    7.391131161
    1.772120200    7.571054828    5.776050846    7.380550954
    1.779298831    7.560012041    5.768442182    7.369964067
    1.786477462    7.548963024    5.760827705    7.359370746
    1.793656093    7.537908035    5.753207591    7.348771237
    1.800834725    7.526847329    5.745582013    7.338165786
    1.808013356    7.515781161    5.737951147    7.327554635
    1.815191987    7.504709783    5.730315163    7.316938025
    1.822370618    7.493633446    5.722674234    7.306316198
    1.829549249    7.482552400    5.715028531    7.295689391
    1.836727880    7.471466892    5.707378224    7.285057842
    1.843906511    7.460377167    5.699723480    7.274421786
    1.851085142    7.449283472    5.692064469    7.263781457
    1.858263773    7.438186048    5.684401356    7.253137089
    1.865442404    7.427085137    5.676734307    7.242488911
    1.872621035    7.415980979    5.669063488    7.231837153
    1.879799666    7.404873811    5.661389062    7.221182045
    1.886978297    7.393763870    5.653711193    7.210523811
    1.894156928    7.382651391    5.646030041    7.199862678
    1.901335559    7.371536607    5.638345768    7.189198868
    1.908514190    7.360419749    5.630658533    7.178532604
    1.915692821    7.349301047    5.622968497    7.167864105
    1.922871452    7.338180731    5.615275815    7.157193592
    1.930050083    7.327059025    5.607580646    7.146521282
    1.937228715    7.315936157    5.599883146    7.135847390
    1.944407346    7.304812348    5.592183468    7.125172131
    1.951585977    7.293687821    5.584481768    7.114495717
    1.958764608    7.282562796    5.576778197    7.103818361
    1.965943239    7.271437491    5.569072909    7.093140272
    1.973121870    7.260312125    5.561366053    7.082461658
    1.980300501    7.249186911    5.553657780    7.071782726
    1.987479132    7.238062064    5.545948238    7.061103682
    1.994657763    7.226937795    5.538237576    7.050424729
    2.001836394    7.215814316    5.530525941    7.039746069
    2.009015025    7.204691836    5.522813477    7.029067904
    2.016193656    7.193570560    5.515100331    7.018390433
    2.023372287    7.182450697    5.507386646    7.007713852
    2.030550918    7.171332448    5.499672565    6.997038360
    2.037729549    7.160216018    5.491958229    6.986364149
    2.044908180    7.149101606    5.484243780    6.975691415
    2.052086811    7.137989413    5.476529358    6.965020347
    2.059265442    7.126879635    5.468815101    6.954351137
    2.066444073    7.115772469    5.461101147    6.943683974
    2.073622705    7.104668110    5.453387634    6.933019044
    2.080801336    7.093566750    5.445674697    6.922356534
    2.087979967    7.082468581    5.437962470    6.911696627
    2.095158598    7.071373792    5.430251088    6.901039506
    2.102337229    7.060282572    5.422540684    6.890385353
    2.109515860    7.049195108    5.414831390    6.879734348
    2.116694491    7.038111584    5.407123336    6.869086669
    2.123873122    7.027032183    5.399416653    6.858442492
    2.131051753    7.015957089    5.391711468    6.847801993
    2.138230384    7.004886481    5.384007911    6.837165347
    2.145409015    6.993820538    5.376306109    6.826532725
    2.152587646    6.982759438    5.368606186    6.815904299
    2.159766277    6.971703355    5.360908268    6.805280238
    2.166944908    6.960652465    5.353212480    6.794660710
    2.174123539    6.949606940    5.345518943    6.784045881
    2.181302170    6.938566951    5.337827781    6.773435918
    2.188480801    6.927532667    5.330139114    6.762830984
    2.195659432    6.916504257    5.322453062    6.752231241
    2.202838063    6.905481888    5.314769745    6.741636850
    2.210016694    6.894465723    5.307089280    6.731047970
    2.217195326    6.883455928    5.299411785    6.720464760
    2.224373957    6.872452663    5.291737375    6.709887376
    2.231552588    6.861456090    5.284066167    6.699315974
    2.238731219    6.850466367    5.276398273    6.688750707
    2.245909850    6.839483652    5.268733809    6.678191727
    2.253088481    6.828508101    5.261072886    6.667639185
    2.260267112    6.817539868    5.253415614    6.657093232
    2.267445743    6.806579107    5.245762106    6.646554015
    2.274624374    6.795625970    5.238112470    6.636021681
    2.281803005    6.784680606    5.230466815    6.625496376
    2.288981636    6.773743164    5.222825249    6.614978243
    2.296160267    6.762813791    5.215187878    6.604467425
    2.303338898    6.751892634    5.207554807    6.593964064
    2.310517529    6.740979837    5.199926142    6.583468299
    2.317696160    6.730075542    5.192301987    6.572980269
    2.324874791    6.719179891    5.184682444    6.562500112
    2.332053422    6.708293025    5.177067616    6.552027962
    2.339232053    6.697415081    5.169457603    6.541563956
    2.346410684    6.686546198    5.161852506    6.531108225
    2.353589316    6.675686510    5.154252424    6.520660902
    2.360767947    6.664836153    5.146657455    6.510222117
    2.367946578    6.653995260    5.139067697    6.499792000
    2.375125209    6.643163962    5.131483246    6.489370678
    2.382303840    6.632342390    5.123904197    6.478958279
    2.389482471    6.621530672    5.116330647    6.468554926
    2.396661102    6.610728937    5.108762687    6.458160746
    2.403839733    6.599937310    5.101200412    6.447775859
    2.411018364    6.589155916    5.093643913    6.437400388
    2.418196995    6.578384879    5.086093281    6.427034453
    2.425375626    6.567624321    5.078548607    6.416678172
    2.432554257    6.556874362    5.071009980    6.406331663
    2.439732888    6.546135123    5.063477488    6.395995044
    2.446911519    6.535406722    5.055951219    6.385668428
    2.454090150    6.524689275    5.048431261    6.375351929
    2.461268781    6.513982898    5.040917697    6.365045661
    2.468447412    6.503287705    5.033410615    6.354749734
    2.475626043    6.492603809    5.025910097    6.344464259
    2.482804674    6.481931323    5.018416228    6.334189345
    2.489983306    6.471270356    5.010929089    6.323925100
    2.497161937    6.460621017    5.003448763    6.313671629
    2.504340568    6.449983415    4.995975329    6.303429038
    2.511519199    6.439357655    4.988508869    6.293197432
    2.518697830    6.428743845    4.981049460    6.282976913
    2.525876461    6.418142086    4.973597182    6.272767583
    2.533055092    6.407552483    4.966152111    6.262569543
    2.540233723    6.396975137    4.958714325    6.252382891
