# energy grid [eV]     epsr_x  epsr_y  epsr_z
#
    0.200000000   10.144441799    8.915196855   10.882642824
    0.207178631   10.146331784    8.916623323   10.884704097
    0.214357262   10.148289274    8.918100667   10.886838999
    0.221535893   10.150314362    8.919628947   10.889047628
    0.228714524   10.152407141    8.921208227   10.891330089
    0.235893155   10.154567707    8.922838570   10.893686488
    0.243071786   10.156796161    8.924520044   10.896116933
    0.250250417   10.159092607    8.926252718   10.898621538
    0.257429048   10.161457150    8.928036663   10.901200421
    0.264607679   10.163889902    8.929871951   10.903853701
    0.271786311   10.166390974    8.931758660   10.906581502
    0.278964942   10.168960484    8.933696866   10.909383953
    0.286143573   10.171598551    8.935686650   10.912261185
    0.293322204   10.174305299    8.937728093   10.915213332
    0.300500835   10.177080854    8.939821281   10.918240532
    0.307679466   10.179925345    8.941966298   10.921342929
    0.314858097   10.182838905    8.944163235   10.924520667
    0.322036728   10.185821672    8.946412181   10.927773897
    0.329215359   10.188873785    8.948713231   10.931102772
    0.336393990   10.191995386    8.951066480   10.934507448
    0.343572621   10.195186624    8.953472026   10.937988086
    0.350751252   10.198447648    8.955929968   10.941544852
    0.357929883   10.201778611    8.958440409   10.945177913
    0.365108514   10.205179671    8.961003454   10.948887441
    0.372287145   10.208650988    8.963619209   10.952673612
    0.379465776   10.212192727    8.966287783   10.956536607
    0.386644407   10.215805055    8.969009290   10.960476609
    0.393823038   10.219488143    8.971783841   10.964493805
    0.401001669   10.223242166    8.974611554   10.968588388
    0.408180301   10.227067302    8.977492547   10.972760551
    0.415358932   10.230963734    8.980426942   10.977010496
    0.422537563   10.234931647    8.983414862   10.981338426
    0.429716194   10.238971231    8.986456432   10.985744548
    0.436894825   10.243082678    8.989551781   10.990229073
    0.444073456   10.247266185    8.992701040   10.994792218
    0.451252087   10.251521953    8.995904342   10.999434201
    0.458430718   10.255850186    8.999161823   11.004155248
    0.465609349   10.260251092    9.002473620   11.008955585
    0.472787980   10.264724884    9.005839875   11.013835446
    0.479966611   10.269271776    9.009260731   11.018795066
    0.487145242   10.273891989    9.012736333   11.023834687
    0.494323873   10.278585745    9.016266831   11.028954553
    0.501502504   10.283353273    9.019852374   11.034154914
    0.508681135   10.288194804    9.023493116   11.039436023
    0.515859766   10.293110574    9.027189214   11.044798139
    0.523038397   10.298100821    9.030940825   11.050241523
    0.530217028   10.303165790    9.034748112   11.055766444
    0.537395659   10.308305728    9.038611239   11.061373171
    0.544574290   10.313520886    9.042530372   11.067061982
    0.551752922   10.318811521    9.046505680   11.072833156
    0.558931553   10.324177893    9.050537336   11.078686979
    0.566110184   10.329620266    9.054625514   11.084623741
    0.573288815   10.335138908    9.058770393   11.090643735
    0.580467446   10.340734093    9.062972152   11.096747261
    0.587646077   10.346406097    9.067230976   11.102934622
    0.594824708   10.352155203    9.071547049   11.109206128
    0.602003339   10.357981695    9.075920561   11.115562091
    0.609181970   10.363885865    9.080351704   11.122002831
    0.616360601   10.369868008    9.084840673   11.128528669
    0.623539232   10.375928422    9.089387665   11.135139935
    0.630717863   10.382067412    9.093992880   11.141836961
    0.637896494   10.388285286    9.098656522   11.148620087
    0.645075125   10.394582358    9.103378798   11.155489654
    0.652253756   10.400958945    9.108159918   11.162446012
    0.659432387   10.407415370    9.113000093   11.169489514
    0.666611018   10.413951960    9.117899540   11.176620519
    0.673789649   10.420569048    9.122858478   11.183839391
    0.680968280   10.427266970    9.127877128   11.191146500
    0.688146912   10.434046069    9.132955715   11.198542221
    0.695325543   10.440906691    9.138094468   11.206026934
    0.702504174   10.447849189    9.143293617   11.213601024
    0.709682805   10.454873919    9.148553399   11.221264884
    0.716861436   10.461981244    9.153874051   11.229018910
    0.724040067   10.469171531    9.159255813   11.236863505
    0.731218698   10.476445152    9.164698931   11.244799077
    0.738397329   10.483802485    9.170203653   11.252826040
    0.745575960   10.491243914    9.175770230   11.260944815
    0.752754591   10.498769825    9.181398917   11.269155826
    0.759933222   10.506380614    9.187089971   11.277459507
    0.767111853   10.514076680    9.192843656   11.285856294
    0.774290484   10.521858428    9.198660236   11.294346633
    0.781469115   10.529726267    9.204539979   11.302930971
    0.788647746   10.537680615    9.210483159   11.311609767
    0.795826377   10.545721893    9.216490052   11.320383482
    0.803005008   10.553850528    9.222560936   11.329252586
    0.810183639   10.562066955    9.228696096   11.338217554
    0.817362270   10.570371612    9.234895820   11.347278867
    0.824540902   10.578764945    9.241160396   11.356437013
    0.831719533   10.587247406    9.247490122   11.365692489
    0.838898164   10.595819451    9.253885295   11.375045795
    0.846076795   10.604481545    9.260346217   11.384497440
    0.853255426   10.613234157    9.266873196   11.394047939
    0.860434057   10.622077764    9.273466542   11.403697814
    0.867612688   10.631012848    9.280126569   11.413447595
    0.874791319   10.640039899    9.286853595   11.423297819
    0.881969950   10.649159411    9.293647945   11.433249028
    0.889148581   10.658371888    9.300509944   11.443301773
    0.896327212   10.667677839    9.307439923   11.453456612
    0.903505843   10.677077778    9.314438219   11.463714112
    0.910684474   10.686572228    9.321505169   11.474074845
    0.917863105   10.696161720    9.328641119   11.484539392
    0.925041736   10.705846789    9.335846417   11.495108340
    0.932220367   10.715627979    9.343121415   11.505782288
    0.939398998   10.725505842    9.350466471   11.516561837
    0.946577629   10.735480934    9.357881947   11.527447601
    0.953756260   10.745553821    9.365368208   11.538440200
    0.960934891   10.755725077    9.372925627   11.549540262
    0.968113523   10.765995282    9.380554579   11.560748424
    0.975292154   10.776365023    9.388255444   11.572065330
    0.982470785   10.786834897    9.396028607   11.583491634
    0.989649416   10.797405507    9.403874460   11.595027999
    0.996828047   10.808077465    9.411793396   11.606675094
    1.004006678   10.818851390    9.419785817   11.618433601
    1.011185309   10.829727910    9.427852127   11.630304206
    1.018363940   10.840707662    9.435992737   11.642287609
    1.025542571   10.851791289    9.444208062   11.654384516
    1.032721202   10.862979444    9.452498522   11.666595642
    1.039899833   10.874272789    9.460864545   11.678921713
    1.047078464   10.885671993    9.469306560   11.691363465
    1.054257095   10.897177736    9.477825006   11.703921642
    1.061435726   10.908790705    9.486420323   11.716596998
    1.068614357   10.920511597    9.495092961   11.729390299
    1.075792988   10.932341117    9.503843372   11.742302317
    1.082971619   10.944279982    9.512672015   11.755333839
    1.090150250   10.956328915    9.521579357   11.768485658
    1.097328881   10.968488651    9.530565867   11.781758581
    1.104507513   10.980759933    9.539632022   11.795153423
    1.111686144   10.993143515    9.548778306   11.808671011
    1.118864775   11.005640161    9.558005208   11.822312183
    1.126043406   11.018250643    9.567313223   11.836077788
    1.133222037   11.030975746    9.576702852   11.849968685
    1.140400668   11.043816264    9.586174604   11.863985746
    1.147579299   11.056773001    9.595728995   11.878129853
    1.154757930   11.069846772    9.605366545   11.892401901
    1.161936561   11.083038404    9.615087782   11.906802797
    1.169115192   11.096348733    9.624893231   11.921333459
    1.176293823   11.109778607    9.634783397   11.935994816
    1.183472454   11.123328883    9.644758728   11.950787810
    1.190651085   11.137000434    9.654819744   11.965713397
    1.197829716   11.150794142    9.664967277   11.980772547
    1.205008347   11.164710903    9.675201970   11.995966245
    1.212186978   11.178751622    9.685524286   12.011295481
    1.219365609   11.192917217    9.695934754   12.026761264
    1.226544240   11.207208616    9.706433951   12.042364613
    1.233722871   11.221626764    9.717022474   12.058106563
    1.240901503   11.236172615    9.727700930   12.073988163
    1.248080134   11.250847138    9.738469934   12.090010476
    1.255258765   11.265651313    9.749330108   12.106174578
    1.262437396   11.280586136    9.760282079   12.122481562
    1.269616027   11.295652613    9.771326467   12.138932532
    1.276794658   11.310851765    9.782463855   12.155528610
    1.283973289   11.326184624    9.793694824   12.172270930
    1.291151920   11.341652245    9.805020189   12.189160647
    1.298330551   11.357255694    9.816440768   12.206198930
    1.305509182   11.372996046    9.827957164   12.223386963
    1.312687813   11.388874395    9.839570005   12.240725944
    1.319866444   11.404891846    9.851279970   12.258217089
    1.327045075   11.421049522    9.863087764   12.275861629
    1.334223706   11.437348563    9.874994100   12.293660815
    1.341402337   11.453790120    9.886999704   12.311615914
    1.348580968   11.470375366    9.899105311   12.329728211
    1.355759599   11.487105484    9.911311664   12.347999006
    1.362938230   11.503981678    9.923619517   12.366429621
    1.370116861   11.521005167    9.936029633   12.385021394
    1.377295492   11.538177186    9.948542786   12.403775681
    1.384474124   11.555498988    9.961159758   12.422693861
    1.391652755   11.572971845    9.973881343   12.441777326
    1.398831386   11.590597045    9.986708346   12.461027493
    1.406010017   11.608375894    9.999641580   12.480445797
    1.413188648   11.626309717   10.012681872   12.500033692
    1.420367279   11.644399856   10.025830058   12.519792652
    1.427545910   11.662647669   10.039086986   12.539724168
    1.434724541   11.681054524   10.052453515   12.559829745
    1.441903172   11.699621825   10.065930515   12.580110923
    1.449081803   11.718351026   10.079518869   12.600569300
    1.456260434   11.737243571   10.093219470   12.621206459
    1.463439065   11.756300908   10.107033226   12.642023994
    1.470617696   11.775524517   10.120961054   12.663023529
    1.477796327   11.794915899   10.135003887   12.684206714
    1.484974958   11.814476581   10.149162667   12.705575226
    1.492153589   11.834208103   10.163438351   12.727130757
    1.499332220   11.854112021   10.177831909   12.748875016
    1.506510851   11.874189934   10.192344324   12.770809762
    1.513689482   11.894443497   10.206976594   12.792936811
    1.520868114   11.914874351   10.221729727   12.815257965
    1.528046745   11.935484144   10.236604749   12.837775036
    1.535225376   11.956274560   10.251602698   12.860489876
    1.542404007   11.977247313   10.266724628   12.883404366
    1.549582638   11.998404141   10.281971607   12.906520417
    1.556761269   12.019746809   10.297344716   12.929839968
    1.563939900   12.041277110   10.312845055   12.953364990
    1.571118531   12.062996861   10.328473737   12.977097480
    1.578297162   12.084907908   10.344231891   13.001039467
    1.585475793   12.107012125   10.360120663   13.025193008
    1.592654424   12.129311412   10.376141214   13.049560195
    1.599833055   12.151807701   10.392294723   13.074143149
    1.607011686   12.174502950   10.408582385   13.098944023
    1.614190317   12.197399150   10.425005411   13.123965005
    1.621368948   12.220498319   10.441565033   13.149208316
    1.628547579   12.243802510   10.458262498   13.174676208
    1.635726210   12.267313805   10.475099071   13.200370973
    1.642904841   12.291034318   10.492076036   13.226294935
    1.650083472   12.314966197   10.509194698   13.252450454
    1.657262104   12.339111623   10.526456377   13.278839929
    1.664440735   12.363472810   10.543862415   13.305465794
    1.671619366   12.388052010   10.561414175   13.332330525
    1.678797997   12.412851507   10.579113036   13.359436634
    1.685976628   12.437873623   10.596960403   13.386786672
    1.693155259   12.463120714   10.614957696   13.414383233
    1.700333890   12.488595167   10.633106362   13.442228942
    1.707512521   12.514299386   10.651407863   13.470326451
    1.714691152   12.540235804   10.669863686   13.498678446
    1.721869783   12.566407000   10.688475346   13.527287746
    1.729048414   12.592815611   10.707244380   13.556157232
    1.736227045   12.619464197   10.726172342   13.585289728
    1.743405676   12.646355362   10.745260816   13.614688105
    1.750584307   12.673491776   10.764511406   13.644355303
    1.757762938   12.700876160   10.783925743   13.674294316
    1.764941569   12.728511282   10.803505480   13.704508190
    1.772120200   12.756399956   10.823252297   13.735000020
    1.779298831   12.784545044   10.843167897   13.765772955
    1.786477462   12.812949454   10.863254001   13.796830194
    1.793656093   12.841616142   10.883512373   13.828174992
    1.800834725   12.870548117   10.903944839   13.859810658
    1.808013356   12.899748437   10.924553216   13.891740558
    1.815191987   12.929220211   10.945339338   13.923968112
    1.822370618   12.958966597   10.966305078   13.956496798
    1.829549249   12.988990799   10.987452337   13.989330140
    1.836727880   13.019296048   11.008783046   14.022471691
    1.843906511   13.049885642   11.030299170   14.055925076
    1.851085142   13.080763069   11.052002728   14.089694147
    1.858263773   13.111931831   11.073895758   14.123782765
    1.865442404   13.143395386   11.095980326   14.158194731
    1.872621035   13.175157271   11.118258533   14.192933937
    1.879799666   13.207221105   11.140732513   14.228004368
    1.886978297   13.239590579   11.163404434   14.263410087
    1.894156928   13.272269451   11.186276505   14.299155233
    1.901335559   13.305261546   11.209350971   14.335244018
    1.908514190   13.338570759   11.232630116   14.371680728
    1.915692821   13.372201052   11.256116262   14.408469730
    1.922871452   13.406156462   11.279811771   14.445615471
    1.930050083   13.440441098   11.303719048   14.483122478
    1.937228715   13.475059144   11.327840534   14.520995359
    1.944407346   13.510014860   11.352178717   14.559238805
    1.951585977   13.545312580   11.376736124   14.597857595
    1.958764608   13.580956712   11.401515331   14.636856583
    1.965943239   13.616951724   11.426518955   14.676240699
    1.973121870   13.653302219   11.451749661   14.716015012
    1.980300501   13.690012947   11.477210162   14.756184746
    1.987479132   13.727088660   11.502903217   14.796755141
    1.994657763   13.764534182   11.528831638   14.837731516
    2.001836394   13.802354445   11.554998284   14.879119309
    2.009015025   13.840554485   11.581406068   14.920924072
    2.016193656   13.879139439   11.608057955   14.963151467
    2.023372287   13.918114544   11.634956966   15.005807266
    2.030550918   13.957485136   11.662106175   15.048897354
    2.037729549   13.997256659   11.689508714   15.092427732
    2.044908180   14.037434656   11.717167773   15.136404515
    2.052086811   14.078024775   11.745086602   15.180833932
    2.059265442   14.119032755   11.773268512   15.225722319
    2.066444073   14.160464479   11.801716875   15.271076165
    2.073622705   14.202326040   11.830435131   15.316902177
    2.080801336   14.244623580   11.859426781   15.363207125
    2.087979967   14.287363315   11.888695397   15.409997874
    2.095158598   14.330551607   11.918244617   15.457281449
    2.102337229   14.374194958   11.948078152   15.505065023
    2.109515860   14.418299990   11.978199784   15.553355914
    2.116694491   14.462873447   12.008613370   15.602161578
    2.123873122   14.507922277   12.039322843   15.651489672
    2.131051753   14.553453637   12.070332214   15.701348069
    2.138230384   14.599474742   12.101645572   15.751744743
    2.145409015   14.645992885   12.133267087   15.802687776
    2.152587646   14.693015608   12.165201014   15.854185488
    2.159766277   14.740550692   12.197451700   15.906246430
    2.166944908   14.788605983   12.230023580   15.958879272
    2.174123539   14.837189481   12.262921202   16.012092865
    2.181302170   14.886309382   12.296149180   16.065896268
    2.188480801   14.935974072   12.329712221   16.120298748
    2.195659432   14.986192125   12.363615138   16.175309779
    2.202838063   15.036972309   12.397862844   16.230939047
    2.210016694   15.088323589   12.432460362   16.287196459
    2.217195326   15.140255130   12.467412814   16.344092147
    2.224373957   15.192776305   12.502725434   16.401636470
    2.231552588   15.245896691   12.538403578   16.459840023
    2.238731219   15.299626058   12.574452727   16.518713618
    2.245909850   15.353974370   12.610878461   16.578268301
    2.253088481   15.408951991   12.647686497   16.638515499
    2.260267112   15.464569589   12.684882687   16.699466969
    2.267445743   15.520837881   12.722473001   16.761134587
    2.274624374   15.577767828   12.760463537   16.823530501
    2.281803005   15.635370694   12.798860540   16.886667187
    2.288981636   15.693658029   12.837670396   16.950557428
    2.296160267   15.752641658   12.876899639   17.015214290
    2.303338898   15.812333667   12.916554944   17.080651039
    2.310517529   15.872746406   12.956643121   17.146881005
    2.317696160   15.933892582   12.997171129   17.213917825
    2.324874791   15.995785398   13.038146180   17.281776608
    2.332053422   16.058438384   13.079575734   17.350473456
    2.339232053   16.121865216   13.121467320   17.420023540
    2.346410684   16.186079882   13.163828582   17.490441834
    2.353589316   16.251096783   13.206667384   17.561744065
    2.360767947   16.316930722   13.249991805   17.633946579
    2.367946578   16.383596895   13.293810127   17.707066209
    2.375125209   16.451110901   13.338130842   17.781120246
    2.382303840   16.519488749   13.382962654   17.856126440
    2.389482471   16.588746853   13.428314484   17.932103003
    2.396661102   16.658901980   13.474195468   18.009068606
    2.403839733   16.729971134   13.520614968   18.087042384
    2.411018364   16.801971521   13.567582586   18.166043991
    2.418196995   16.874921587   13.615108201   18.246093830
    2.425375626   16.948841544   13.663202071   18.327213099
    2.432554257   17.023751303   13.711874699   18.409423329
    2.439732888   17.099670112   13.761136726   18.492746429
    2.446911519   17.176617934   13.810999094   18.577204973
    2.454090150   17.254615687   13.861473082   18.662822310
    2.461268781   17.333685028   13.912570284   18.749622523
    2.468447412   17.413848161   13.964302608   18.837630315
    2.475626043   17.495128030   14.016682326   18.926871149
    2.482804674   17.577548210   14.069722051   19.017371231
    2.489983306   17.661133150   14.123434735   19.109157700
    2.497161937   17.745908048   14.177833709   19.202258526
    2.504340568   17.831898544   14.232932694   19.296702308
    2.511519199   17.919131016   14.288745815   19.392518493
    2.518697830   18.007632981   14.345287612   19.489737669
    2.525876461   18.097432976   14.402573050   19.588391478
    2.533055092   18.188559700   14.460617523   19.688511974
    2.540233723   18.281042590   14.519436942   19.790132050
