# energy grid [eV]     ieps_x  ieps_y  ieps_z
#
    0.200000000    5.949966216    4.659653901    6.564293663
    0.207178631    5.948882092    4.658929446    6.563084372
    0.214357262    5.947760253    4.658179760    6.561833009
    0.221535893    5.946600752    4.657404876    6.560539632
    0.228714524    5.945403643    4.656604827    6.559204302
    0.235893155    5.944168983    4.655779647    6.557827082
    0.243071786    5.942896829    4.654929373    6.556408035
    0.250250417    5.941587242    4.654054041    6.554947227
    0.257429048    5.940240283    4.653153688    6.553444728
    0.264607679    5.938856014    4.652228354    6.551900606
    0.271786311    5.937434502    4.651278078    6.550314935
    0.278964942    5.935975811    4.650302900    6.548687787
    0.286143573    5.934480010    4.649302864    6.547019238
    0.293322204    5.932947170    4.648278011    6.545309365
    0.300500835    5.931377361    4.647228385    6.543558249
    0.307679466    5.929770657    4.646154032    6.541765969
    0.314858097    5.928127132    4.645054997    6.539932610
    0.322036728    5.926446863    4.643931328    6.538058256
    0.329215359    5.924729927    4.642783072    6.536142992
    0.336393990    5.922976406    4.641610277    6.534186909
    0.343572621    5.921186379    4.640412996    6.532190095
    0.350751252    5.919359929    4.639191277    6.530152643
    0.357929883    5.917497141    4.637945173    6.528074647
    0.365108514    5.915598102    4.636674736    6.525956202
    0.372287145    5.913662898    4.635380022    6.523797404
    0.379465776    5.911691618    4.634061084    6.521598354
    0.386644407    5.909684354    4.632717978    6.519359151
    0.393823038    5.907641197    4.631350761    6.517079898
    0.401001669    5.905562242    4.629959491    6.514760699
    0.408180301    5.903447583    4.628544226    6.512401659
    0.415358932    5.901297317    4.627105026    6.510002887
    0.422537563    5.899111543    4.625641951    6.507564490
    0.429716194    5.896890360    4.624155063    6.505086580
    0.436894825    5.894633870    4.622644424    6.502569269
    0.444073456    5.892342174    4.621110097    6.500012671
    0.451252087    5.890015378    4.619552146    6.497416901
    0.458430718    5.887653586    4.617970637    6.494782076
    0.465609349    5.885256906    4.616365635    6.492108316
    0.472787980    5.882825446    4.614737207    6.489395740
    0.479966611    5.880359315    4.613085420    6.486644471
    0.487145242    5.877858626    4.611410344    6.483854631
    0.494323873    5.875323490    4.609712048    6.481026345
    0.501502504    5.872754021    4.607990601    6.478159740
    0.508681135    5.870150335    4.606246075    6.475254945
    0.515859766    5.867512548    4.604478542    6.472312087
    0.523038397    5.864840778    4.602688074    6.469331298
    0.530217028    5.862135144    4.600874746    6.466312710
    0.537395659    5.859395767    4.599038631    6.463256458
    0.544574290    5.856622769    4.597179805    6.460162675
    0.551752922    5.853816272    4.595298344    6.457031499
    0.558931553    5.850976401    4.593394324    6.453863068
    0.566110184    5.848103281    4.591467823    6.450657521
    0.573288815    5.845197039    4.589518920    6.447414999
    0.580467446    5.842257804    4.587547693    6.444135644
    0.587646077    5.839285704    4.585554222    6.440819599
    0.594824708    5.836280870    4.583538589    6.437467008
    0.602003339    5.833243434    4.581500874    6.434078019
    0.609181970    5.830173527    4.579441159    6.430652779
    0.616360601    5.827071285    4.577359528    6.427191435
    0.623539232    5.823936841    4.575256063    6.423694138
    0.630717863    5.820770332    4.573130850    6.420161038
    0.637896494    5.817571896    4.570983973    6.416592289
    0.645075125    5.814341671    4.568815517    6.412988044
    0.652253756    5.811079795    4.566625570    6.409348457
    0.659432387    5.807786410    4.564414218    6.405673684
    0.666611018    5.804461657    4.562181548    6.401963883
    0.673789649    5.801105678    4.559927650    6.398219212
    0.680968280    5.797718618    4.557652612    6.394439829
    0.688146912    5.794300620    4.555356523    6.390625896
    0.695325543    5.790851830    4.553039475    6.386777574
    0.702504174    5.787372394    4.550701558    6.382895025
    0.709682805    5.783862461    4.548342863    6.378978414
    0.716861436    5.780322178    4.545963483    6.375027904
    0.724040067    5.776751695    4.543563510    6.371043663
    0.731218698    5.773151162    4.541143038    6.367025856
    0.738397329    5.769520730    4.538702160    6.362974651
    0.745575960    5.765860551    4.536240972    6.358890217
    0.752754591    5.762170777    4.533759567    6.354772725
    0.759933222    5.758451564    4.531258043    6.350622343
    0.767111853    5.754703065    4.528736494    6.346439245
    0.774290484    5.750925435    4.526195018    6.342223603
    0.781469115    5.747118831    4.523633711    6.337975589
    0.788647746    5.743283410    4.521052672    6.333695379
    0.795826377    5.739419330    4.518451998    6.329383147
    0.803005008    5.735526748    4.515831789    6.325039069
    0.810183639    5.731605825    4.513192143    6.320663323
    0.817362270    5.727656720    4.510533161    6.316256086
    0.824540902    5.723679594    4.507854943    6.311817536
    0.831719533    5.719674608    4.505157588    6.307347852
    0.838898164    5.715641925    4.502441199    6.302847215
    0.846076795    5.711581707    4.499705877    6.298315805
    0.853255426    5.707494117    4.496951724    6.293753804
    0.860434057    5.703379320    4.494178841    6.289161393
    0.867612688    5.699237479    4.491387333    6.284538756
    0.874791319    5.695068762    4.488577303    6.279886077
    0.881969950    5.690873332    4.485748853    6.275203538
    0.889148581    5.686651357    4.482902089    6.270491326
    0.896327212    5.682403004    4.480037114    6.265749625
    0.903505843    5.678128440    4.477154033    6.260978621
    0.910684474    5.673827833    4.474252953    6.256178502
    0.917863105    5.669501352    4.471333977    6.251349455
    0.925041736    5.665149166    4.468397212    6.246491666
    0.932220367    5.660771445    4.465442764    6.241605325
    0.939398998    5.656368357    4.462470740    6.236690621
    0.946577629    5.651940075    4.459481247    6.231747742
    0.953756260    5.647486768    4.456474391    6.226776879
    0.960934891    5.643008609    4.453450281    6.221778221
    0.968113523    5.638505768    4.450409024    6.216751960
    0.975292154    5.633978419    4.447350728    6.211698288
    0.982470785    5.629426733    4.444275502    6.206617394
    0.989649416    5.624850884    4.441183454    6.201509473
    0.996828047    5.620251044    4.438074693    6.196374715
    1.004006678    5.615627388    4.434949329    6.191213314
    1.011185309    5.610980089    4.431807470    6.186025463
    1.018363940    5.606309321    4.428649226    6.180811356
    1.025542571    5.601615259    4.425474707    6.175571186
    1.032721202    5.596898078    4.422284024    6.170305148
    1.039899833    5.592157953    4.419077286    6.165013436
    1.047078464    5.587395059    4.415854603    6.159696245
    1.054257095    5.582609571    4.412616088    6.154353770
    1.061435726    5.577801666    4.409361850    6.148986206
    1.068614357    5.572971519    4.406092000    6.143593748
    1.075792988    5.568119306    4.402806650    6.138176593
    1.082971619    5.563245204    4.399505911    6.132734937
    1.090150250    5.558349390    4.396189894    6.127268974
    1.097328881    5.553432040    4.392858711    6.121778903
    1.104507513    5.548493330    4.389512475    6.116264919
    1.111686144    5.543533438    4.386151296    6.110727218
    1.118864775    5.538552541    4.382775287    6.105165998
    1.126043406    5.533550815    4.379384560    6.099581456
    1.133222037    5.528528439    4.375979227    6.093973788
    1.140400668    5.523485589    4.372559400    6.088343191
    1.147579299    5.518422443    4.369125192    6.082689863
    1.154757930    5.513339177    4.365676716    6.077014000
    1.161936561    5.508235971    4.362214083    6.071315800
    1.169115192    5.503113000    4.358737407    6.065595460
    1.176293823    5.497970442    4.355246800    6.059853177
    1.183472454    5.492808476    4.351742375    6.054089149
    1.190651085    5.487627277    4.348224245    6.048303572
    1.197829716    5.482427025    4.344692522    6.042496644
    1.205008347    5.477207895    4.341147319    6.036668562
    1.212186978    5.471970065    4.337588749    6.030819523
    1.219365609    5.466713714    4.334016925    6.024949724
    1.226544240    5.461439016    4.330431959    6.019059363
    1.233722871    5.456146151    4.326833965    6.013148635
    1.240901503    5.450835294    4.323223055    6.007217737
    1.248080134    5.445506622    4.319599342    6.001266867
    1.255258765    5.440160313    4.315962938    5.995296220
    1.262437396    5.434796542    4.312313957    5.989305993
    1.269616027    5.429415487    4.308652512    5.983296382
    1.276794658    5.424017323    4.304978714    5.977267582
    1.283973289    5.418602226    4.301292676    5.971219791
    1.291151920    5.413170373    4.297594511    5.965153203
    1.298330551    5.407721938    4.293884331    5.959068013
    1.305509182    5.402257099    4.290162248    5.952964418
    1.312687813    5.396776029    4.286428375    5.946842611
    1.319866444    5.391278903    4.282682825    5.940702787
    1.327045075    5.385765898    4.278925708    5.934545141
    1.334223706    5.380237186    4.275157137    5.928369867
    1.341402337    5.374692943    4.271377224    5.922177158
    1.348580968    5.369133342    4.267586080    5.915967209
    1.355759599    5.363558558    4.263783818    5.909740212
    1.362938230    5.357968763    4.259970548    5.903496360
    1.370116861    5.352364131    4.256146382    5.897235847
    1.377295492    5.346744834    4.252311431    5.890958863
    1.384474124    5.341111046    4.248465807    5.884665601
    1.391652755    5.335462937    4.244609619    5.878356253
    1.398831386    5.329800681    4.240742979    5.872031009
    1.406010017    5.324124448    4.236865998    5.865690061
    1.413188648    5.318434410    4.232978785    5.859333599
    1.420367279    5.312730737    4.229081452    5.852961812
    1.427545910    5.307013600    4.225174107    5.846574891
    1.434724541    5.301283168    4.221256861    5.840173024
    1.441903172    5.295539612    4.217329823    5.833756400
    1.449081803    5.289783101    4.213393104    5.827325207
    1.456260434    5.284013802    4.209446811    5.820879634
    1.463439065    5.278231886    4.205491054    5.814419867
    1.470617696    5.272437518    4.201525943    5.807946093
    1.477796327    5.266630868    4.197551584    5.801458499
    1.484974958    5.260812102    4.193568088    5.794957271
    1.492153589    5.254981387    4.189575561    5.788442594
    1.499332220    5.249138888    4.185574113    5.781914652
    1.506510851    5.243284771    4.181563849    5.775373630
    1.513689482    5.237419203    4.177544878    5.768819713
    1.520868114    5.231542346    4.173517307    5.762253083
    1.528046745    5.225654366    4.169481243    5.755673922
    1.535225376    5.219755425    4.165436792    5.749082414
    1.542404007    5.213845688    4.161384061    5.742478740
    1.549582638    5.207925317    4.157323156    5.735863081
    1.556761269    5.201994474    4.153254182    5.729235617
    1.563939900    5.196053321    4.149177244    5.722596529
    1.571118531    5.190102018    4.145092449    5.715945995
    1.578297162    5.184140727    4.140999901    5.709284195
    1.585475793    5.178169607    4.136899705    5.702611306
    1.592654424    5.172188817    4.132791964    5.695927507
    1.599833055    5.166198517    4.128676784    5.689232973
    1.607011686    5.160198865    4.124554267    5.682527881
    1.614190317    5.154190018    4.120424518    5.675812408
    1.621368948    5.148172134    4.116287638    5.669086727
    1.628547579    5.142145369    4.112143731    5.662351013
    1.635726210    5.136109880    4.107992900    5.655605440
    1.642904841    5.130065821    4.103835246    5.648850181
    1.650083472    5.124013347    4.099670871    5.642085408
    1.657262104    5.117952612    4.095499876    5.635311293
    1.664440735    5.111883771    4.091322364    5.628528008
    1.671619366    5.105806975    4.087138433    5.621735721
    1.678797997    5.099722377    4.082948186    5.614934603
    1.685976628    5.093630130    4.078751721    5.608124824
    1.693155259    5.087530383    4.074549139    5.601306550
    1.700333890    5.081423287    4.070340538    5.594479950
    1.707512521    5.075308992    4.066126019    5.587645191
    1.714691152    5.069187648    4.061905679    5.580802438
    1.721869783    5.063059401    4.057679616    5.573951857
    1.729048414    5.056924401    4.053447929    5.567093613
    1.736227045    5.050782794    4.049210716    5.560227870
    1.743405676    5.044634728    4.044968072    5.553354791
    1.750584307    5.038480346    4.040720095    5.546474537
    1.757762938    5.032319796    4.036466882    5.539587272
    1.764941569    5.026153220    4.032208527    5.532693156
    1.772120200    5.019980764    4.027945128    5.525792349
    1.779298831    5.013802569    4.023676778    5.518885011
    1.786477462    5.007618779    4.019403574    5.511971300
    1.793656093    5.001429534    4.015125608    5.505051375
    1.800834725    4.995234977    4.010842976    5.498125392
    1.808013356    4.989035246    4.006555771    5.491193508
    1.815191987    4.982830483    4.002264086    5.484255878
    1.822370618    4.976620825    3.997968014    5.477312658
    1.829549249    4.970406411    3.993667647    5.470364001
    1.836727880    4.964187379    3.989363077    5.463410061
    1.843906511    4.957963864    3.985054396    5.456450990
    1.851085142    4.951736004    3.980741696    5.449486940
    1.858263773    4.945503933    3.976425066    5.442518062
    1.865442404    4.939267786    3.972104597    5.435544506
    1.872621035    4.933027696    3.967780379    5.428566421
    1.879799666    4.926783798    3.963452501    5.421583955
    1.886978297    4.920536223    3.959121054    5.414597257
    1.894156928    4.914285103    3.954786124    5.407606473
    1.901335559    4.908030569    3.950447801    5.400611749
    1.908514190    4.901772751    3.946106172    5.393613231
    1.915692821    4.895511779    3.941761325    5.386611063
    1.922871452    4.889247781    3.937413346    5.379605389
    1.930050083    4.882980885    3.933062322    5.372596351
    1.937228715    4.876711220    3.928708339    5.365584092
    1.944407346    4.870438910    3.924351483    5.358568752
    1.951585977    4.864164082    3.919991839    5.351550472
    1.958764608    4.857886861    3.915629491    5.344529392
    1.965943239    4.851607371    3.911264524    5.337505650
    1.973121870    4.845325736    3.906897022    5.330479384
    1.980300501    4.839042078    3.902527069    5.323450731
    1.987479132    4.832756519    3.898154746    5.316419827
    1.994657763    4.826469182    3.893780137    5.309386808
    2.001836394    4.820180185    3.889403324    5.302351808
    2.009015025    4.813889649    3.885024389    5.295314961
    2.016193656    4.807597694    3.880643412    5.288276400
    2.023372287    4.801304436    3.876260474    5.281236257
    2.030550918    4.795009995    3.871875656    5.274194663
    2.037729549    4.788714485    3.867489038    5.267151748
    2.044908180    4.782418025    3.863100699    5.260107642
    2.052086811    4.776120727    3.858710717    5.253062474
    2.059265442    4.769822708    3.854319172    5.246016371
    2.066444073    4.763524081    3.849926141    5.238969460
    2.073622705    4.757224958    3.845531703    5.231921869
    2.080801336    4.750925452    3.841135933    5.224873721
    2.087979967    4.744625675    3.836738910    5.217825141
    2.095158598    4.738325737    3.832340708    5.210776254
    2.102337229    4.732025748    3.827941405    5.203727182
    2.109515860    4.725725817    3.823541074    5.196678047
    2.116694491    4.719426052    3.819139791    5.189628970
    2.123873122    4.713126562    3.814737631    5.182580071
    2.131051753    4.706827452    3.810334668    5.175531470
    2.138230384    4.700528830    3.805930974    5.168483285
    2.145409015    4.694230801    3.801526623    5.161435635
    2.152587646    4.687933468    3.797121687    5.154388636
    2.159766277    4.681636937    3.792716239    5.147342404
    2.166944908    4.675341310    3.788310351    5.140297055
    2.174123539    4.669046689    3.783904093    5.133252704
    2.181302170    4.662753177    3.779497536    5.126209462
    2.188480801    4.656460874    3.775090751    5.119167445
    2.195659432    4.650169880    3.770683807    5.112126763
    2.202838063    4.643880294    3.766276774    5.105087527
    2.210016694    4.637592216    3.761869721    5.098049848
    2.217195326    4.631305742    3.757462715    5.091013836
    2.224373957    4.625020971    3.753055826    5.083979598
    2.231552588    4.618737998    3.748649121    5.076947244
    2.238731219    4.612456919    3.744242667    5.069916879
    2.245909850    4.606177829    3.739836530    5.062888610
    2.253088481    4.599900822    3.735430777    5.055862543
    2.260267112    4.593625992    3.731025473    5.048838781
    2.267445743    4.587353431    3.726620684    5.041817429
    2.274624374    4.581083231    3.722216475    5.034798589
    2.281803005    4.574815484    3.717812910    5.027782364
    2.288981636    4.568550279    3.713410052    5.020768855
    2.296160267    4.562287707    3.709007966    5.013758161
    2.303338898    4.556027856    3.704606715    5.006750384
    2.310517529    4.549770815    3.700206360    4.999745621
    2.317696160    4.543516672    3.695806965    4.992743972
    2.324874791    4.537265512    3.691408590    4.985745532
    2.332053422    4.531017423    3.687011298    4.978750398
    2.339232053    4.524772490    3.682615148    4.971758666
    2.346410684    4.518530796    3.678220201    4.964770431
    2.353589316    4.512292427    3.673826518    4.957785787
    2.360767947    4.506057465    3.669434157    4.950804827
    2.367946578    4.499825993    3.665043178    4.943827644
    2.375125209    4.493598093    3.660653638    4.936854328
    2.382303840    4.487373846    3.656265597    4.929884972
    2.389482471    4.481153331    3.651879112    4.922919665
    2.396661102    4.474936630    3.647494240    4.915958496
    2.403839733    4.468723820    3.643111038    4.909001553
    2.411018364    4.462514981    3.638729562    4.902048926
    2.418196995    4.456310188    3.634349868    4.895100699
    2.425375626    4.450109521    3.629972012    4.888156961
    2.432554257    4.443913054    3.625596049    4.881217795
    2.439732888    4.437720863    3.621222033    4.874283288
    2.446911519    4.431533022    3.616850019    4.867353522
    2.454090150    4.425349607    3.612480059    4.860428580
    2.461268781    4.419170690    3.608112209    4.853508546
    2.468447412    4.412996345    3.603746520    4.846593501
    2.475626043    4.406826642    3.599383044    4.839683524
    2.482804674    4.400661654    3.595021835    4.832778698
    2.489983306    4.394501451    3.590662943    4.825879100
    2.497161937    4.388346104    3.586306420    4.818984810
    2.504340568    4.382195681    3.581952317    4.812095905
    2.511519199    4.376050252    3.577600683    4.805212463
    2.518697830    4.369909883    3.573251569    4.798334560
    2.525876461    4.363774644    3.568905024    4.791462271
    2.533055092    4.357644600    3.564561097    4.784595671
    2.540233723    4.351519817    3.560219838    4.777734835
