# energy grid [eV]     ieps_x  ieps_y  ieps_z
#
    0.200000000    4.050695354    6.226584483    5.020193982
    0.207178631    4.050001878    6.225481758    5.019306005
    0.214357262    4.049284312    6.224340650    5.018387135
    0.221535893    4.048542695    6.223161209    5.017437417
    0.228714524    4.047777063    6.221943490    5.016456894
    0.235893155    4.046987459    6.220687547    5.015445613
    0.243071786    4.046173921    6.219393436    5.014403620
    0.250250417    4.045336493    6.218061216    5.013330966
    0.257429048    4.044475218    6.216690947    5.012227699
    0.264607679    4.043590140    6.215282690    5.011093872
    0.271786311    4.042681306    6.213836509    5.009929537
    0.278964942    4.041748762    6.212352468    5.008734750
    0.286143573    4.040792557    6.210830634    5.007509565
    0.293322204    4.039812739    6.209271075    5.006254039
    0.300500835    4.038809359    6.207673861    5.004968232
    0.307679466    4.037782470    6.206039063    5.003652203
    0.314858097    4.036732122    6.204366754    5.002306012
    0.322036728    4.035658372    6.202657009    5.000929723
    0.329215359    4.034561272    6.200909903    4.999523399
    0.336393990    4.033440881    6.199125516    4.998087106
    0.343572621    4.032297254    6.197303925    4.996620909
    0.350751252    4.031130450    6.195445212    4.995124877
    0.357929883    4.029940529    6.193549460    4.993599079
    0.365108514    4.028727552    6.191616752    4.992043584
    0.372287145    4.027491579    6.189647173    4.990458465
    0.379465776    4.026232674    6.187640812    4.988843794
    0.386644407    4.024950900    6.185597756    4.987199646
    0.393823038    4.023646322    6.183518096    4.985526095
    0.401001669    4.022319006    6.181401923    4.983823220
    0.408180301    4.020969019    6.179249331    4.982091096
    0.415358932    4.019596430    6.177060413    4.980329805
    0.422537563    4.018201305    6.174835267    4.978539425
    0.429716194    4.016783717    6.172573988    4.976720038
    0.436894825    4.015343736    6.170276677    4.974871728
    0.444073456    4.013881433    6.167943434    4.972994578
    0.451252087    4.012396882    6.165574360    4.971088674
    0.458430718    4.010890157    6.163169560    4.969154101
    0.465609349    4.009361332    6.160729136    4.967190947
    0.472787980    4.007810483    6.158253196    4.965199301
    0.479966611    4.006237688    6.155741846    4.963179253
    0.487145242    4.004643024    6.153195196    4.961130893
    0.494323873    4.003026569    6.150613356    4.959054314
    0.501502504    4.001388404    6.147996437    4.956949609
    0.508681135    3.999728608    6.145344552    4.954816871
    0.515859766    3.998047263    6.142657815    4.952656197
    0.523038397    3.996344451    6.139936341    4.950467683
    0.530217028    3.994620256    6.137180248    4.948251426
    0.537395659    3.992874761    6.134389652    4.946007525
    0.544574290    3.991108052    6.131564675    4.943736080
    0.551752922    3.989320213    6.128705435    4.941437191
    0.558931553    3.987511332    6.125812055    4.939110959
    0.566110184    3.985681496    6.122884658    4.936757489
    0.573288815    3.983830793    6.119923368    4.934376883
    0.580467446    3.981959311    6.116928311    4.931969247
    0.587646077    3.980067142    6.113899613    4.929534685
    0.594824708    3.978154374    6.110837402    4.927073305
    0.602003339    3.976221100    6.107741808    4.924585214
    0.609181970    3.974267412    6.104612959    4.922070521
    0.616360601    3.972293402    6.101450988    4.919529336
    0.623539232    3.970299163    6.098256027    4.916961769
    0.630717863    3.968284791    6.095028210    4.914367932
    0.637896494    3.966250380    6.091767671    4.911747936
    0.645075125    3.964196026    6.088474546    4.909101895
    0.652253756    3.962121824    6.085148972    4.906429923
    0.659432387    3.960027873    6.081791086    4.903732135
    0.666611018    3.957914270    6.078401028    4.901008647
    0.673789649    3.955781112    6.074978938    4.898259576
    0.680968280    3.953628500    6.071524956    4.895485038
    0.688146912    3.951456532    6.068039225    4.892685153
    0.695325543    3.949265310    6.064521888    4.889860040
    0.702504174    3.947054933    6.060973088    4.887009818
    0.709682805    3.944825503    6.057392970    4.884134609
    0.716861436    3.942577122    6.053781681    4.881234533
    0.724040067    3.940309894    6.050139367    4.878309713
    0.731218698    3.938023920    6.046466176    4.875360272
    0.738397329    3.935719305    6.042762257    4.872386334
    0.745575960    3.933396153    6.039027758    4.869388023
    0.752754591    3.931054569    6.035262831    4.866365464
    0.759933222    3.928694657    6.031467627    4.863318784
    0.767111853    3.926316525    6.027642298    4.860248109
    0.774290484    3.923920277    6.023786996    4.857153566
    0.781469115    3.921506022    6.019901876    4.854035283
    0.788647746    3.919073865    6.015987092    4.850893388
    0.795826377    3.916623916    6.012042800    4.847728012
    0.803005008    3.914156281    6.008069156    4.844539283
    0.810183639    3.911671070    6.004066316    4.841327332
    0.817362270    3.909168391    6.000034439    4.838092291
    0.824540902    3.906648354    5.995973682    4.834834291
    0.831719533    3.904111069    5.991884205    4.831553463
    0.838898164    3.901556646    5.987766168    4.828249942
    0.846076795    3.898985195    5.983619731    4.824923860
    0.853255426    3.896396828    5.979445055    4.821575350
    0.860434057    3.893791655    5.975242303    4.818204549
    0.867612688    3.891169789    5.971011636    4.814811589
    0.874791319    3.888531341    5.966753217    4.811396608
    0.881969950    3.885876424    5.962467212    4.807959740
    0.889148581    3.883205151    5.958153783    4.804501122
    0.896327212    3.880517633    5.953813096    4.801020891
    0.903505843    3.877813985    5.949445316    4.797519185
    0.910684474    3.875094320    5.945050610    4.793996140
    0.917863105    3.872358751    5.940629143    4.790451896
    0.925041736    3.869607393    5.936181084    4.786886590
    0.932220367    3.866840360    5.931706599    4.783300362
    0.939398998    3.864057766    5.927205857    4.779693352
    0.946577629    3.861259726    5.922679026    4.776065698
    0.953756260    3.858446354    5.918126276    4.772417541
    0.960934891    3.855617767    5.913547777    4.768749021
    0.968113523    3.852774080    5.908943697    4.765060279
    0.975292154    3.849915406    5.904314208    4.761351457
    0.982470785    3.847041864    5.899659480    4.757622696
    0.989649416    3.844153567    5.894979685    4.753874138
    0.996828047    3.841250633    5.890274994    4.750105924
    1.004006678    3.838333177    5.885545579    4.746318197
    1.011185309    3.835401315    5.880791613    4.742511100
    1.018363940    3.832455164    5.876013269    4.738684775
    1.025542571    3.829494841    5.871210718    4.734839366
    1.032721202    3.826520461    5.866384136    4.730975016
    1.039899833    3.823532141    5.861533695    4.727091868
    1.047078464    3.820529999    5.856659569    4.723190067
    1.054257095    3.817514150    5.851761933    4.719269756
    1.061435726    3.814484712    5.846840961    4.715331079
    1.068614357    3.811441801    5.841896827    4.711374182
    1.075792988    3.808385535    5.836929707    4.707399207
    1.082971619    3.805316030    5.831939777    4.703406301
    1.090150250    3.802233404    5.826927210    4.699395607
    1.097328881    3.799137773    5.821892184    4.695367271
    1.104507513    3.796029253    5.816834873    4.691321438
    1.111686144    3.792907963    5.811755453    4.687258253
    1.118864775    3.789774020    5.806654101    4.683177861
    1.126043406    3.786627539    5.801530994    4.679080408
    1.133222037    3.783468638    5.796386306    4.674966038
    1.140400668    3.780297433    5.791220215    4.670834898
    1.147579299    3.777114042    5.786032897    4.666687134
    1.154757930    3.773918581    5.780824530    4.662522889
    1.161936561    3.770711167    5.775595289    4.658342311
    1.169115192    3.767491916    5.770345351    4.654145545
    1.176293823    3.764260945    5.765074894    4.649932736
    1.183472454    3.761018370    5.759784094    4.645704031
    1.190651085    3.757764307    5.754473129    4.641459574
    1.197829716    3.754498873    5.749142174    4.637199512
    1.205008347    3.751222183    5.743791407    4.632923989
    1.212186978    3.747934353    5.738421006    4.628633153
    1.219365609    3.744635500    5.733031146    4.624327147
    1.226544240    3.741325738    5.727622005    4.620006118
    1.233722871    3.738005183    5.722193760    4.615670210
    1.240901503    3.734673951    5.716746586    4.611319570
    1.248080134    3.731332156    5.711280662    4.606954342
    1.255258765    3.727979914    5.705796164    4.602574672
    1.262437396    3.724617339    5.700293268    4.598180704
    1.269616027    3.721244545    5.694772150    4.593772583
    1.276794658    3.717861648    5.689232987    4.589350454
    1.283973289    3.714468761    5.683675955    4.584914462
    1.291151920    3.711065997    5.678101231    4.580464751
    1.298330551    3.707653472    5.672508989    4.576001466
    1.305509182    3.704231298    5.666899406    4.571524750
    1.312687813    3.700799588    5.661272658    4.567034747
    1.319866444    3.697358456    5.655628919    4.562531602
    1.327045075    3.693908014    5.649968365    4.558015457
    1.334223706    3.690448375    5.644291171    4.553486457
    1.341402337    3.686979650    5.638597511    4.548944744
    1.348580968    3.683501953    5.632887561    4.544390462
    1.355759599    3.680015394    5.627161494    4.539823752
    1.362938230    3.676520085    5.621419485    4.535244758
    1.370116861    3.673016137    5.615661707    4.530653623
    1.377295492    3.669503662    5.609888334    4.526050486
    1.384474124    3.665982768    5.604099540    4.521435492
    1.391652755    3.662453567    5.598295496    4.516808780
    1.398831386    3.658916169    5.592476377    4.512170493
    1.406010017    3.655370683    5.586642354    4.507520771
    1.413188648    3.651817218    5.580793599    4.502859755
    1.420367279    3.648255884    5.574930284    4.498187585
    1.427545910    3.644686789    5.569052582    4.493504401
    1.434724541    3.641110041    5.563160662    4.488810343
    1.441903172    3.637525748    5.557254695    4.484105550
    1.449081803    3.633934017    5.551334853    4.479390161
    1.456260434    3.630334957    5.545401304    4.474664316
    1.463439065    3.626728674    5.539454219    4.469928152
    1.470617696    3.623115273    5.533493767    4.465181807
    1.477796327    3.619494863    5.527520116    4.460425420
    1.484974958    3.615867547    5.521533436    4.455659127
    1.492153589    3.612233432    5.515533895    4.450883065
    1.499332220    3.608592623    5.509521659    4.446097371
    1.506510851    3.604945224    5.503496896    4.441302182
    1.513689482    3.601291339    5.497459774    4.436497632
    1.520868114    3.597631073    5.491410458    4.431683858
    1.528046745    3.593964528    5.485349114    4.426860994
    1.535225376    3.590291808    5.479275908    4.422029175
    1.542404007    3.586613015    5.473191005    4.417188535
    1.549582638    3.582928252    5.467094569    4.412339208
    1.556761269    3.579237621    5.460986764    4.407481327
    1.563939900    3.575541222    5.454867754    4.402615025
    1.571118531    3.571839157    5.448737703    4.397740435
    1.578297162    3.568131526    5.442596771    4.392857688
    1.585475793    3.564418429    5.436445123    4.387966917
    1.592654424    3.560699967    5.430282919    4.383068251
    1.599833055    3.556976237    5.424110320    4.378161823
    1.607011686    3.553247340    5.417927486    4.373247762
    1.614190317    3.549513373    5.411734579    4.368326198
    1.621368948    3.545774435    5.405531756    4.363397259
    1.628547579    3.542030622    5.399319178    4.358461076
    1.635726210    3.538282032    5.393097002    4.353517776
    1.642904841    3.534528761    5.386865386    4.348567487
    1.650083472    3.530770906    5.380624488    4.343610336
    1.657262104    3.527008562    5.374374464    4.338646450
    1.664440735    3.523241825    5.368115470    4.333675956
    1.671619366    3.519470788    5.361847662    4.328698979
    1.678797997    3.515695547    5.355571195    4.323715644
    1.685976628    3.511916195    5.349286223    4.318726077
    1.693155259    3.508132825    5.342992899    4.313730401
    1.700333890    3.504345530    5.336691377    4.308728741
    1.707512521    3.500554403    5.330381810    4.303721219
    1.714691152    3.496759536    5.324064349    4.298707958
    1.721869783    3.492961020    5.317739146    4.293689080
    1.729048414    3.489158945    5.311406351    4.288664708
    1.736227045    3.485353402    5.305066114    4.283634961
    1.743405676    3.481544482    5.298718586    4.278599961
    1.750584307    3.477732274    5.292363914    4.273559827
    1.757762938    3.473916866    5.286002247    4.268514679
    1.764941569    3.470098348    5.279633733    4.263464636
    1.772120200    3.466276807    5.273258517    4.258409815
    1.779298831    3.462452330    5.266876748    4.253350336
    1.786477462    3.458625006    5.260488569    4.248286314
    1.793656093    3.454794919    5.254094126    4.243217867
    1.800834725    3.450962157    5.247693564    4.238145110
    1.808013356    3.447126805    5.241287025    4.233068160
    1.815191987    3.443288948    5.234874654    4.227987130
    1.822370618    3.439448670    5.228456591    4.222902135
    1.829549249    3.435606056    5.222032979    4.217813290
    1.836727880    3.431761189    5.215603959    4.212720706
    1.843906511    3.427914151    5.209169670    4.207624497
    1.851085142    3.424065027    5.202730252    4.202524775
    1.858263773    3.420213897    5.196285845    4.197421650
    1.865442404    3.416360843    5.189836586    4.192315235
    1.872621035    3.412505946    5.183382613    4.187205638
    1.879799666    3.408649287    5.176924062    4.182092970
    1.886978297    3.404790946    5.170461069    4.176977339
    1.894156928    3.400931001    5.163993771    4.171858854
    1.901335559    3.397069533    5.157522301    4.166737623
    1.908514190    3.393206620    5.151046794    4.161613752
    1.915692821    3.389342339    5.144567382    4.156487349
    1.922871452    3.385476768    5.138084199    4.151358520
    1.930050083    3.381609984    5.131597376    4.146227369
    1.937228715    3.377742064    5.125107044    4.141094002
    1.944407346    3.373873083    5.118613334    4.135958523
    1.951585977    3.370003117    5.112116375    4.130821034
    1.958764608    3.366132240    5.105616296    4.125681640
    1.965943239    3.362260528    5.099113225    4.120540443
    1.973121870    3.358388054    5.092607291    4.115397543
    1.980300501    3.354514891    5.086098619    4.110253043
    1.987479132    3.350641113    5.079587336    4.105107042
    1.994657763    3.346766792    5.073073567    4.099959641
    2.001836394    3.342891999    5.066557436    4.094810938
    2.009015025    3.339016806    5.060039068    4.089661033
    2.016193656    3.335141285    5.053518586    4.084510023
    2.023372287    3.331265504    5.046996111    4.079358006
    2.030550918    3.327389534    5.040471766    4.074205078
    2.037729549    3.323513445    5.033945672    4.069051336
    2.044908180    3.319637305    5.027417949    4.063896874
    2.052086811    3.315761183    5.020888715    4.058741789
    2.059265442    3.311885146    5.014358091    4.053586173
    2.066444073    3.308009262    5.007826193    4.048430121
    2.073622705    3.304133598    5.001293140    4.043273726
    2.080801336    3.300258220    4.994759047    4.038117080
    2.087979967    3.296383193    4.988224030    4.032960274
    2.095158598    3.292508583    4.981688205    4.027803401
    2.102337229    3.288634456    4.975151685    4.022646550
    2.109515860    3.284760874    4.968614584    4.017489811
    2.116694491    3.280887903    4.962077016    4.012333274
    2.123873122    3.277015605    4.955539091    4.007177026
    2.131051753    3.273144044    4.949000921    4.002021157
    2.138230384    3.269273281    4.942462617    3.996865754
    2.145409015    3.265403378    4.935924289    3.991710903
    2.152587646    3.261534398    4.929386046    3.986556690
    2.159766277    3.257666400    4.922847995    3.981403201
    2.166944908    3.253799445    4.916310245    3.976250521
    2.174123539    3.249933593    4.909772903    3.971098735
    2.181302170    3.246068904    4.903236074    3.965947924
    2.188480801    3.242205435    4.896699864    3.960798174
    2.195659432    3.238343247    4.890164378    3.955649566
    2.202838063    3.234482397    4.883629719    3.950502182
    2.210016694    3.230622941    4.877095991    3.945356103
    2.217195326    3.226764938    4.870563296    3.940211410
    2.224373957    3.222908443    4.864031736    3.935068182
    2.231552588    3.219053514    4.857501411    3.929926500
    2.238731219    3.215200204    4.850972423    3.924786441
    2.245909850    3.211348570    4.844444870    3.919648084
    2.253088481    3.207498666    4.837918851    3.914511506
    2.260267112    3.203650546    4.831394464    3.909376785
    2.267445743    3.199804263    4.824871807    3.904243996
    2.274624374    3.195959872    4.818350975    3.899113215
    2.281803005    3.192117425    4.811832066    3.893984517
    2.288981636    3.188276973    4.805315173    3.888857977
    2.296160267    3.184438570    4.798800392    3.883733669
    2.303338898    3.180602265    4.792287816    3.878611665
    2.310517529    3.176768110    4.785777538    3.873492038
    2.317696160    3.172936156    4.779269649    3.868374862
    2.324874791    3.169106452    4.772764243    3.863260205
    2.332053422    3.165279049    4.766261408    3.858148141
    2.339232053    3.161453994    4.759761236    3.853038739
    2.346410684    3.157631336    4.753263816    3.847932068
    2.353589316    3.153811125    4.746769236    3.842828198
    2.360767947    3.149993406    4.740277584    3.837727197
    2.367946578    3.146178229    4.733788948    3.832629133
    2.375125209    3.142365639    4.727303413    3.827534073
    2.382303840    3.138555682    4.720821066    3.822442085
    2.389482471    3.134748406    4.714341992    3.817353234
    2.396661102    3.130943854    4.707866275    3.812267585
    2.403839733    3.127142073    4.701393998    3.807185204
    2.411018364    3.123343107    4.694925245    3.802106155
    2.418196995    3.119547000    4.688460098    3.797030502
    2.425375626    3.115753796    4.681998638    3.791958307
    2.432554257    3.111963538    4.675540946    3.786889635
    2.439732888    3.108176269    4.669087103    3.781824546
    2.446911519    3.104392031    4.662637188    3.776763103
    2.454090150    3.100610867    4.656191280    3.771705366
    2.461268781    3.096832818    4.649749456    3.766651395
    2.468447412    3.093057925    4.643311795    3.761601251
    2.475626043    3.089286230    4.636878372    3.756554993
    2.482804674    3.085517771    4.630449264    3.751512678
    2.489983306    3.081752591    4.624024547    3.746474367
    2.497161937    3.077990727    4.617604295    3.741440115
    2.504340568    3.074232219    4.611188582    3.736409981
    2.511519199    3.070477106    4.604777481    3.731384020
    2.518697830    3.066725426    4.598371065    3.726362288
    2.525876461    3.062977217    4.591969406    3.721344841
    2.533055092    3.059232516    4.585572576    3.716331734
    2.540233723    3.055491361    4.579180644    3.711323021
