# energy grid [eV]     ieps_x  ieps_y  ieps_z
#
    0.200000000    9.583410823    9.042559903    7.819820808
    0.207178631    9.581098481    9.040393691    7.818080510
    0.214357262    9.578706205    9.038152762    7.816280014
    0.221535893    9.576234158    9.035837284    7.814419439
    0.228714524    9.573682508    9.033447431    7.812498907
    0.235893155    9.571051428    9.030983382    7.810518546
    0.243071786    9.568341096    9.028445318    7.808478485
    0.250250417    9.565551695    9.025833430    7.806378857
    0.257429048    9.562683414    9.023147910    7.804219801
    0.264607679    9.559736446    9.020388954    7.802001457
    0.271786311    9.556710987    9.017556767    7.799723968
    0.278964942    9.553607240    9.014651553    7.797387483
    0.286143573    9.550425412    9.011673525    7.794992154
    0.293322204    9.547165715    9.008622897    7.792538133
    0.300500835    9.543828364    9.005499891    7.790025580
    0.307679466    9.540413581    9.002304729    7.787454655
    0.314858097    9.536921590    8.999037641    7.784825524
    0.322036728    9.533352621    8.995698858    7.782138353
    0.329215359    9.529706907    8.992288618    7.779393313
    0.336393990    9.525984687    8.988807161    7.776590579
    0.343572621    9.522186202    8.985254730    7.773730327
    0.350751252    9.518311701    8.981631575    7.770812739
    0.357929883    9.514361432    8.977937948    7.767837997
    0.365108514    9.510335651    8.974174103    7.764806287
    0.372287145    9.506234616    8.970340301    7.761717799
    0.379465776    9.502058590    8.966436804    7.758572724
    0.386644407    9.497807839    8.962463878    7.755371259
    0.393823038    9.493482635    8.958421793    7.752113600
    0.401001669    9.489083250    8.954310822    7.748799948
    0.408180301    9.484609963    8.950131242    7.745430507
    0.415358932    9.480063056    8.945883332    7.742005482
    0.422537563    9.475442813    8.941567374    7.738525082
    0.429716194    9.470749523    8.937183655    7.734989519
    0.436894825    9.465983479    8.932732463    7.731399007
    0.444073456    9.461144976    8.928214091    7.727753761
    0.451252087    9.456234313    8.923628831    7.724054002
    0.458430718    9.451251793    8.918976983    7.720299949
    0.465609349    9.446197721    8.914258846    7.716491828
    0.472787980    9.441072406    8.909474723    7.712629864
    0.479966611    9.435876160    8.904624920    7.708714286
    0.487145242    9.430609299    8.899709744    7.704745324
    0.494323873    9.425272140    8.894729507    7.700723212
    0.501502504    9.419865005    8.889684521    7.696648184
    0.508681135    9.414388219    8.884575102    7.692520479
    0.515859766    9.408842107    8.879401567    7.688340336
    0.523038397    9.403227001    8.874164238    7.684107995
    0.530217028    9.397543233    8.868863435    7.679823702
    0.537395659    9.391791138    8.863499484    7.675487701
    0.544574290    9.385971054    8.858072711    7.671100241
    0.551752922    9.380083323    8.852583445    7.666661570
    0.558931553    9.374128288    8.847032017    7.662171941
    0.566110184    9.368106294    8.841418759    7.657631606
    0.573288815    9.362017690    8.835744006    7.653040820
    0.580467446    9.355862827    8.830008095    7.648399841
    0.587646077    9.349642058    8.824211363    7.643708927
    0.594824708    9.343355739    8.818354151    7.638968338
    0.602003339    9.337004226    8.812436801    7.634178335
    0.609181970    9.330587881    8.806459655    7.629339184
    0.616360601    9.324107065    8.800423060    7.624451148
    0.623539232    9.317562143    8.794327361    7.619514494
    0.630717863    9.310953480    8.788172908    7.614529490
    0.637896494    9.304281446    8.781960049    7.609496407
    0.645075125    9.297546411    8.775689136    7.604415514
    0.652253756    9.290748746    8.769360521    7.599287084
    0.659432387    9.283888827    8.762974558    7.594111392
    0.666611018    9.276967028    8.756531603    7.588888712
    0.673789649    9.269983729    8.750032012    7.583619320
    0.680968280    9.262939307    8.743476142    7.578303494
    0.688146912    9.255834145    8.736864354    7.572941512
    0.695325543    9.248668626    8.730197005    7.567533656
    0.702504174    9.241443132    8.723474459    7.562080206
    0.709682805    9.234158052    8.716697077    7.556581443
    0.716861436    9.226813771    8.709865222    7.551037652
    0.724040067    9.219410679    8.702979259    7.545449117
    0.731218698    9.211949167    8.696039553    7.539816123
    0.738397329    9.204429625    8.689046471    7.534138956
    0.745575960    9.196852447    8.682000379    7.528417904
    0.752754591    9.189218027    8.674901645    7.522653254
    0.759933222    9.181526761    8.667750639    7.516845297
    0.767111853    9.173779045    8.660547729    7.510994321
    0.774290484    9.165975278    8.653293286    7.505100617
    0.781469115    9.158115857    8.645987681    7.499164478
    0.788647746    9.150201183    8.638631286    7.493186194
    0.795826377    9.142231658    8.631224473    7.487166060
    0.803005008    9.134207682    8.623767615    7.481104368
    0.810183639    9.126129660    8.616261085    7.475001413
    0.817362270    9.117997994    8.608705258    7.468857490
    0.824540902    9.109813089    8.601100509    7.462672895
    0.831719533    9.101575351    8.593447211    7.456447923
    0.838898164    9.093285186    8.585745742    7.450182870
    0.846076795    9.084943001    8.577996475    7.443878036
    0.853255426    9.076549203    8.570199789    7.437533715
    0.860434057    9.068104201    8.562356060    7.431150208
    0.867612688    9.059608404    8.554465664    7.424727812
    0.874791319    9.051062221    8.546528980    7.418266827
    0.881969950    9.042466062    8.538546383    7.411767550
    0.889148581    9.033820337    8.530518253    7.405230283
    0.896327212    9.025125457    8.522444967    7.398655325
    0.903505843    9.016381834    8.514326904    7.392042975
    0.910684474    9.007589879    8.506164441    7.385393536
    0.917863105    8.998750004    8.497957957    7.378707306
    0.925041736    8.989862622    8.489707830    7.371984588
    0.932220367    8.980928144    8.481414440    7.365225682
    0.939398998    8.971946985    8.473078164    7.358430889
    0.946577629    8.962919556    8.464699382    7.351600511
    0.953756260    8.953846271    8.456278471    7.344734849
    0.960934891    8.944727543    8.447815810    7.337834205
    0.968113523    8.935563785    8.439311778    7.330898880
    0.975292154    8.926355410    8.430766753    7.323929177
    0.982470785    8.917102833    8.422181113    7.316925396
    0.989649416    8.907806466    8.413555236    7.309887839
    0.996828047    8.898466722    8.404889500    7.302816808
    1.004006678    8.889084015    8.396184282    7.295712604
    1.011185309    8.879658757    8.387439959    7.288575529
    1.018363940    8.870191362    8.378656910    7.281405884
    1.025542571    8.860682241    8.369835510    7.274203970
    1.032721202    8.851131808    8.360976135    7.266970088
    1.039899833    8.841540475    8.352079163    7.259704539
    1.047078464    8.831908653    8.343144969    7.252407625
    1.054257095    8.822236754    8.334173927    7.245079644
    1.061435726    8.812525190    8.325166414    7.237720898
    1.068614357    8.802774370    8.316122803    7.230331685
    1.075792988    8.792984705    8.307043468    7.222912307
    1.082971619    8.783156606    8.297928784    7.215463062
    1.090150250    8.773290481    8.288779122    7.207984249
    1.097328881    8.763386739    8.279594855    7.200476167
    1.104507513    8.753445790    8.270376356    7.192939115
    1.111686144    8.743468040    8.261123995    7.185373389
    1.118864775    8.733453896    8.251838143    7.177779288
    1.126043406    8.723403766    8.242519170    7.170157108
    1.133222037    8.713318055    8.233167446    7.162507147
    1.140400668    8.703197169    8.223783339    7.154829700
    1.147579299    8.693041512    8.214367217    7.147125063
    1.154757930    8.682851487    8.204919448    7.139393531
    1.161936561    8.672627498    8.195440398    7.131635400
    1.169115192    8.662369947    8.185930432    7.123850962
    1.176293823    8.652079235    8.176389917    7.116040512
    1.183472454    8.641755763    8.166819215    7.108204342
    1.190651085    8.631399931    8.157218691    7.100342746
    1.197829716    8.621012137    8.147588706    7.092456014
    1.205008347    8.610592778    8.137929623    7.084544438
    1.212186978    8.600142253    8.128241802    7.076608309
    1.219365609    8.589660957    8.118525603    7.068647916
    1.226544240    8.579149284    8.108781386    7.060663549
    1.233722871    8.568607629    8.099009507    7.052655495
    1.240901503    8.558036385    8.089210324    7.044624044
    1.248080134    8.547435943    8.079384193    7.036569481
    1.255258765    8.536806694    8.069531470    7.028492094
    1.262437396    8.526149028    8.059652507    7.020392168
    1.269616027    8.515463333    8.049747659    7.012269988
    1.276794658    8.504749997    8.039817276    7.004125837
    1.283973289    8.494009405    8.029861711    6.995959999
    1.291151920    8.483241942    8.019881311    6.987772757
    1.298330551    8.472447993    8.009876428    6.979564393
    1.305509182    8.461627940    7.999847407    6.971335186
    1.312687813    8.450782164    7.989794595    6.963085417
    1.319866444    8.439911044    7.979718337    6.954815365
    1.327045075    8.429014961    7.969618978    6.946525308
    1.334223706    8.418094290    7.959496861    6.938215524
    1.341402337    8.407149409    7.949352326    6.929886289
    1.348580968    8.396180691    7.939185716    6.921537878
    1.355759599    8.385188510    7.928997367    6.913170566
    1.362938230    8.374173238    7.918787620    6.904784627
    1.370116861    8.363135246    7.908556810    6.896380333
    1.377295492    8.352074902    7.898305273    6.887957956
    1.384474124    8.340992574    7.888033344    6.879517767
    1.391652755    8.329888629    7.877741354    6.871060036
    1.398831386    8.318763431    7.867429636    6.862585031
    1.406010017    8.307617343    7.857098520    6.854093021
    1.413188648    8.296450728    7.846748334    6.845584271
    1.420367279    8.285263945    7.836379407    6.837059048
    1.427545910    8.274057354    7.825992064    6.828517616
    1.434724541    8.262831310    7.815586630    6.819960239
    1.441903172    8.251586171    7.805163428    6.811387180
    1.449081803    8.240322290    7.794722782    6.802798700
    1.456260434    8.229040019    7.784265010    6.794195059
    1.463439065    8.217739710    7.773790433    6.785576517
    1.470617696    8.206421712    7.763299368    6.776943332
    1.477796327    8.195086371    7.752792131    6.768295762
    1.484974958    8.183734036    7.742269038    6.759634062
    1.492153589    8.172365048    7.731730401    6.750958488
    1.499332220    8.160979753    7.721176532    6.742269293
    1.506510851    8.149578490    7.710607743    6.733566729
    1.513689482    8.138161599    7.700024341    6.724851049
    1.520868114    8.126729417    7.689426634    6.716122503
    1.528046745    8.115282281    7.678814929    6.707381339
    1.535225376    8.103820525    7.668189528    6.698627807
    1.542404007    8.092344482    7.657550737    6.689862152
    1.549582638    8.080854481    7.646898855    6.681084622
    1.556761269    8.069350853    7.636234182    6.672295459
    1.563939900    8.057833925    7.625557017    6.663494908
    1.571118531    8.046304023    7.614867656    6.654683211
    1.578297162    8.034761469    7.604166395    6.645860608
    1.585475793    8.023206587    7.593453527    6.637027340
    1.592654424    8.011639697    7.582729343    6.628183645
    1.599833055    8.000061116    7.571994135    6.619329759
    1.607011686    7.988471163    7.561248191    6.610465920
    1.614190317    7.976870152    7.550491798    6.601592362
    1.621368948    7.965258395    7.539725242    6.592709319
    1.628547579    7.953636205    7.528948807    6.583817023
    1.635726210    7.942003891    7.518162774    6.574915705
    1.642904841    7.930361760    7.507367426    6.566005595
    1.650083472    7.918710119    7.496563040    6.557086921
    1.657262104    7.907049272    7.485749895    6.548159912
    1.664440735    7.895379520    7.474928266    6.539224793
    1.671619366    7.883701164    7.464098427    6.530281788
    1.678797997    7.872014502    7.453260651    6.521331123
    1.685976628    7.860319832    7.442415209    6.512373018
    1.693155259    7.848617448    7.431562370    6.503407694
    1.700333890    7.836907643    7.420702401    6.494435373
    1.707512521    7.825190708    7.409835570    6.485456271
    1.714691152    7.813466932    7.398962139    6.476470606
    1.721869783    7.801736603    7.388082372    6.467478594
    1.729048414    7.790000007    7.377196529    6.458480450
    1.736227045    7.778257426    7.366304870    6.449476387
    1.743405676    7.766509143    7.355407652    6.440466617
    1.750584307    7.754755437    7.344505132    6.431451350
    1.757762938    7.742996587    7.333597563    6.422430796
    1.764941569    7.731232868    7.322685199    6.413405164
    1.772120200    7.719464556    7.311768290    6.404374659
    1.779298831    7.707691922    7.300847085    6.395339487
    1.786477462    7.695915236    7.289921832    6.386299854
    1.793656093    7.684134768    7.278992777    6.377255960
    1.800834725    7.672350784    7.268060164    6.368208009
    1.808013356    7.660563549    7.257124236    6.359156200
    1.815191987    7.648773325    7.246185233    6.350100732
    1.822370618    7.636980375    7.235243395    6.341041803
    1.829549249    7.625184957    7.224298958    6.331979609
    1.836727880    7.613387328    7.213352160    6.322914346
    1.843906511    7.601587744    7.202403234    6.313846206
    1.851085142    7.589786459    7.191452412    6.304775383
    1.858263773    7.577983723    7.180499925    6.295702067
    1.865442404    7.566179788    7.169546003    6.286626449
    1.872621035    7.554374900    7.158590872    6.277548716
    1.879799666    7.542569306    7.147634759    6.268469056
    1.886978297    7.530763249    7.136677887    6.259387655
    1.894156928    7.518956973    7.125720479    6.250304697
    1.901335559    7.507150718    7.114762755    6.241220365
    1.908514190    7.495344722    7.103804935    6.232134842
    1.915692821    7.483539221    7.092847236    6.223048308
    1.922871452    7.471734452    7.081889873    6.213960942
    1.930050083    7.459930646    7.070933061    6.204872922
    1.937228715    7.448128034    7.059977012    6.195784426
    1.944407346    7.436326846    7.049021936    6.186695627
    1.951585977    7.424527310    7.038068043    6.177606702
    1.958764608    7.412729651    7.027115540    6.168517821
    1.965943239    7.400934092    7.016164633    6.159429157
    1.973121870    7.389140855    7.005215526    6.150340880
    1.980300501    7.377350161    6.994268421    6.141253159
    1.987479132    7.365562228    6.983323519    6.132166161
    1.994657763    7.353777271    6.972381019    6.123080053
    2.001836394    7.341995506    6.961441119    6.113995000
    2.009015025    7.330217145    6.950504014    6.104911165
    2.016193656    7.318442399    6.939569900    6.095828712
    2.023372287    7.306671478    6.928638967    6.086747800
    2.030550918    7.294904587    6.917711408    6.077668590
    2.037729549    7.283141934    6.906787412    6.068591241
    2.044908180    7.271383721    6.895867166    6.059515910
    2.052086811    7.259630150    6.884950857    6.050442753
    2.059265442    7.247881422    6.874038669    6.041371925
    2.066444073    7.236137735    6.863130785    6.032303579
    2.073622705    7.224399285    6.852227386    6.023237868
    2.080801336    7.212666268    6.841328653    6.014174943
    2.087979967    7.200938875    6.830434763    6.005114953
    2.095158598    7.189217298    6.819545892    5.996058046
    2.102337229    7.177501728    6.808662217    5.987004371
    2.109515860    7.165792351    6.797783910    5.977954074
    2.116694491    7.154089353    6.786911143    5.968907298
    2.123873122    7.142392919    6.776044086    5.959864187
    2.131051753    7.130703231    6.765182908    5.950824884
    2.138230384    7.119020470    6.754327777    5.941789530
    2.145409015    7.107344816    6.743478857    5.932758265
    2.152587646    7.095676444    6.732636313    5.923731226
    2.159766277    7.084015532    6.721800308    5.914708553
    2.166944908    7.072362253    6.710971002    5.905690380
    2.174123539    7.060716779    6.700148554    5.896676842
    2.181302170    7.049079281    6.689333124    5.887668074
    2.188480801    7.037449927    6.678524867    5.878664208
    2.195659432    7.025828886    6.667723938    5.869665376
    2.202838063    7.014216322    6.656930491    5.860671706
    2.210016694    7.002612400    6.646144677    5.851683329
    2.217195326    6.991017281    6.635366647    5.842700372
    2.224373957    6.979431126    6.624596550    5.833722961
    2.231552588    6.967854095    6.613834533    5.824751223
    2.238731219    6.956286344    6.603080742    5.815785281
    2.245909850    6.944728029    6.592335322    5.806825257
    2.253088481    6.933179304    6.581598416    5.797871275
    2.260267112    6.921640323    6.570870166    5.788923455
    2.267445743    6.910111235    6.560150711    5.779981916
    2.274624374    6.898592190    6.549440191    5.771046777
    2.281803005    6.887083335    6.538738742    5.762118155
    2.288981636    6.875584818    6.528046500    5.753196166
    2.296160267    6.864096781    6.517363600    5.744280925
    2.303338898    6.852619369    6.506690175    5.735372545
    2.310517529    6.841152723    6.496026357    5.726471141
    2.317696160    6.829696983    6.485372275    5.717576822
    2.324874791    6.818252286    6.474728059    5.708689700
    2.332053422    6.806818770    6.464093836    5.699809884
    2.339232053    6.795396570    6.453469731    5.690937482
    2.346410684    6.783985820    6.442855870    5.682072601
    2.353589316    6.772586653    6.432252376    5.673215347
    2.360767947    6.761199198    6.421659370    5.664365826
    2.367946578    6.749823585    6.411076974    5.655524141
    2.375125209    6.738459942    6.400505307    5.646690394
    2.382303840    6.727108395    6.389944485    5.637864688
    2.389482471    6.715769070    6.379394627    5.629047124
    2.396661102    6.704442089    6.368855847    5.620237799
    2.403839733    6.693127574    6.358328259    5.611436814
    2.411018364    6.681825646    6.347811976    5.602644265
    2.418196995    6.670536424    6.337307108    5.593860250
    2.425375626    6.659260026    6.326813767    5.585084862
    2.432554257    6.647996567    6.316332060    5.576318197
    2.439732888    6.636746164    6.305862095    5.567560347
    2.446911519    6.625508928    6.295403978    5.558811405
    2.454090150    6.614284971    6.284957815    5.550071463
    2.461268781    6.603074406    6.274523708    5.541340609
    2.468447412    6.591877340    6.264101760    5.532618934
    2.475626043    6.580693882    6.253692072    5.523906525
    2.482804674    6.569524138    6.243294744    5.515203470
    2.489983306    6.558368214    6.232909875    5.506509854
    2.497161937    6.547226212    6.222537561    5.497825763
    2.504340568    6.536098236    6.212177900    5.489151282
    2.511519199    6.524984387    6.201830986    5.480486492
    2.518697830    6.513884765    6.191496913    5.471831477
    2.525876461    6.502799467    6.181175773    5.463186317
    2.533055092    6.491728592    6.170867659    5.454551093
    2.540233723    6.480672235    6.160572659    5.445925884
