# energy grid [eV]     ieps_x  ieps_y  ieps_z
#
    0.200000000    2.138868108    8.792580035    8.444822899
    0.207178631    2.138617213    8.790725578    8.442924246
    0.214357262    2.138357640    8.788806784    8.440959873
    0.221535893    2.138089405    8.786823761    8.438929904
    0.228714524    2.137812526    8.784776619    8.436834469
    0.235893155    2.137527021    8.782665473    8.434673701
    0.243071786    2.137232909    8.780490442    8.432447737
    0.250250417    2.136930208    8.778251648    8.430156719
    0.257429048    2.136618938    8.775949216    8.427800792
    0.264607679    2.136299120    8.773583274    8.425380103
    0.271786311    2.135970773    8.771153953    8.422894806
    0.278964942    2.135633920    8.768661389    8.420345057
    0.286143573    2.135288581    8.766105720    8.417731016
    0.293322204    2.134934779    8.763487088    8.415052845
    0.300500835    2.134572536    8.760805638    8.412310713
    0.307679466    2.134201874    8.758061517    8.409504789
    0.314858097    2.133822818    8.755254876    8.406635249
    0.322036728    2.133435391    8.752385871    8.403702269
    0.329215359    2.133039617    8.749454658    8.400706032
    0.336393990    2.132635522    8.746461398    8.397646721
    0.343572621    2.132223129    8.743406255    8.394524524
    0.350751252    2.131802464    8.740289396    8.391339634
    0.357929883    2.131373554    8.737110990    8.388092244
    0.365108514    2.130936425    8.733871209    8.384782553
    0.372287145    2.130491103    8.730570230    8.381410762
    0.379465776    2.130037616    8.727208231    8.377977075
    0.386644407    2.129575990    8.723785394    8.374481700
    0.393823038    2.129106254    8.720301902    8.370924847
    0.401001669    2.128628436    8.716757944    8.367306730
    0.408180301    2.128142564    8.713153709    8.363627565
    0.415358932    2.127648667    8.709489390    8.359887574
    0.422537563    2.127146776    8.705765183    8.356086977
    0.429716194    2.126636918    8.701981285    8.352226001
    0.436894825    2.126119124    8.698137899    8.348304875
    0.444073456    2.125593424    8.694235227    8.344323829
    0.451252087    2.125059849    8.690273476    8.340283098
    0.458430718    2.124518430    8.686252854    8.336182918
    0.465609349    2.123969197    8.682173574    8.332023529
    0.472787980    2.123412183    8.678035849    8.327805173
    0.479966611    2.122847418    8.673839895    8.323528095
    0.487145242    2.122274936    8.669585933    8.319192542
    0.494323873    2.121694768    8.665274182    8.314798765
    0.501502504    2.121106947    8.660904867    8.310347016
    0.508681135    2.120511505    8.656478214    8.305837549
    0.515859766    2.119908477    8.651994452    8.301270622
    0.523038397    2.119297895    8.647453812    8.296646495
    0.530217028    2.118679792    8.642856526    8.291965429
    0.537395659    2.118054204    8.638202830    8.287227690
    0.544574290    2.117421163    8.633492962    8.282433543
    0.551752922    2.116780704    8.628727162    8.277583257
    0.558931553    2.116132862    8.623905671    8.272677103
    0.566110184    2.115477671    8.619028734    8.267715355
    0.573288815    2.114815167    8.614096597    8.262698287
    0.580467446    2.114145385    8.609109507    8.257626177
    0.587646077    2.113468359    8.604067716    8.252499304
    0.594824708    2.112784126    8.598971476    8.247317950
    0.602003339    2.112092722    8.593821040    8.242082396
    0.609181970    2.111394182    8.588616665    8.236792929
    0.616360601    2.110688542    8.583358609    8.231449835
    0.623539232    2.109975839    8.578047131    8.226053402
    0.630717863    2.109256109    8.572682495    8.220603923
    0.637896494    2.108529389    8.567264962    8.215101687
    0.645075125    2.107795716    8.561794798    8.209546990
    0.652253756    2.107055127    8.556272271    8.203940127
    0.659432387    2.106307658    8.550697648    8.198281395
    0.666611018    2.105553347    8.545071201    8.192571093
    0.673789649    2.104792232    8.539393202    8.186809520
    0.680968280    2.104024350    8.533663923    8.180996980
    0.688146912    2.103249738    8.527883640    8.175133774
    0.695325543    2.102468435    8.522052630    8.169220209
    0.702504174    2.101680478    8.516171171    8.163256589
    0.709682805    2.100885906    8.510239542    8.157243222
    0.716861436    2.100084756    8.504258026    8.151180416
    0.724040067    2.099277067    8.498226903    8.145068483
    0.731218698    2.098462876    8.492146459    8.138907733
    0.738397329    2.097642224    8.486016978    8.132698478
    0.745575960    2.096815147    8.479838747    8.126441031
    0.752754591    2.095981685    8.473612054    8.120135709
    0.759933222    2.095141877    8.467337187    8.113782826
    0.767111853    2.094295761    8.461014438    8.107382699
    0.774290484    2.093443376    8.454644097    8.100935646
    0.781469115    2.092584761    8.448226457    8.094441987
    0.788647746    2.091719955    8.441761812    8.087902040
    0.795826377    2.090848997    8.435250457    8.081316126
    0.803005008    2.089971927    8.428692688    8.074684568
    0.810183639    2.089088784    8.422088801    8.068007688
    0.817362270    2.088199606    8.415439095    8.061285808
    0.824540902    2.087304434    8.408743868    8.054519253
    0.831719533    2.086403307    8.402003421    8.047708347
    0.838898164    2.085496263    8.395218053    8.040853417
    0.846076795    2.084583344    8.388388067    8.033954788
    0.853255426    2.083664587    8.381513765    8.027012787
    0.860434057    2.082740033    8.374595451    8.020027741
    0.867612688    2.081809722    8.367633427    8.012999979
    0.874791319    2.080873693    8.360628001    8.005929829
    0.881969950    2.079931985    8.353579475    7.998817620
    0.889148581    2.078984638    8.346488158    7.991663681
    0.896327212    2.078031693    8.339354356    7.984468343
    0.903505843    2.077073188    8.332178376    7.977231936
    0.910684474    2.076109164    8.324960527    7.969954790
    0.917863105    2.075139660    8.317701117    7.962637237
    0.925041736    2.074164716    8.310400456    7.955279609
    0.932220367    2.073184372    8.303058854    7.947882236
    0.939398998    2.072198667    8.295676620    7.940445451
    0.946577629    2.071207642    8.288254066    7.932969587
    0.953756260    2.070211336    8.280791503    7.925454975
    0.960934891    2.069209789    8.273289243    7.917901948
    0.968113523    2.068203041    8.265747597    7.910310839
    0.975292154    2.067191131    8.258166878    7.902681981
    0.982470785    2.066174099    8.250547398    7.895015706
    0.989649416    2.065151986    8.242889472    7.887312349
    0.996828047    2.064124830    8.235193411    7.879572241
    1.004006678    2.063092672    8.227459530    7.871795716
    1.011185309    2.062055550    8.219688143    7.863983107
    1.018363940    2.061013506    8.211879562    7.856134746
    1.025542571    2.059966578    8.204034103    7.848250967
    1.032721202    2.058914806    8.196152080    7.840332103
    1.039899833    2.057858229    8.188233807    7.832378485
    1.047078464    2.056796888    8.180279599    7.824390447
    1.054257095    2.055730822    8.172289770    7.816368321
    1.061435726    2.054660070    8.164264636    7.808312438
    1.068614357    2.053584671    8.156204509    7.800223131
    1.075792988    2.052504665    8.148109706    7.792100731
    1.082971619    2.051420092    8.139980541    7.783945570
    1.090150250    2.050330991    8.131817328    7.775757978
    1.097328881    2.049237400    8.123620382    7.767538285
    1.104507513    2.048139360    8.115390017    7.759286823
    1.111686144    2.047036909    8.107126547    7.751003921
    1.118864775    2.045930087    8.098830288    7.742689908
    1.126043406    2.044818932    8.090501552    7.734345113
    1.133222037    2.043703484    8.082140653    7.725969866
    1.140400668    2.042583781    8.073747905    7.717564493
    1.147579299    2.041459862    8.065323621    7.709129323
    1.154757930    2.040331767    8.056868114    7.700664683
    1.161936561    2.039199534    8.048381697    7.692170898
    1.169115192    2.038063202    8.039864683    7.683648296
    1.176293823    2.036922809    8.031317383    7.675097201
    1.183472454    2.035778394    8.022740109    7.666517937
    1.190651085    2.034629995    8.014133173    7.657910830
    1.197829716    2.033477651    8.005496885    7.649276202
    1.205008347    2.032321400    7.996831557    7.640614377
    1.212186978    2.031161280    7.988137498    7.631925675
    1.219365609    2.029997330    7.979415018    7.623210419
    1.226544240    2.028829588    7.970664426    7.614468929
    1.233722871    2.027658091    7.961886032    7.605701525
    1.240901503    2.026482879    7.953080143    7.596908526
    1.248080134    2.025303987    7.944247067    7.588090250
    1.255258765    2.024121455    7.935387111    7.579247015
    1.262437396    2.022935320    7.926500582    7.570379137
    1.269616027    2.021745620    7.917587786    7.561486933
    1.276794658    2.020552391    7.908649028    7.552570716
    1.283973289    2.019355673    7.899684613    7.543630801
    1.291151920    2.018155501    7.890694846    7.534667502
    1.298330551    2.016951913    7.881680029    7.525681130
    1.305509182    2.015744946    7.872640466    7.516671996
    1.312687813    2.014534638    7.863576458    7.507640412
    1.319866444    2.013321025    7.854488307    7.498586686
    1.327045075    2.012104144    7.845376314    7.489511127
    1.334223706    2.010884032    7.836240779    7.480414042
    1.341402337    2.009660725    7.827082001    7.471295737
    1.348580968    2.008434260    7.817900278    7.462156519
    1.355759599    2.007204674    7.808695908    7.452996690
    1.362938230    2.005972002    7.799469187    7.443816556
    1.370116861    2.004736282    7.790220413    7.434616417
    1.377295492    2.003497549    7.780949879    7.425396574
    1.384474124    2.002255838    7.771657881    7.416157329
    1.391652755    2.001011187    7.762344711    7.406898980
    1.398831386    1.999763631    7.753010662    7.397621824
    1.406010017    1.998513205    7.743656027    7.388326158
    1.413188648    1.997259945    7.734281095    7.379012278
    1.420367279    1.996003886    7.724886157    7.369680478
    1.427545910    1.994745065    7.715471501    7.360331051
    1.434724541    1.993483515    7.706037415    7.350964289
    1.441903172    1.992219273    7.696584187    7.341580484
    1.449081803    1.990952372    7.687112103    7.332179924
    1.456260434    1.989682849    7.677621447    7.322762898
    1.463439065    1.988410737    7.668112503    7.313329694
    1.470617696    1.987136071    7.658585555    7.303880596
    1.477796327    1.985858887    7.649040885    7.294415890
    1.484974958    1.984579217    7.639478773    7.284935860
    1.492153589    1.983297097    7.629899500    7.275440786
    1.499332220    1.982012560    7.620303345    7.265930951
    1.506510851    1.980725641    7.610690584    7.256406634
    1.513689482    1.979436373    7.601061496    7.246868112
    1.520868114    1.978144791    7.591416355    7.237315663
    1.528046745    1.976850927    7.581755437    7.227749563
    1.535225376    1.975554815    7.572079014    7.218170086
    1.542404007    1.974256489    7.562387359    7.208577505
    1.549582638    1.972955981    7.552680743    7.198972092
    1.556761269    1.971653326    7.542959437    7.189354116
    1.563939900    1.970348555    7.533223709    7.179723848
    1.571118531    1.969041702    7.523473826    7.170081554
    1.578297162    1.967732799    7.513710057    7.160427501
    1.585475793    1.966421879    7.503932665    7.150761953
    1.592654424    1.965108974    7.494141915    7.141085175
    1.599833055    1.963794117    7.484338071    7.131397428
    1.607011686    1.962477340    7.474521393    7.121698973
    1.614190317    1.961158674    7.464692144    7.111990069
    1.621368948    1.959838152    7.454850582    7.102270975
    1.628547579    1.958515805    7.444996965    7.092541947
    1.635726210    1.957191665    7.435131550    7.082803239
    1.642904841    1.955865764    7.425254594    7.073055106
    1.650083472    1.954538132    7.415366350    7.063297800
    1.657262104    1.953208801    7.405467073    7.053531571
    1.664440735    1.951877801    7.395557013    7.043756670
    1.671619366    1.950545165    7.385636422    7.033973343
    1.678797997    1.949210922    7.375705550    7.024181838
    1.685976628    1.947875103    7.365764644    7.014382400
    1.693155259    1.946537739    7.355813951    7.004575272
    1.700333890    1.945198859    7.345853717    6.994760696
    1.707512521    1.943858495    7.335884187    6.984938914
    1.714691152    1.942516676    7.325905604    6.975110164
    1.721869783    1.941173432    7.315918208    6.965274685
    1.729048414    1.939828792    7.305922242    6.955432712
    1.736227045    1.938482787    7.295917944    6.945584480
    1.743405676    1.937135445    7.285905551    6.935730224
    1.750584307    1.935786797    7.275885301    6.925870174
    1.757762938    1.934436870    7.265857428    6.916004562
    1.764941569    1.933085695    7.255822167    6.906133616
    1.772120200    1.931733301    7.245779751    6.896257564
    1.779298831    1.930379714    7.235730409    6.886376632
    1.786477462    1.929024966    7.225674373    6.876491045
    1.793656093    1.927669083    7.215611871    6.866601025
    1.800834725    1.926312094    7.205543130    6.856706794
    1.808013356    1.924954027    7.195468376    6.846808573
    1.815191987    1.923594910    7.185387833    6.836906580
    1.822370618    1.922234771    7.175301726    6.827001032
    1.829549249    1.920873638    7.165210275    6.817092145
    1.836727880    1.919511538    7.155113701    6.807180133
    1.843906511    1.918148499    7.145012223    6.797265209
    1.851085142    1.916784547    7.134906060    6.787347584
    1.858263773    1.915419710    7.124795427    6.777427469
    1.865442404    1.914054015    7.114680540    6.767505070
    1.872621035    1.912687489    7.104561612    6.757580595
    1.879799666    1.911320157    7.094438856    6.747654250
    1.886978297    1.909952048    7.084312483    6.737726238
    1.894156928    1.908583186    7.074182702    6.727796762
    1.901335559    1.907213598    7.064049721    6.717866022
    1.908514190    1.905843311    7.053913749    6.707934218
    1.915692821    1.904472349    7.043774989    6.698001547
    1.922871452    1.903100739    7.033633646    6.688068208
    1.930050083    1.901728507    7.023489924    6.678134393
    1.937228715    1.900355677    7.013344022    6.668200298
    1.944407346    1.898982275    7.003196143    6.658266113
    1.951585977    1.897608326    6.993046483    6.648332031
    1.958764608    1.896233856    6.982895242    6.638398238
    1.965943239    1.894858888    6.972742613    6.628464925
    1.973121870    1.893483448    6.962588793    6.618532276
    1.980300501    1.892107559    6.952433974    6.608600476
    1.987479132    1.890731248    6.942278349    6.598669710
    1.994657763    1.889354537    6.932122107    6.588740158
    2.001836394    1.887977450    6.921965438    6.578812001
    2.009015025    1.886600012    6.911808529    6.568885418
    2.016193656    1.885222247    6.901651568    6.558960586
    2.023372287    1.883844177    6.891494739    6.549037683
    2.030550918    1.882465827    6.881338225    6.539116881
    2.037729549    1.881087220    6.871182210    6.529198356
    2.044908180    1.879708378    6.861026874    6.519282277
    2.052086811    1.878329326    6.850872397    6.509368817
    2.059265442    1.876950085    6.840718956    6.499458143
    2.066444073    1.875570678    6.830566730    6.489550423
    2.073622705    1.874191129    6.820415894    6.479645824
    2.080801336    1.872811459    6.810266621    6.469744510
    2.087979967    1.871431691    6.800119085    6.459846644
    2.095158598    1.870051846    6.789973457    6.449952389
    2.102337229    1.868671948    6.779829908    6.440061904
    2.109515860    1.867292016    6.769688606    6.430175350
    2.116694491    1.865912075    6.759549719    6.420292883
    2.123873122    1.864532143    6.749413413    6.410414660
    2.131051753    1.863152244    6.739279854    6.400540836
    2.138230384    1.861772399    6.729149203    6.390671564
    2.145409015    1.860392627    6.719021625    6.380806998
    2.152587646    1.859012952    6.708897279    6.370947286
    2.159766277    1.857633392    6.698776326    6.361092580
    2.166944908    1.856253969    6.688658924    6.351243027
    2.174123539    1.854874703    6.678545228    6.341398774
    2.181302170    1.853495615    6.668435397    6.331559966
    2.188480801    1.852116724    6.658329582    6.321726748
    2.195659432    1.850738051    6.648227939    6.311899261
    2.202838063    1.849359616    6.638130618    6.302077648
    2.210016694    1.847981439    6.628037770    6.292262049
    2.217195326    1.846603539    6.617949544    6.282452602
    2.224373957    1.845225935    6.607866088    6.272649445
    2.231552588    1.843848647    6.597787549    6.262852713
    2.238731219    1.842471694    6.587714071    6.253062543
    2.245909850    1.841095095    6.577645800    6.243279066
    2.253088481    1.839718869    6.567582878    6.233502416
    2.260267112    1.838343035    6.557525445    6.223732723
    2.267445743    1.836967611    6.547473644    6.213970116
    2.274624374    1.835592616    6.537427612    6.204214726
    2.281803005    1.834218069    6.527387488    6.194466677
    2.288981636    1.832843986    6.517353407    6.184726096
    2.296160267    1.831470387    6.507325506    6.174993108
    2.303338898    1.830097289    6.497303918    6.165267836
    2.310517529    1.828724710    6.487288776    6.155550402
    2.317696160    1.827352668    6.477280211    6.145840926
    2.324874791    1.825981180    6.467278354    6.136139529
    2.332053422    1.824610263    6.457283335    6.126446328
    2.339232053    1.823239935    6.447295280    6.116761441
    2.346410684    1.821870213    6.437314316    6.107084983
    2.353589316    1.820501114    6.427340570    6.097417069
    2.360767947    1.819132653    6.417374165    6.087757813
    2.367946578    1.817764850    6.407415224    6.078107326
    2.375125209    1.816397718    6.397463870    6.068465720
    2.382303840    1.815031276    6.387520222    6.058833105
    2.389482471    1.813665539    6.377584401    6.049209588
    2.396661102    1.812300523    6.367656524    6.039595279
    2.403839733    1.810936245    6.357736709    6.029990282
    2.411018364    1.809572720    6.347825072    6.020394703
    2.418196995    1.808209964    6.337921728    6.010808646
    2.425375626    1.806847992    6.328026790    6.001232213
    2.432554257    1.805486820    6.318140371    5.991665507
    2.439732888    1.804126464    6.308262582    5.982108628
    2.446911519    1.802766938    6.298393533    5.972561675
    2.454090150    1.801408257    6.288533334    5.963024746
    2.461268781    1.800050437    6.278682092    5.953497939
    2.468447412    1.798693492    6.268839914    5.943981349
    2.475626043    1.797337437    6.259006907    5.934475071
    2.482804674    1.795982286    6.249183173    5.924979200
    2.489983306    1.794628054    6.239368818    5.915493827
    2.497161937    1.793274755    6.229563943    5.906019044
    2.504340568    1.791922403    6.219768649    5.896554943
    2.511519199    1.790571013    6.209983038    5.887101611
    2.518697830    1.789220597    6.200207207    5.877659138
    2.525876461    1.787871170    6.190441255    5.868227610
    2.533055092    1.786522746    6.180685278    5.858807114
    2.540233723    1.785175338    6.170939373    5.849397736
