# energy grid [eV]     epsr_x  epsr_y  epsr_z
#
    0.200000000   10.658200511    3.608429305   10.382473970
    0.207178631   10.660066359    3.608871430   10.384590403
    0.214357262   10.661998801    3.609329335   10.386782599
    0.221535893   10.663997920    3.609803040   10.389050679
    0.228714524   10.666063805    3.610292566   10.391394765
    0.235893155   10.668196545    3.610797933   10.393814986
    0.243071786   10.670396233    3.611319165   10.396311473
    0.250250417   10.672662966    3.611856283   10.398884364
    0.257429048   10.674996841    3.612409311   10.401533798
    0.264607679   10.677397962    3.612978275   10.404259922
    0.271786311   10.679866432    3.613563197   10.407062883
    0.278964942   10.682402362    3.614164105   10.409942837
    0.286143573   10.685005860    3.614781024   10.412899942
    0.293322204   10.687677043    3.615413982   10.415934360
    0.300500835   10.690416026    3.616063006   10.419046259
    0.307679466   10.693222931    3.616728125   10.422235809
    0.314858097   10.696097881    3.617409369   10.425503188
    0.322036728   10.699041002    3.618106767   10.428848577
    0.329215359   10.702052424    3.618820351   10.432272160
    0.336393990   10.705132281    3.619550151   10.435774127
    0.343572621   10.708280708    3.620296200   10.439354673
    0.350751252   10.711497844    3.621058532   10.443013998
    0.357929883   10.714783832    3.621837180   10.446752305
    0.365108514   10.718138818    3.622632178   10.450569803
    0.372287145   10.721562950    3.623443563   10.454466705
    0.379465776   10.725056381    3.624271370   10.458443229
    0.386644407   10.728619266    3.625115636   10.462499600
    0.393823038   10.732251763    3.625976400   10.466636043
    0.401001669   10.735954035    3.626853698   10.470852793
    0.408180301   10.739726248    3.627747572   10.475150087
    0.415358932   10.743568569    3.628658061   10.479528168
    0.422537563   10.747481171    3.629585205   10.483987284
    0.429716194   10.751464229    3.630529047   10.488527686
    0.436894825   10.755517922    3.631489630   10.493149634
    0.444073456   10.759642432    3.632466996   10.497853391
    0.451252087   10.763837946    3.633461190   10.502639223
    0.458430718   10.768104652    3.634472257   10.507507406
    0.465609349   10.772442742    3.635500242   10.512458218
    0.472787980   10.776852414    3.636545193   10.517491942
    0.479966611   10.781333867    3.637607158   10.522608868
    0.487145242   10.785887303    3.638686183   10.527809292
    0.494323873   10.790512931    3.639782320   10.533093513
    0.501502504   10.795210961    3.640895618   10.538461836
    0.508681135   10.799981606    3.642026128   10.543914574
    0.515859766   10.804825085    3.643173902   10.549452044
    0.523038397   10.809741619    3.644338992   10.555074567
    0.530217028   10.814731433    3.645521454   10.560782473
    0.537395659   10.819794757    3.646721340   10.566576095
    0.544574290   10.824931823    3.647938708   10.572455773
    0.551752922   10.830142868    3.649173613   10.578421854
    0.558931553   10.835428132    3.650426112   10.584474689
    0.566110184   10.840787859    3.651696265   10.590614636
    0.573288815   10.846222299    3.652984130   10.596842059
    0.580467446   10.851731702    3.654289767   10.603157327
    0.587646077   10.857316325    3.655613238   10.609560818
    0.594824708   10.862976428    3.656954605   10.616052913
    0.602003339   10.868712276    3.658313931   10.622634001
    0.609181970   10.874524136    3.659691280   10.629304479
    0.616360601   10.880412281    3.661086718   10.636064746
    0.623539232   10.886376987    3.662500310   10.642915212
    0.630717863   10.892418535    3.663932123   10.649856292
    0.637896494   10.898537209    3.665382226   10.656888407
    0.645075125   10.904733299    3.666850688   10.664011985
    0.652253756   10.911007097    3.668337579   10.671227461
    0.659432387   10.917358903    3.669842971   10.678535279
    0.666611018   10.923789016    3.671366935   10.685935886
    0.673789649   10.930297745    3.672909545   10.693429739
    0.680968280   10.936885399    3.674470876   10.701017302
    0.688146912   10.943552295    3.676051003   10.708699044
    0.695325543   10.950298751    3.677650003   10.716475445
    0.702504174   10.957125092    3.679267954   10.724346989
    0.709682805   10.964031648    3.680904934   10.732314169
    0.716861436   10.971018751    3.682561024   10.740377486
    0.724040067   10.978086740    3.684236305   10.748537448
    0.731218698   10.985235959    3.685930859   10.756794571
    0.738397329   10.992466754    3.687644770   10.765149380
    0.745575960   10.999779479    3.689378123   10.773602405
    0.752754591   11.007174492    3.691131003   10.782154188
    0.759933222   11.014652154    3.692903497   10.790805276
    0.767111853   11.022212833    3.694695695   10.799556226
    0.774290484   11.029856902    3.696507685   10.808407604
    0.781469115   11.037584738    3.698339559   10.817359982
    0.788647746   11.045396723    3.700191408   10.826413944
    0.795826377   11.053293247    3.702063326   10.835570079
    0.803005008   11.061274701    3.703955407   10.844828989
    0.810183639   11.069341485    3.705867748   10.854191281
    0.817362270   11.077494002    3.707800446   10.863657575
    0.824540902   11.085732661    3.709753600   10.873228497
    0.831719533   11.094057877    3.711727308   10.882904684
    0.838898164   11.102470070    3.713721674   10.892686782
    0.846076795   11.110969665    3.715736800   10.902575448
    0.853255426   11.119557095    3.717772789   10.912571346
    0.860434057   11.128232797    3.719829747   10.922675153
    0.867612688   11.136997212    3.721907781   10.932887555
    0.874791319   11.145850790    3.724007001   10.943209246
    0.881969950   11.154793986    3.726127514   10.953640934
    0.889148581   11.163827260    3.728269434   10.964183335
    0.896327212   11.172951079    3.730432873   10.974837177
    0.903505843   11.182165915    3.732617944   10.985603198
    0.910684474   11.191472248    3.734824765   10.996482147
    0.917863105   11.200870561    3.737053452   11.007474784
    0.925041736   11.210361348    3.739304125   11.018581883
    0.932220367   11.219945106    3.741576905   11.029804225
    0.939398998   11.229622339    3.743871913   11.041142606
    0.946577629   11.239393558    3.746189273   11.052597832
    0.953756260   11.249259281    3.748529112   11.064170722
    0.960934891   11.259220031    3.750891556   11.075862108
    0.968113523   11.269276340    3.753276734   11.087672833
    0.975292154   11.279428745    3.755684777   11.099603752
    0.982470785   11.289677792    3.758115818   11.111655736
    0.989649416   11.300024032    3.760569990   11.123829664
    0.996828047   11.310468024    3.763047429   11.136126434
    1.004006678   11.321010334    3.765548274   11.148546952
    1.011185309   11.331651536    3.768072663   11.161092142
    1.018363940   11.342392211    3.770620739   11.173762940
    1.025542571   11.353232946    3.773192644   11.186560294
    1.032721202   11.364174338    3.775788524   11.199485171
    1.039899833   11.375216991    3.778408526   11.212538549
    1.047078464   11.386361515    3.781052799   11.225721421
    1.054257095   11.397608530    3.783721495   11.239034797
    1.061435726   11.408958663    3.786414766   11.252479701
    1.068614357   11.420412550    3.789132768   11.266057172
    1.075792988   11.431970833    3.791875658   11.279768266
    1.082971619   11.443634165    3.794643596   11.293614056
    1.090150250   11.455403205    3.797436742   11.307595628
    1.097328881   11.467278622    3.800255260   11.321714087
    1.104507513   11.479261093    3.803099317   11.335970556
    1.111686144   11.491351305    3.805969081   11.350366173
    1.118864775   11.503549953    3.808864721   11.364902094
    1.126043406   11.515857739    3.811786411   11.379579494
    1.133222037   11.528275376    3.814734325   11.394399566
    1.140400668   11.540803588    3.817708641   11.409363519
    1.147579299   11.553443105    3.820709538   11.424472585
    1.154757930   11.566194669    3.823737198   11.439728012
    1.161936561   11.579059029    3.826791806   11.455131069
    1.169115192   11.592036946    3.829873549   11.470683044
    1.176293823   11.605129190    3.832982617   11.486385245
    1.183472454   11.618336541    3.836119202   11.502239003
    1.190651085   11.631659789    3.839283498   11.518245667
    1.197829716   11.645099736    3.842475702   11.534406608
    1.205008347   11.658657191    3.845696016   11.550723221
    1.212186978   11.672332977    3.848944641   11.567196921
    1.219365609   11.686127925    3.852221784   11.583829146
    1.226544240   11.700042879    3.855527652   11.600621357
    1.233722871   11.714078694    3.858862456   11.617575041
    1.240901503   11.728236234    3.862226412   11.634691704
    1.248080134   11.742516376    3.865619736   11.651972880
    1.255258765   11.756920010    3.869042648   11.669420128
    1.262437396   11.771448034    3.872495371   11.687035031
    1.269616027   11.786101360    3.875978131   11.704819198
    1.276794658   11.800880913    3.879491158   11.722774265
    1.283973289   11.815787630    3.883034684   11.740901895
    1.291151920   11.830822457    3.886608945   11.759203778
    1.298330551   11.845986358    3.890214179   11.777681631
    1.305509182   11.861280305    3.893850630   11.796337202
    1.312687813   11.876705286    3.897518542   11.815172266
    1.319866444   11.892262302    3.901218165   11.834188629
    1.327045075   11.907952365    3.904949751   11.853388127
    1.334223706   11.923776502    3.908713558   11.872772627
    1.341402337   11.939735756    3.912509843   11.892344028
    1.348580968   11.955831181    3.916338872   11.912104260
    1.355759599   11.972063846    3.920200912   11.932055286
    1.362938230   11.988434835    3.924096232   11.952199106
    1.370116861   12.004945247    3.928025109   11.972537750
    1.377295492   12.021596194    3.931987820   11.993073287
    1.384474124   12.038388805    3.935984650   12.013807817
    1.391652755   12.055324225    3.940015884   12.034743482
    1.398831386   12.072403613    3.944081814   12.055882459
    1.406010017   12.089628144    3.948182735   12.077226962
    1.413188648   12.106999010    3.952318946   12.098779246
    1.420367279   12.124517418    3.956490751   12.120541606
    1.427545910   12.142184595    3.960698458   12.142516377
    1.434724541   12.160001781    3.964942381   12.164705935
    1.441903172   12.177970235    3.969222836   12.187112702
    1.449081803   12.196091234    3.973540146   12.209739140
    1.456260434   12.214366072    3.977894637   12.232587758
    1.463439065   12.232796061    3.982286640   12.255661109
    1.470617696   12.251382533    3.986716493   12.278961794
    1.477796327   12.270126836    3.991184536   12.302492463
    1.484974958   12.289030340    3.995691116   12.326255812
    1.492153589   12.308094432    4.000236585   12.350254589
    1.499332220   12.327320521    4.004821300   12.374491594
    1.506510851   12.346710033    4.009445623   12.398969678
    1.513689482   12.366264417    4.014109923   12.423691747
    1.520868114   12.385985141    4.018814571   12.448660761
    1.528046745   12.405873696    4.023559948   12.473879738
    1.535225376   12.425931594    4.028346439   12.499351751
    1.542404007   12.446160365    4.033174434   12.525079929
    1.549582638   12.466561561    4.038044328   12.551067442
    1.556761269   12.487136751    4.042956523   12.577317490
    1.563939900   12.507887535    4.047911429   12.603833406
    1.571118531   12.528815567    4.052909465   12.630618717
    1.578297162   12.549922495    4.057951054   12.657676882
    1.585475793   12.571209982    4.063036622   12.685011365
    1.592654424   12.592679720    4.068166603   12.712625734
    1.599833055   12.614333430    4.073341440   12.740523648
    1.607011686   12.636172862    4.078561581   12.768708844
    1.614190317   12.658199789    4.083827482   12.797185134
    1.621368948   12.680416011    4.089139607   12.825956411
    1.628547579   12.702823358    4.094498427   12.855026645
    1.635726210   12.725423683    4.099904419   12.884399889
    1.642904841   12.748218870    4.105358071   12.914080280
    1.650083472   12.771210832    4.110859875   12.944072042
    1.657262104   12.794401509    4.116410333   12.974379488
    1.664440735   12.817792873    4.122009955   13.005007022
    1.671619366   12.841386924    4.127659261   13.035959139
    1.678797997   12.865185694    4.133358775   13.067240435
    1.685976628   12.889191247    4.139109035   13.098855602
    1.693155259   12.913405678    4.144910584   13.130809434
    1.700333890   12.937831115    4.150763975   13.163106831
    1.707512521   12.962469720    4.156669771   13.195752798
    1.714691152   12.987323688    4.162628544   13.228752454
    1.721869783   13.012395248    4.168640876   13.262111029
    1.729048414   13.037686667    4.174707358   13.295833870
    1.736227045   13.063200245    4.180828591   13.329926448
    1.743405676   13.088938321    4.187005187   13.364394355
    1.750584307   13.114903269    4.193237767   13.399243310
    1.757762938   13.141097505    4.199526966   13.434479166
    1.764941569   13.167523480    4.205873426   13.470107909
    1.772120200   13.194183687    4.212277802   13.506135668
    1.779298831   13.221080659    4.218740760   13.542568712
    1.786477462   13.248216972    4.225262979   13.579413460
    1.793656093   13.275595241    4.231845147   13.616676483
    1.800834725   13.303218128    4.238487966   13.654364504
    1.808013356   13.331088333    4.245192152   13.692484394
    1.815191987   13.359208601    4.251958429   13.731043159
    1.822370618   13.387581726    4.258787538   13.770048027
    1.829549249   13.416210566    4.265680233   13.809506541
    1.836727880   13.445098013    4.272637281   13.849426312
    1.843906511   13.474247000    4.279659462   13.889815068
    1.851085142   13.503660515    4.286747571   13.930680764
    1.858263773   13.533341596    4.293902417   13.972031575
    1.865442404   13.563293338    4.301124824   14.013875890
    1.872621035   13.593518885    4.308415633   14.056222314
    1.879799666   13.624021440    4.315775696   14.099079676
    1.886978297   13.654804257    4.323205887   14.142457036
    1.894156928   13.685870649    4.330707090   14.186363690
    1.901335559   13.717223977    4.338280209   14.230809175
    1.908514190   13.748867650    4.345926162   14.275803273
    1.915692821   13.780805180    4.353645889   14.321356065
    1.922871452   13.813040169    4.361440354   14.367477931
    1.930050083   13.845576226    4.369310530   14.414179486
    1.937228715   13.878417019    4.377257409   14.461471632
    1.944407346   13.911566291    4.385282002   14.509365584
    1.951585977   13.945027861    4.393385342   14.557872875
    1.958764608   13.978805618    4.401568482   14.607005367
    1.965943239   14.012903523    4.409832495   14.656775253
    1.973121870   14.047325609    4.418178477   14.707195063
    1.980300501   14.082075987    4.426607544   14.758277713
    1.987479132   14.117158842    4.435120836   14.810036564
    1.994657763   14.152578439    4.443719510   14.862485313
    2.001836394   14.188339116    4.452404736   14.915638035
    2.009015025   14.224445280    4.461177676   14.969509241
    2.016193656   14.260901438    4.470039548   15.024113894
    2.023372287   14.297712240    4.478991735   15.079467419
    2.030550918   14.334882391    4.488035559   15.135585719
    2.037729549   14.372416647    4.497172279   15.192485188
    2.044908180   14.410319871    4.506403209   15.250182741
    2.052086811   14.448597027    4.515729710   15.308695828
    2.059265442   14.487253184    4.525153178   15.368042461
    2.066444073   14.526293507    4.534675039   15.428241235
    2.073622705   14.565723268    4.544296751   15.489311355
    2.080801336   14.605547845    4.554019801   15.551272659
    2.087979967   14.645772722    4.563845709   15.614145648
    2.095158598   14.686403497    4.573776028   15.677951514
    2.102337229   14.727445883    4.583812346   15.742712168
    2.109515860   14.768905709    4.593956283   15.808450278
    2.116694491   14.810788925    4.604209499   15.875189297
    2.123873122   14.853101606    4.614573686   15.942953501
    2.131051753   14.895849955    4.625050579   16.011768029
    2.138230384   14.939040305    4.635641947   16.081658917
    2.145409015   14.982679123    4.646349602   16.152653143
    2.152587646   15.026773015    4.657175398   16.224778658
    2.159766277   15.071328729    4.668121230   16.298064392
    2.166944908   15.116353155    4.679189036   16.372540286
    2.174123539   15.161853340    4.690380801   16.448237641
    2.181302170   15.207836493    4.701698555   16.525189228
    2.188480801   15.254309969    4.713144376   16.603428681
    2.195659432   15.301281284    4.724720393   16.682990850
    2.202838063   15.348758129    4.736428782   16.763912054
    2.210016694   15.396748381    4.748271775   16.846230111
    2.217195326   15.445260082    4.760251656   16.929984367
    2.224373957   15.494301446    4.772370764   17.015215774
    2.231552588   15.543880864    4.784631496   17.101966954
    2.238731219   15.594006938    4.797036307   17.190282330
    2.245909850   15.644688539    4.809587712   17.280208260
    2.253088481   15.695934698    4.822288287   17.371793036
    2.260267112   15.747754639    4.835140684   17.465087200
    2.267445743   15.800157811    4.848147620   17.560143480
    2.274624374   15.853153888    4.861311870   17.657016757
    2.281803005   15.906752776    4.874636271   17.755764420
    2.288981636   15.960964624    4.888123715   17.856446676
    2.296160267   16.015799833    4.901777183   17.959126512
    2.303338898   16.071269095    4.915599844   18.063869734
    2.310517529   16.127383346    4.929594895   18.170745286
    2.317696160   16.184153764    4.943765539   18.279825445
    2.324874791   16.241591843    4.958115088   18.391186112
    2.332053422   16.299709412    4.972646964   18.504907043
    2.339232053   16.358518556    4.987364682   18.621071889
    2.346410684   16.418031661    5.002271848   18.739768542
    2.353589316   16.478261451    5.017372172   18.861089484
    2.360767947   16.539220989    5.032669466   18.985132078
    2.367946578   16.600923686    5.048167651   19.111998889
    2.375125209   16.663383315    5.063870757   19.241798048
    2.382303840   16.726614016    5.079782927   19.374643639
    2.389482471   16.790630313    5.095908424   19.510656130
    2.396661102   16.855447151    5.112251635   19.649962847
    2.403839733   16.921079896    5.128817075   19.792698475
    2.411018364   16.987544321    5.145609390   19.939005593
    2.418196995   17.054856637    5.162633361   20.089035288
    2.425375626   17.123033502    5.179893913   20.242947803
    2.432554257   17.192092025    5.197396110   20.400913257
    2.439732888   17.262049891    5.215145147   20.563112526
    2.446911519   17.332925370    5.233146354   20.729738116
    2.454090150   17.404737116    5.251405315   20.900994927
    2.461268781   17.477504477    5.269927895   21.077101536
    2.468447412   17.551247435    5.288719999   21.258291316
    2.475626043   17.625986402    5.307787661   21.444813519
    2.482804674   17.701742425    5.327137138   21.636934670
    2.489983306   17.778537248    5.346774908   21.834940098
    2.497161937   17.856393311    5.366707666   22.039137054
    2.504340568   17.935333780    5.386942328   22.249856728
    2.511519199   18.015382553    5.407486037   22.467453673
    2.518697830   18.096564299    5.428346168   22.692309505
    2.525876461   18.178904490    5.449530339   22.924836167
    2.533055092   18.262429413    5.471046423   23.165479128
    2.540233723   18.347166236    5.492902604   23.414722912
