# energy grid [eV]     ieps_x  ieps_y  ieps_z
#
    0.200000000    6.892576117    6.131743597    8.203846623
    0.207178631    6.891107899    6.130497623    8.202040462
    0.214357262    6.889589071    6.129208581    8.200172323
    0.221535893    6.888019749    6.127876561    8.198242375
    0.228714524    6.886400054    6.126501653    8.196250791
    0.235893155    6.884730110    6.125083949    8.194197749
    0.243071786    6.883010043    6.123623545    8.192083430
    0.250250417    6.881239984    6.122120539    8.189908021
    0.257429048    6.879420067    6.120575033    8.187671711
    0.264607679    6.877550427    6.118987129    8.185374694
    0.271786311    6.875631205    6.117356933    8.183017168
    0.278964942    6.873662543    6.115684553    8.180599334
    0.286143573    6.871644588    6.113970099    8.178121396
    0.293322204    6.869577487    6.112213683    8.175583562
    0.300500835    6.867461392    6.110415422    8.172986044
    0.307679466    6.865296457    6.108575431    8.170329056
    0.314858097    6.863082840    6.106693831    8.167612815
    0.322036728    6.860820700    6.104770743    8.164837542
    0.329215359    6.858510199    6.102806291    8.162003460
    0.336393990    6.856151504    6.100800601    8.159110796
    0.343572621    6.853744781    6.098753800    8.156159777
    0.350751252    6.851290200    6.096666019    8.153150636
    0.357929883    6.848787934    6.094537390    8.150083605
    0.365108514    6.846238158    6.092368046    8.146958922
    0.372287145    6.843641049    6.090158124    8.143776824
    0.379465776    6.840996787    6.087907762    8.140537552
    0.386644407    6.838305553    6.085617099    8.137241347
    0.393823038    6.835567531    6.083286277    8.133888456
    0.401001669    6.832782908    6.080915438    8.130479124
    0.408180301    6.829951871    6.078504729    8.127013600
    0.415358932    6.827074611    6.076054296    8.123492134
    0.422537563    6.824151320    6.073564288    8.119914977
    0.429716194    6.821182193    6.071034855    8.116282383
    0.436894825    6.818167424    6.068466148    8.112594606
    0.444073456    6.815107211    6.065858322    8.108851903
    0.451252087    6.812001756    6.063211531    8.105054532
    0.458430718    6.808851258    6.060525931    8.101202752
    0.465609349    6.805655921    6.057801682    8.097296822
    0.472787980    6.802415949    6.055038942    8.093337005
    0.479966611    6.799131550    6.052237872    8.089323562
    0.487145242    6.795802930    6.049398636    8.085256758
    0.494323873    6.792430300    6.046521396    8.081136858
    0.501502504    6.789013869    6.043606318    8.076964127
    0.508681135    6.785553852    6.040653568    8.072738831
    0.515859766    6.782050460    6.037663315    8.068461239
    0.523038397    6.778503910    6.034635727    8.064131618
    0.530217028    6.774914419    6.031570974    8.059750238
    0.537395659    6.771282202    6.028469229    8.055317369
    0.544574290    6.767607481    6.025330663    8.050833281
    0.551752922    6.763890474    6.022155452    8.046298246
    0.558931553    6.760131404    6.018943768    8.041712535
    0.566110184    6.756330492    6.015695790    8.037076422
    0.573288815    6.752487963    6.012411694    8.032390179
    0.580467446    6.748604041    6.009091658    8.027654081
    0.587646077    6.744678953    6.005735862    8.022868400
    0.594824708    6.740712923    6.002344485    8.018033413
    0.602003339    6.736706182    5.998917710    8.013149394
    0.609181970    6.732658956    5.995455718    8.008216619
    0.616360601    6.728571477    5.991958693    8.003235364
    0.623539232    6.724443973    5.988426818    7.998205906
    0.630717863    6.720276678    5.984860279    7.993128521
    0.637896494    6.716069821    5.981259262    7.988003486
    0.645075125    6.711823638    5.977623953    7.982831079
    0.652253756    6.707538361    5.973954539    7.977611578
    0.659432387    6.703214225    5.970251209    7.972345261
    0.666611018    6.698851464    5.966514153    7.967032407
    0.673789649    6.694450316    5.962743559    7.961673293
    0.680968280    6.690011016    5.958939618    7.956268200
    0.688146912    6.685533801    5.955102522    7.950817407
    0.695325543    6.681018909    5.951232463    7.945321192
    0.702504174    6.676466578    5.947329633    7.939779835
    0.709682805    6.671877048    5.943394226    7.934193617
    0.716861436    6.667250557    5.939426435    7.928562817
    0.724040067    6.662587346    5.935426455    7.922887716
    0.731218698    6.657887655    5.931394481    7.917168594
    0.738397329    6.653151724    5.927330709    7.911405732
    0.745575960    6.648379796    5.923235336    7.905599410
    0.752754591    6.643572110    5.919108557    7.899749909
    0.759933222    6.638728911    5.914950570    7.893857511
    0.767111853    6.633850439    5.910761573    7.887922496
    0.774290484    6.628936939    5.906541764    7.881945146
    0.781469115    6.623988652    5.902291343    7.875925742
    0.788647746    6.619005822    5.898010507    7.869864566
    0.795826377    6.613988694    5.893699458    7.863761899
    0.803005008    6.608937510    5.889358394    7.857618023
    0.810183639    6.603852516    5.884987517    7.851433219
    0.817362270    6.598733955    5.880587027    7.845207770
    0.824540902    6.593582072    5.876157125    7.838941957
    0.831719533    6.588397113    5.871698013    7.832636062
    0.838898164    6.583179321    5.867209892    7.826290368
    0.846076795    6.577928943    5.862692965    7.819905156
    0.853255426    6.572646222    5.858147435    7.813480708
    0.860434057    6.567331406    5.853573504    7.807017307
    0.867612688    6.561984739    5.848971374    7.800515234
    0.874791319    6.556606466    5.844341250    7.793974771
    0.881969950    6.551196834    5.839683334    7.787396202
    0.889148581    6.545756088    5.834997831    7.780779807
    0.896327212    6.540284474    5.830284944    7.774125869
    0.903505843    6.534782236    5.825544877    7.767434670
    0.910684474    6.529249622    5.820777835    7.760706492
    0.917863105    6.523686877    5.815984022    7.753941617
    0.925041736    6.518094246    5.811163642    7.747140327
    0.932220367    6.512471974    5.806316901    7.740302904
    0.939398998    6.506820308    5.801444002    7.733429629
    0.946577629    6.501139493    5.796545151    7.726520785
    0.953756260    6.495429773    5.791620553    7.719576653
    0.960934891    6.489691395    5.786670413    7.712597515
    0.968113523    6.483924603    5.781694936    7.705583652
    0.975292154    6.478129641    5.776694327    7.698535346
    0.982470785    6.472306756    5.771668791    7.691452877
    0.989649416    6.466456190    5.766618534    7.684336528
    0.996828047    6.460578189    5.761543760    7.677186578
    1.004006678    6.454672997    5.756444675    7.670003310
    1.011185309    6.448740857    5.751321484    7.662787003
    1.018363940    6.442782014    5.746174391    7.655537938
    1.025542571    6.436796710    5.741003603    7.648256395
    1.032721202    6.430785189    5.735809324    7.640942656
    1.039899833    6.424747693    5.730591759    7.633596999
    1.047078464    6.418684465    5.725351113    7.626219704
    1.054257095    6.412595748    5.720087590    7.618811051
    1.061435726    6.406481783    5.714801395    7.611371320
    1.068614357    6.400342813    5.709492733    7.603900789
    1.075792988    6.394179077    5.704161808    7.596399737
    1.082971619    6.387990817    5.698808824    7.588868443
    1.090150250    6.381778274    5.693433985    7.581307185
    1.097328881    6.375541688    5.688037495    7.573716241
    1.104507513    6.369281298    5.682619557    7.566095889
    1.111686144    6.362997344    5.677180376    7.558446406
    1.118864775    6.356690064    5.671720154    7.550768070
    1.126043406    6.350359698    5.666239094    7.543061157
    1.133222037    6.344006483    5.660737399    7.535325944
    1.140400668    6.337630656    5.655215272    7.527562706
    1.147579299    6.331232456    5.649672915    7.519771720
    1.154757930    6.324812118    5.644110530    7.511953261
    1.161936561    6.318369878    5.638528319    7.504107603
    1.169115192    6.311905972    5.632926482    7.496235022
    1.176293823    6.305420636    5.627305222    7.488335791
    1.183472454    6.298914103    5.621664739    7.480410185
    1.190651085    6.292386609    5.616005233    7.472458477
    1.197829716    6.285838385    5.610326906    7.464480939
    1.205008347    6.279269666    5.604629955    7.456477844
    1.212186978    6.272680683    5.598914582    7.448449464
    1.219365609    6.266071669    5.593180985    7.440396071
    1.226544240    6.259442854    5.587429363    7.432317935
    1.233722871    6.252794469    5.581659914    7.424215327
    1.240901503    6.246126744    5.575872836    7.416088517
    1.248080134    6.239439908    5.570068327    7.407937774
    1.255258765    6.232734190    5.564246583    7.399763368
    1.262437396    6.226009819    5.558407803    7.391565567
    1.269616027    6.219267020    5.552552181    7.383344638
    1.276794658    6.212506023    5.546679913    7.375100849
    1.283973289    6.205727051    5.540791196    7.366834467
    1.291151920    6.198930331    5.534886224    7.358545757
    1.298330551    6.192116088    5.528965191    7.350234985
    1.305509182    6.185284544    5.523028291    7.341902416
    1.312687813    6.178435925    5.517075719    7.333548315
    1.319866444    6.171570452    5.511107666    7.325172944
    1.327045075    6.164688347    5.505124325    7.316776567
    1.334223706    6.157789832    5.499125889    7.308359447
    1.341402337    6.150875126    5.493112549    7.299921844
    1.348580968    6.143944449    5.487084495    7.291464019
    1.355759599    6.136998021    5.481041918    7.282986234
    1.362938230    6.130036059    5.474985008    7.274488747
    1.370116861    6.123058781    5.468913954    7.265971817
    1.377295492    6.116066404    5.462828945    7.257435703
    1.384474124    6.109059142    5.456730168    7.248880662
    1.391652755    6.102037211    5.450617813    7.240306950
    1.398831386    6.095000826    5.444492064    7.231714824
    1.406010017    6.087950199    5.438353110    7.223104538
    1.413188648    6.080885544    5.432201135    7.214476347
    1.420367279    6.073807072    5.426036325    7.205830504
    1.427545910    6.066714993    5.419858865    7.197167262
    1.434724541    6.059609519    5.413668938    7.188486874
    1.441903172    6.052490857    5.407466727    7.179789590
    1.449081803    6.045359218    5.401252416    7.171075661
    1.456260434    6.038214807    5.395026186    7.162345335
    1.463439065    6.031057832    5.388788218    7.153598863
    1.470617696    6.023888499    5.382538694    7.144836491
    1.477796327    6.016707013    5.376277794    7.136058467
    1.484974958    6.009513577    5.370005696    7.127265036
    1.492153589    6.002308395    5.363722580    7.118456444
    1.499332220    5.995091669    5.357428624    7.109632936
    1.506510851    5.987863600    5.351124005    7.100794754
    1.513689482    5.980624390    5.344808899    7.091942141
    1.520868114    5.973374237    5.338483483    7.083075338
    1.528046745    5.966113340    5.332147932    7.074194587
    1.535225376    5.958841897    5.325802420    7.065300127
    1.542404007    5.951560105    5.319447122    7.056392198
    1.549582638    5.944268159    5.313082210    7.047471036
    1.556761269    5.936966256    5.306707857    7.038536878
    1.563939900    5.929654588    5.300324234    7.029589962
    1.571118531    5.922333349    5.293931513    7.020630521
    1.578297162    5.915002731    5.287529864    7.011658790
    1.585475793    5.907662925    5.281119455    7.002675002
    1.592654424    5.900314122    5.274700457    6.993679389
    1.599833055    5.892956510    5.268273036    6.984672182
    1.607011686    5.885590279    5.261837360    6.975653611
    1.614190317    5.878215616    5.255393596    6.966623905
    1.621368948    5.870832707    5.248941908    6.957583292
    1.628547579    5.863441737    5.242482463    6.948532000
    1.635726210    5.856042891    5.236015424    6.939470254
    1.642904841    5.848636354    5.229540954    6.930398279
    1.650083472    5.841222306    5.223059216    6.921316299
    1.657262104    5.833800930    5.216570372    6.912224537
    1.664440735    5.826372407    5.210074583    6.903123215
    1.671619366    5.818936915    5.203572009    6.894012554
    1.678797997    5.811494635    5.197062809    6.884892773
    1.685976628    5.804045742    5.190547142    6.875764092
    1.693155259    5.796590415    5.184025166    6.866626727
    1.700333890    5.789128828    5.177497038    6.857480895
    1.707512521    5.781661157    5.170962915    6.848326812
    1.714691152    5.774187575    5.164422950    6.839164692
    1.721869783    5.766708254    5.157877300    6.829994748
    1.729048414    5.759223367    5.151326117    6.820817193
    1.736227045    5.751733083    5.144769555    6.811632238
    1.743405676    5.744237574    5.138207766    6.802440092
    1.750584307    5.736737007    5.131640901    6.793240964
    1.757762938    5.729231549    5.125069111    6.784035063
    1.764941569    5.721721369    5.118492544    6.774822594
    1.772120200    5.714206631    5.111911351    6.765603764
    1.779298831    5.706687500    5.105325679    6.756378777
    1.786477462    5.699164139    5.098735675    6.747147836
    1.793656093    5.691636712    5.092141486    6.737911143
    1.800834725    5.684105379    5.085543256    6.728668899
    1.808013356    5.676570302    5.078941131    6.719421305
    1.815191987    5.669031640    5.072335255    6.710168559
    1.822370618    5.661489552    5.065725770    6.700910858
    1.829549249    5.653944194    5.059112818    6.691648400
    1.836727880    5.646395724    5.052496541    6.682381379
    1.843906511    5.638844298    5.045877079    6.673109989
    1.851085142    5.631290069    5.039254571    6.663834425
    1.858263773    5.623733192    5.032629157    6.654554877
    1.865442404    5.616173818    5.026000974    6.645271537
    1.872621035    5.608612099    5.019370160    6.635984593
    1.879799666    5.601048186    5.012736849    6.626694235
    1.886978297    5.593482228    5.006101179    6.617400650
    1.894156928    5.585914374    4.999463283    6.608104024
    1.901335559    5.578344770    4.992823294    6.598804542
    1.908514190    5.570773564    4.986181346    6.589502388
    1.915692821    5.563200901    4.979537570    6.580197743
    1.922871452    5.555626925    4.972892098    6.570890791
    1.930050083    5.548051779    4.966245059    6.561581711
    1.937228715    5.540475607    4.959596584    6.552270683
    1.944407346    5.532898549    4.952946800    6.542957884
    1.951585977    5.525320745    4.946295834    6.533643491
    1.958764608    5.517742335    4.939643815    6.524327680
    1.965943239    5.510163458    4.932990868    6.515010625
    1.973121870    5.502584251    4.926337117    6.505692500
    1.980300501    5.495004849    4.919682687    6.496373477
    1.987479132    5.487425390    4.913027701    6.487053727
    1.994657763    5.479846006    4.906372283    6.477733420
    2.001836394    5.472266831    4.899716552    6.468412724
    2.009015025    5.464687998    4.893060631    6.459091808
    2.016193656    5.457109637    4.886404640    6.449770836
    2.023372287    5.449531880    4.879748696    6.440449975
    2.030550918    5.441954856    4.873092919    6.431129389
    2.037729549    5.434378693    4.866437425    6.421809240
    2.044908180    5.426803519    4.859782332    6.412489690
    2.052086811    5.419229459    4.853127756    6.403170899
    2.059265442    5.411656640    4.846473809    6.393853027
    2.066444073    5.404085186    4.839820608    6.384536233
    2.073622705    5.396515221    4.833168265    6.375220673
    2.080801336    5.388946866    4.826516892    6.365906503
    2.087979967    5.381380244    4.819866601    6.356593877
    2.095158598    5.373815475    4.813217502    6.347282950
    2.102337229    5.366252679    4.806569705    6.337973874
    2.109515860    5.358691975    4.799923319    6.328666800
    2.116694491    5.351133479    4.793278452    6.319361878
    2.123873122    5.343577310    4.786635212    6.310059257
    2.131051753    5.336023582    4.779993705    6.300759085
    2.138230384    5.328472410    4.773354035    6.291461509
    2.145409015    5.320923909    4.766716309    6.282166674
    2.152587646    5.313378191    4.760080630    6.272874724
    2.159766277    5.305835369    4.753447101    6.263585804
    2.166944908    5.298295552    4.746815824    6.254300054
    2.174123539    5.290758852    4.740186902    6.245017616
    2.181302170    5.283225378    4.733560433    6.235738630
    2.188480801    5.275695237    4.726936519    6.226463234
    2.195659432    5.268168538    4.720315258    6.217191567
    2.202838063    5.260645386    4.713696749    6.207923764
    2.210016694    5.253125887    4.707081088    6.198659961
    2.217195326    5.245610145    4.700468372    6.189400292
    2.224373957    5.238098264    4.693858698    6.180144890
    2.231552588    5.230590347    4.687252159    6.170893887
    2.238731219    5.223086495    4.680648850    6.161647414
    2.245909850    5.215586810    4.674048865    6.152405602
    2.253088481    5.208091391    4.667452295    6.143168577
    2.260267112    5.200600337    4.660859233    6.133936469
    2.267445743    5.193113747    4.654269769    6.124709403
    2.274624374    5.185631717    4.647683993    6.115487506
    2.281803005    5.178154345    4.641101996    6.106270900
    2.288981636    5.170681725    4.634523865    6.097059710
    2.296160267    5.163213952    4.627949688    6.087854057
    2.303338898    5.155751121    4.621379551    6.078654062
    2.310517529    5.148293323    4.614813543    6.069459846
    2.317696160    5.140840650    4.608251746    6.060271527
    2.324874791    5.133393195    4.601694247    6.051089223
    2.332053422    5.125951046    4.595141129    6.041913051
    2.339232053    5.118514294    4.588592476    6.032743126
    2.346410684    5.111083027    4.582048368    6.023579563
    2.353589316    5.103657332    4.575508889    6.014422476
    2.360767947    5.096237296    4.568974118    6.005271977
    2.367946578    5.088823006    4.562444136    5.996128176
    2.375125209    5.081414546    4.555919022    5.986991186
    2.382303840    5.074012001    4.549398855    5.977861115
    2.389482471    5.066615454    4.542883712    5.968738071
    2.396661102    5.059224987    4.536373671    5.959622161
    2.403839733    5.051840683    4.529868806    5.950513493
    2.411018364    5.044462622    4.523369195    5.941412170
    2.418196995    5.037090885    4.516874912    5.932318298
    2.425375626    5.029725550    4.510386031    5.923231979
    2.432554257    5.022366697    4.503902625    5.914153315
    2.439732888    5.015014402    4.497424767    5.905082409
    2.446911519    5.007668744    4.490952528    5.896019358
    2.454090150    5.000329797    4.484485980    5.886964264
    2.461268781    4.992997637    4.478025194    5.877917224
    2.468447412    4.985672338    4.471570238    5.868878334
    2.475626043    4.978353975    4.465121182    5.859847692
    2.482804674    4.971042621    4.458678094    5.850825393
    2.489983306    4.963738346    4.452241042    5.841811529
    2.497161937    4.956441223    4.445810093    5.832806196
    2.504340568    4.949151322    4.439385312    5.823809484
    2.511519199    4.941868713    4.432966765    5.814821486
    2.518697830    4.934593466    4.426554517    5.805842291
    2.525876461    4.927325647    4.420148633    5.796871989
    2.533055092    4.920065325    4.413749174    5.787910669
    2.540233723    4.912812567    4.407356205    5.778958416
