# energy grid [eV]     ieps_x  ieps_y  ieps_z
#
    0.200000000    3.784576992    5.537004305    7.209209103
    0.207178631    3.783935265    5.535885304    7.207864787
    0.214357262    3.783271309    5.534727567    7.206473860
    0.221535893    3.782585165    5.533531168    7.205036403
    0.228714524    3.781876875    5.532296183    7.203552499
    0.235893155    3.781146481    5.531022691    7.202022232
    0.243071786    3.780394029    5.529710772    7.200445692
    0.250250417    3.779619563    5.528360510    7.198822969
    0.257429048    3.778823132    5.526971989    7.197154156
    0.264607679    3.778004782    5.525545297    7.195439347
    0.271786311    3.777164564    5.524080524    7.193678641
    0.278964942    3.776302527    5.522577761    7.191872137
    0.286143573    3.775418724    5.521037103    7.190019937
    0.293322204    3.774513207    5.519458646    7.188122147
    0.300500835    3.773586030    5.517842488    7.186178873
    0.307679466    3.772637248    5.516188729    7.184190224
    0.314858097    3.771666918    5.514497473    7.182156311
    0.322036728    3.770675096    5.512768823    7.180077247
    0.329215359    3.769661842    5.511002886    7.177953149
    0.336393990    3.768627214    5.509199771    7.175784133
    0.343572621    3.767571273    5.507359588    7.173570319
    0.350751252    3.766494081    5.505482451    7.171311829
    0.357929883    3.765395700    5.503568474    7.169008788
    0.365108514    3.764276194    5.501617772    7.166661320
    0.372287145    3.763135628    5.499630466    7.164269553
    0.379465776    3.761974066    5.497606674    7.161833618
    0.386644407    3.760791577    5.495546519    7.159353646
    0.393823038    3.759588226    5.493450125    7.156829770
    0.401001669    3.758364084    5.491317618    7.154262126
    0.408180301    3.757119219    5.489149125    7.151650851
    0.415358932    3.755853701    5.486944776    7.148996085
    0.422537563    3.754567602    5.484704702    7.146297967
    0.429716194    3.753260995    5.482429035    7.143556642
    0.436894825    3.751933951    5.480117911    7.140772252
    0.444073456    3.750586546    5.477771464    7.137944945
    0.451252087    3.749218853    5.475389834    7.135074868
    0.458430718    3.747830949    5.472973158    7.132162170
    0.465609349    3.746422910    5.470521579    7.129207002
    0.472787980    3.744994812    5.468035239    7.126209517
    0.479966611    3.743546735    5.465514282    7.123169870
    0.487145242    3.742078757    5.462958853    7.120088214
    0.494323873    3.740590957    5.460369100    7.116964709
    0.501502504    3.739083415    5.457745171    7.113799513
    0.508681135    3.737556214    5.455087216    7.110592785
    0.515859766    3.736009434    5.452395386    7.107344687
    0.523038397    3.734443158    5.449669835    7.104055383
    0.530217028    3.732857470    5.446910716    7.100725037
    0.537395659    3.731252452    5.444118186    7.097353813
    0.544574290    3.729628191    5.441292400    7.093941881
    0.551752922    3.727984770    5.438433517    7.090489407
    0.558931553    3.726322276    5.435541696    7.086996562
    0.566110184    3.724640795    5.432617099    7.083463516
    0.573288815    3.722940415    5.429659886    7.079890442
    0.580467446    3.721221222    5.426670220    7.076277512
    0.587646077    3.719483306    5.423648267    7.072624902
    0.594824708    3.717726755    5.420594192    7.068932787
    0.602003339    3.715951659    5.417508160    7.065201344
    0.609181970    3.714158107    5.414390339    7.061430751
    0.616360601    3.712346191    5.411240898    7.057621186
    0.623539232    3.710516000    5.408060008    7.053772830
    0.630717863    3.708667628    5.404847837    7.049885865
    0.637896494    3.706801166    5.401604559    7.045960472
    0.645075125    3.704916706    5.398330346    7.041996834
    0.652253756    3.703014342    5.395025371    7.037995135
    0.659432387    3.701094166    5.391689809    7.033955562
    0.666611018    3.699156275    5.388323836    7.029878298
    0.673789649    3.697200760    5.384927627    7.025763533
    0.680968280    3.695227719    5.381501361    7.021611452
    0.688146912    3.693237245    5.378045215    7.017422246
    0.695325543    3.691229434    5.374559368    7.013196104
    0.702504174    3.689204384    5.371044000    7.008933215
    0.709682805    3.687162189    5.367499291    7.004633772
    0.716861436    3.685102948    5.363925423    7.000297966
    0.724040067    3.683026757    5.360322577    6.995925990
    0.731218698    3.680933714    5.356690936    6.991518037
    0.738397329    3.678823917    5.353030683    6.987074303
    0.745575960    3.676697464    5.349342002    6.982594980
    0.752754591    3.674554454    5.345625079    6.978080266
    0.759933222    3.672394987    5.341880097    6.973530357
    0.767111853    3.670219160    5.338107244    6.968945449
    0.774290484    3.668027074    5.334306705    6.964325741
    0.781469115    3.665818829    5.330478667    6.959671430
    0.788647746    3.663594525    5.326623317    6.954982715
    0.795826377    3.661354262    5.322740845    6.950259796
    0.803005008    3.659098141    5.318831437    6.945502873
    0.810183639    3.656826262    5.314895284    6.940712146
    0.817362270    3.654538728    5.310932574    6.935887817
    0.824540902    3.652235638    5.306943498    6.931030086
    0.831719533    3.649917096    5.302928245    6.926139156
    0.838898164    3.647583203    5.298887007    6.921215230
    0.846076795    3.645234060    5.294819974    6.916258511
    0.853255426    3.642869770    5.290727337    6.911269201
    0.860434057    3.640490436    5.286609288    6.906247506
    0.867612688    3.638096159    5.282466020    6.901193629
    0.874791319    3.635687044    5.278297724    6.896107775
    0.881969950    3.633263192    5.274104593    6.890990149
    0.889148581    3.630824706    5.269886819    6.885840956
    0.896327212    3.628371691    5.265644597    6.880660403
    0.903505843    3.625904249    5.261378118    6.875448696
    0.910684474    3.623422483    5.257087577    6.870206041
    0.917863105    3.620926498    5.252773167    6.864932645
    0.925041736    3.618416396    5.248435082    6.859628715
    0.932220367    3.615892282    5.244073516    6.854294458
    0.939398998    3.613354260    5.239688663    6.848930083
    0.946577629    3.610802434    5.235280716    6.843535796
    0.953756260    3.608236907    5.230849871    6.838111806
    0.960934891    3.605657783    5.226396321    6.832658322
    0.968113523    3.603065168    5.221920261    6.827175551
    0.975292154    3.600459164    5.217421886    6.821663704
    0.982470785    3.597839877    5.212901389    6.816122987
    0.989649416    3.595207411    5.208358965    6.810553611
    0.996828047    3.592561869    5.203794809    6.804955785
    1.004006678    3.589903357    5.199209115    6.799329719
    1.011185309    3.587231979    5.194602078    6.793675620
    1.018363940    3.584547839    5.189973891    6.787993700
    1.025542571    3.581851041    5.185324749    6.782284168
    1.032721202    3.579141691    5.180654846    6.776547234
    1.039899833    3.576419891    5.175964376    6.770783106
    1.047078464    3.573685747    5.171253533    6.764991997
    1.054257095    3.570939364    5.166522510    6.759174114
    1.061435726    3.568180844    5.161771502    6.753329669
    1.068614357    3.565410294    5.157000702    6.747458871
    1.075792988    3.562627816    5.152210303    6.741561930
    1.082971619    3.559833515    5.147400498    6.735639056
    1.090150250    3.557027495    5.142571480    6.729690459
    1.097328881    3.554209860    5.137723441    6.723716349
    1.104507513    3.551380714    5.132856575    6.717716936
    1.111686144    3.548540162    5.127971073    6.711692429
    1.118864775    3.545688306    5.123067127    6.705643039
    1.126043406    3.542825251    5.118144928    6.699568975
    1.133222037    3.539951100    5.113204669    6.693470446
    1.140400668    3.537065957    5.108246540    6.687347663
    1.147579299    3.534169924    5.103270731    6.681200834
    1.154757930    3.531263107    5.098277434    6.675030168
    1.161936561    3.528345607    5.093266837    6.668835876
    1.169115192    3.525417528    5.088239132    6.662618164
    1.176293823    3.522478972    5.083194506    6.656377244
    1.183472454    3.519530043    5.078133150    6.650113322
    1.190651085    3.516570843    5.073055251    6.643826607
    1.197829716    3.513601475    5.067960998    6.637517308
    1.205008347    3.510622041    5.062850579    6.631185633
    1.212186978    3.507632643    5.057724180    6.624831789
    1.219365609    3.504633383    5.052581989    6.618455983
    1.226544240    3.501624363    5.047424191    6.612058425
    1.233722871    3.498605685    5.042250974    6.605639319
    1.240901503    3.495577450    5.037062522    6.599198873
    1.248080134    3.492539760    5.031859021    6.592737294
    1.255258765    3.489492715    5.026640655    6.586254788
    1.262437396    3.486436417    5.021407607    6.579751561
    1.269616027    3.483370967    5.016160063    6.573227818
    1.276794658    3.480296464    5.010898203    6.566683765
    1.283973289    3.477213010    5.005622212    6.560119607
    1.291151920    3.474120704    5.000332271    6.553535549
    1.298330551    3.471019646    4.995028560    6.546931795
    1.305509182    3.467909936    4.989711262    6.540308549
    1.312687813    3.464791674    4.984380556    6.533666014
    1.319866444    3.461664958    4.979036622    6.527004394
    1.327045075    3.458529887    4.973679639    6.520323892
    1.334223706    3.455386561    4.968309786    6.513624711
    1.341402337    3.452235077    4.962927240    6.506907052
    1.348580968    3.449075534    4.957532179    6.500171118
    1.355759599    3.445908030    4.952124779    6.493417109
    1.362938230    3.442732663    4.946705217    6.486645226
    1.370116861    3.439549530    4.941273668    6.479855670
    1.377295492    3.436358727    4.935830306    6.473048642
    1.384474124    3.433160353    4.930375306    6.466224339
    1.391652755    3.429954504    4.924908841    6.459382963
    1.398831386    3.426741275    4.919431084    6.452524710
    1.406010017    3.423520764    4.913942207    6.445649780
    1.413188648    3.420293065    4.908442382    6.438758370
    1.420367279    3.417058275    4.902931779    6.431850678
    1.427545910    3.413816488    4.897410569    6.424926899
    1.434724541    3.410567800    4.891878920    6.417987231
    1.441903172    3.407312305    4.886337002    6.411031869
    1.449081803    3.404050097    4.880784982    6.404061008
    1.456260434    3.400781270    4.875223028    6.397074842
    1.463439065    3.397505918    4.869651306    6.390073566
    1.470617696    3.394224134    4.864069983    6.383057374
    1.477796327    3.390936012    4.858479222    6.376026458
    1.484974958    3.387641644    4.852879189    6.368981010
    1.492153589    3.384341122    4.847270047    6.361921224
    1.499332220    3.381034538    4.841651959    6.354847289
    1.506510851    3.377721984    4.836025088    6.347759397
    1.513689482    3.374403552    4.830389593    6.340657738
    1.520868114    3.371079332    4.824745637    6.333542501
    1.528046745    3.367749416    4.819093378    6.326413876
    1.535225376    3.364413893    4.813432976    6.319272050
    1.542404007    3.361072853    4.807764590    6.312117212
    1.549582638    3.357726387    4.802088376    6.304949548
    1.556761269    3.354374583    4.796404491    6.297769245
    1.563939900    3.351017531    4.790713092    6.290576489
    1.571118531    3.347655319    4.785014333    6.283371465
    1.578297162    3.344288035    4.779308369    6.276154358
    1.585475793    3.340915767    4.773595353    6.268925351
    1.592654424    3.337538603    4.767875438    6.261684628
    1.599833055    3.334156629    4.762148776    6.254432372
    1.607011686    3.330769933    4.756415518    6.247168764
    1.614190317    3.327378601    4.750675815    6.239893986
    1.621368948    3.323982719    4.744929815    6.232608218
    1.628547579    3.320582373    4.739177668    6.225311640
    1.635726210    3.317177647    4.733419522    6.218004432
    1.642904841    3.313768627    4.727655523    6.210686771
    1.650083472    3.310355397    4.721885818    6.203358836
    1.657262104    3.306938042    4.716110552    6.196020805
    1.664440735    3.303516644    4.710329870    6.188672852
    1.671619366    3.300091288    4.704543915    6.181315155
    1.678797997    3.296662057    4.698752830    6.173947888
    1.685976628    3.293229032    4.692956758    6.166571225
    1.693155259    3.289792296    4.687155840    6.159185340
    1.700333890    3.286351931    4.681350216    6.151790405
    1.707512521    3.282908019    4.675540025    6.144386594
    1.714691152    3.279460639    4.669725406    6.136974077
    1.721869783    3.276009873    4.663906498    6.129553024
    1.729048414    3.272555802    4.658083437    6.122123606
    1.736227045    3.269098503    4.652256360    6.114685992
    1.743405676    3.265638058    4.646425401    6.107240351
    1.750584307    3.262174545    4.640590696    6.099786849
    1.757762938    3.258708042    4.634752378    6.092325653
    1.764941569    3.255238628    4.628910579    6.084856930
    1.772120200    3.251766381    4.623065432    6.077380846
    1.779298831    3.248291377    4.617217068    6.069897564
    1.786477462    3.244813693    4.611365616    6.062407248
    1.793656093    3.241333407    4.605511208    6.054910062
    1.800834725    3.237850594    4.599653970    6.047406167
    1.808013356    3.234365330    4.593794031    6.039895725
    1.815191987    3.230877690    4.587931518    6.032378897
    1.822370618    3.227387749    4.582066556    6.024855842
    1.829549249    3.223895581    4.576199271    6.017326720
    1.836727880    3.220401261    4.570329787    6.009791689
    1.843906511    3.216904861    4.564458227    6.002250906
    1.851085142    3.213406456    4.558584714    5.994704528
    1.858263773    3.209906117    4.552709371    5.987152711
    1.865442404    3.206403917    4.546832317    5.979595610
    1.872621035    3.202899929    4.540953673    5.972033380
    1.879799666    3.199394223    4.535073557    5.964466173
    1.886978297    3.195886870    4.529192090    5.956894142
    1.894156928    3.192377941    4.523309387    5.949317440
    1.901335559    3.188867507    4.517425565    5.941736217
    1.908514190    3.185355637    4.511540741    5.934150623
    1.915692821    3.181842400    4.505655030    5.926560808
    1.922871452    3.178327866    4.499768545    5.918966921
    1.930050083    3.174812103    4.493881399    5.911369109
    1.937228715    3.171295178    4.487993706    5.903767519
    1.944407346    3.167777160    4.482105577    5.896162297
    1.951585977    3.164258116    4.476217122    5.888553589
    1.958764608    3.160738113    4.470328452    5.880941539
    1.965943239    3.157217216    4.464439676    5.873326291
    1.973121870    3.153695493    4.458550902    5.865707987
    1.980300501    3.150173007    4.452662237    5.858086769
    1.987479132    3.146649826    4.446773788    5.850462780
    1.994657763    3.143126012    4.440885661    5.842836158
    2.001836394    3.139601631    4.434997960    5.835207043
    2.009015025    3.136076746    4.429110791    5.827575575
    2.016193656    3.132551421    4.423224256    5.819941891
    2.023372287    3.129025718    4.417338457    5.812306127
    2.030550918    3.125499700    4.411453497    5.804668421
    2.037729549    3.121973430    4.405569476    5.797028907
    2.044908180    3.118446968    4.399686495    5.789387721
    2.052086811    3.114920377    4.393804652    5.781744994
    2.059265442    3.111393716    4.387924045    5.774100862
    2.066444073    3.107867047    4.382044774    5.766455454
    2.073622705    3.104340430    4.376166933    5.758808904
    2.080801336    3.100813923    4.370290620    5.751161340
    2.087979967    3.097287586    4.364415930    5.743512893
    2.095158598    3.093761478    4.358542956    5.735863690
    2.102337229    3.090235658    4.352671793    5.728213861
    2.109515860    3.086710182    4.346802533    5.720563532
    2.116694491    3.083185108    4.340935268    5.712912828
    2.123873122    3.079660494    4.335070090    5.705261876
    2.131051753    3.076136397    4.329207089    5.697610800
    2.138230384    3.072612871    4.323346355    5.689959723
    2.145409015    3.069089974    4.317487976    5.682308769
    2.152587646    3.065567760    4.311632040    5.674658059
    2.159766277    3.062046284    4.305778635    5.667007714
    2.166944908    3.058525601    4.299927848    5.659357856
    2.174123539    3.055005765    4.294079764    5.651708602
    2.181302170    3.051486830    4.288234468    5.644060073
    2.188480801    3.047968849    4.282392045    5.636412385
    2.195659432    3.044451875    4.276552577    5.628765656
    2.202838063    3.040935960    4.270716148    5.621120003
    2.210016694    3.037421157    4.264882840    5.613475539
    2.217195326    3.033907516    4.259052733    5.605832381
    2.224373957    3.030395090    4.253225909    5.598190641
    2.231552588    3.026883929    4.247402446    5.590550433
    2.238731219    3.023374083    4.241582425    5.582911869
    2.245909850    3.019865603    4.235765922    5.575275059
    2.253088481    3.016358538    4.229953016    5.567640115
    2.260267112    3.012852937    4.224143784    5.560007146
    2.267445743    3.009348850    4.218338301    5.552376261
    2.274624374    3.005846324    4.212536642    5.544747567
    2.281803005    3.002345408    4.206738883    5.537121173
    2.288981636    2.998846148    4.200945096    5.529497183
    2.296160267    2.995348593    4.195155356    5.521875705
    2.303338898    2.991852789    4.189369735    5.514256843
    2.310517529    2.988358783    4.183588304    5.506640700
    2.317696160    2.984866620    4.177811134    5.499027380
    2.324874791    2.981376347    4.172038296    5.491416985
    2.332053422    2.977888008    4.166269858    5.483809617
    2.339232053    2.974401648    4.160505891    5.476205376
    2.346410684    2.970917311    4.154746462    5.468604363
    2.353589316    2.967435043    4.148991639    5.461006676
    2.360767947    2.963954886    4.143241488    5.453412414
    2.367946578    2.960476883    4.137496076    5.445821675
    2.375125209    2.957001078    4.131755468    5.438234555
    2.382303840    2.953527514    4.126019729    5.430651151
    2.389482471    2.950056231    4.120288923    5.423071557
    2.396661102    2.946587273    4.114563113    5.415495868
    2.403839733    2.943120680    4.108842362    5.407924178
    2.411018364    2.939656493    4.103126732    5.400356579
    2.418196995    2.936194753    4.097416285    5.392793165
    2.425375626    2.932735501    4.091711082    5.385234025
    2.432554257    2.929278775    4.086011181    5.377679250
    2.439732888    2.925824616    4.080316644    5.370128932
    2.446911519    2.922373063    4.074627528    5.362583157
    2.454090150    2.918924155    4.068943893    5.355042015
    2.461268781    2.915477929    4.063265794    5.347505594
    2.468447412    2.912034424    4.057593290    5.339973979
    2.475626043    2.908593678    4.051926437    5.332447257
    2.482804674    2.905155728    4.046265289    5.324925514
    2.489983306    2.901720610    4.040609903    5.317408833
    2.497161937    2.898288362    4.034960333    5.309897299
    2.504340568    2.894859020    4.029316632    5.302390994
    2.511519199    2.891432619    4.023678853    5.294890001
    2.518697830    2.888009195    4.018047050    5.287394401
    2.525876461    2.884588783    4.012421273    5.279904275
    2.533055092    2.881171418    4.006801575    5.272419703
    2.540233723    2.877757134    4.001188006    5.264940764
