# energy grid [eV]     epsr_x  epsr_y  epsr_z
#
    0.200000000    5.973925984    8.418551946   10.245950698
    0.207178631    5.974968037    8.420194546   10.247793227
    0.214357262    5.976047461    8.421896102   10.249701791
    0.221535893    5.977164326    8.423656725   10.251676504
    0.228714524    5.978318698    8.425476528   10.253717483
    0.235893155    5.979510651    8.427355630   10.255824852
    0.243071786    5.980740257    8.429294155   10.257998736
    0.250250417    5.982007595    8.431292230   10.260239268
    0.257429048    5.983312743    8.433349985   10.262546584
    0.264607679    5.984655783    8.435467558   10.264920823
    0.271786311    5.986036799    8.437645089   10.267362133
    0.278964942    5.987455879    8.439882724   10.269870661
    0.286143573    5.988913113    8.442180611   10.272446565
    0.293322204    5.990408593    8.444538906   10.275090004
    0.300500835    5.991942415    8.446957768   10.277801143
    0.307679466    5.993514677    8.449437362   10.280580153
    0.314858097    5.995125480    8.451977855   10.283427208
    0.322036728    5.996774928    8.454579424   10.286342491
    0.329215359    5.998463127    8.457242246   10.289326187
    0.336393990    6.000190189    8.459966507   10.292378488
    0.343572621    6.001956225    8.462752397   10.295499592
    0.350751252    6.003761352    8.465600110   10.298689703
    0.357929883    6.005605688    8.468509848   10.301949030
    0.365108514    6.007489356    8.471481818   10.305277788
    0.372287145    6.009412482    8.474516231   10.308676199
    0.379465776    6.011375194    8.477613306   10.312144491
    0.386644407    6.013377624    8.480773268   10.315682900
    0.393823038    6.015419908    8.483996346   10.319291666
    0.401001669    6.017502184    8.487282778   10.322971037
    0.408180301    6.019624597    8.490632807   10.326721270
    0.415358932    6.021787290    8.494046683   10.330542626
    0.422537563    6.023990416    8.497524663   10.334435377
    0.429716194    6.026234126    8.501067011   10.338399799
    0.436894825    6.028518580    8.504673999   10.342436180
    0.444073456    6.030843938    8.508345905   10.346544813
    0.451252087    6.033210366    8.512083015   10.350726001
    0.458430718    6.035618035    8.515885625   10.354980056
    0.465609349    6.038067117    8.519754036   10.359307298
    0.472787980    6.040557793    8.523688559   10.363708057
    0.479966611    6.043090244    8.527689515   10.368182675
    0.487145242    6.045664659    8.531757233   10.372731500
    0.494323873    6.048281231    8.535892049   10.377354893
    0.501502504    6.050940156    8.540094314   10.382053226
    0.508681135    6.053641638    8.544364384   10.386826883
    0.515859766    6.056385884    8.548702629   10.391676257
    0.523038397    6.059173108    8.553109427   10.396601758
    0.530217028    6.062003528    8.557585170   10.401603804
    0.537395659    6.064877370    8.562130261   10.406682832
    0.544574290    6.067794865    8.566745115   10.411839287
    0.551752922    6.070756249    8.571430159   10.417073635
    0.558931553    6.073761767    8.576185837   10.422386354
    0.566110184    6.076811669    8.581012602   10.427777938
    0.573288815    6.079906213    8.585910927   10.433248901
    0.580467446    6.083045663    8.590881298   10.438799774
    0.587646077    6.086230293    8.595924217   10.444431107
    0.594824708    6.089460383    8.601040204   10.450143469
    0.602003339    6.092736223    8.606229799   10.455937453
    0.609181970    6.096058110    8.611493558   10.461813673
    0.616360601    6.099426353    8.616832059   10.467772767
    0.623539232    6.102841268    8.622245903   10.473815400
    0.630717863    6.106303183    8.627735711   10.479942262
    0.637896494    6.109812437    8.633302130   10.486154074
    0.645075125    6.113369379    8.638945834   10.492451587
    0.652253756    6.116974372    8.644667521   10.498835585
    0.659432387    6.120627791    8.650467922   10.505306887
    0.666611018    6.124330024    8.656347798   10.511866349
    0.673789649    6.128081475    8.662307944   10.518514869
    0.680968280    6.131882563    8.668349189   10.525253388
    0.688146912    6.135733723    8.674472404   10.532082894
    0.695325543    6.139635409    8.680678501   10.539004425
    0.702504174    6.143588094    8.686968434   10.546019074
    0.709682805    6.147592269    8.693343210   10.553127993
    0.716861436    6.151648451    8.699803885   10.560332398
    0.724040067    6.155757179    8.706351576   10.567633577
    0.731218698    6.159919015    8.712987458   10.575032889
    0.738397329    6.164134555    8.719712777   10.582531781
    0.745575960    6.168404419    8.726528852   10.590131787
    0.752754591    6.172729265    8.733437081   10.597834542
    0.759933222    6.177109784    8.740438953   10.605641788
    0.767111853    6.181546708    8.747536054   10.613555390
    0.774290484    6.186040812    8.754730076   10.621577341
    0.781469115    6.190592919    8.762022832   10.629709785
    0.788647746    6.195203904    8.769416265   10.637955023
    0.795826377    6.199874701    8.776912464   10.646315540
    0.803005008    6.204606307    8.784513681   10.654794020
    0.810183639    6.209399795    8.792222348   10.663393370
    0.817362270    6.214256314    8.800041103   10.672116752
    0.824540902    6.219177105    8.807972810   10.680967607
    0.831719533    6.224163511    8.816020591   10.689949696
    0.838898164    6.229216988    8.824187859   10.699067140
    0.846076795    6.234339123    8.832478359   10.708324471
    0.853255426    6.239531649    8.840896209   10.717726685
    0.860434057    6.244796467    8.849445960   10.727279311
    0.867612688    6.250135671    8.858132654   10.736988492
    0.874791319    6.255551574    8.866961903   10.746861075
    0.881969950    6.261046749    8.875939978   10.756904725
    0.889148581    6.266624062    8.885073913   10.767128056
    0.896327212    6.272286728    8.894371640   10.777540793
    0.903505843    6.278038370    8.903842140   10.788153965
    0.910684474    6.283883088    8.913495633   10.798980143
    0.917863105    6.289825553    8.923343816   10.810033724
    0.925041736    6.295871118    8.933400145   10.821331296
    0.932220367    6.302025950    8.943680194   10.832892074
    0.939398998    6.308297210    8.954202102   10.844738458
    0.946577629    6.314693261    8.964987137   10.856896735
    0.953756260    6.321223953    8.976060415   10.869397970
    0.960934891    6.327900972    8.987451824   10.882279151
    0.968113523    6.334738304    8.999197219   10.895584680
    0.975292154    6.341752840    9.011340001   10.909368326
    0.982470785    6.348965177    9.023933195   10.923695809
    0.989649416    6.356400694    9.037042253   10.938648279
    0.996828047    6.364091014    9.050748846   10.954327023
    1.004006678    6.372076010    9.065156084   10.970859949
    1.011185309    6.380406592    9.080395766   10.988410582
    1.018363940    6.389148623    9.096638551   11.007190696
    1.025542571    6.398388447    9.114108327   11.027478148
    1.032721202    6.408240653    9.133102413   11.049641960
    1.039899833    6.418858747    9.154019282   11.074176734
    1.047078464    6.430448605    9.177393536   11.101746072
    1.054257095    6.443280804    9.203927975   11.133222389
    1.061435726    6.457682311    9.234471985   11.169660081
    1.068614357    6.473926227    9.269734903   11.211939702
    1.075792988    6.491692698    9.308884606   11.259028243
    1.082971619    6.507839065    9.343750715   11.300782989
    1.090150250    6.508919585    9.339378666   11.293811284
    1.097328881    6.464294480    9.216115793   11.139232158
    1.104507513    6.386380373    9.006240040   10.877115599
    1.111686144    6.351726115    8.908749266   10.754498133
    1.118864775    6.357522347    8.916339522   10.762312739
    1.126043406    6.374905086    8.953974522   10.807409340
    1.133222037    6.393083673    8.993601903   10.854963851
    1.140400668    6.409727493    9.029162259   10.897454333
    1.147579299    6.424702064    9.060305314   10.934446223
    1.154757930    6.438308743    9.087813809   10.966911538
    1.161936561    6.450868096    9.112520428   10.995884344
    1.169115192    6.462639361    9.135098422   11.022200856
    1.176293823    6.473818681    9.156057039   11.046493761
    1.183472454    6.484552322    9.175775866   11.069234867
    1.190651085    6.494949742    9.194538821   11.090777306
    1.197829716    6.505093728    9.212560502   11.111388264
    1.205008347    6.515047730    9.230005266   11.131272671
    1.212186978    6.524861070    9.247000769   11.150590030
    1.219365609    6.534572632    9.263647570   11.169466362
    1.226544240    6.544213499    9.280025994   11.188002741
    1.233722871    6.553808857    9.296201081   11.206281474
    1.240901503    6.563379376    9.312226210   11.224370619
    1.248080134    6.572942243    9.328145778   11.242327358
    1.255258765    6.582511929    9.343997217   11.260200540
    1.262437396    6.592100770    9.359812529   11.278032639
    1.269616027    6.601719416    9.375619474   11.295861289
    1.276794658    6.611377181    9.391442504   11.313720526
    1.283973289    6.621082316    9.407303518   11.331641810
    1.291151920    6.630842230    9.423222477   11.349654904
    1.298330551    6.640663672    9.439217929   11.367788658
    1.305509182    6.650552880    9.455307466   11.386071751
    1.312687813    6.660515709    9.471508140   11.404533417
    1.319866444    6.670557746    9.487836871   11.423204210
    1.327045075    6.680684416    9.504310846   11.442116839
    1.334223706    6.690901081    9.520947956   11.461307136
    1.341402337    6.701213144    9.537767283   11.480815202
    1.348580968    6.711626158    9.554789669   11.500686829
    1.355759599    6.722145955    9.572038417   11.520975302
    1.362938230    6.732778789    9.589540169   11.541743730
    1.370116861    6.743531526    9.607326046   11.563068124
    1.377295492    6.754411877    9.625433165   11.585041538
    1.384474124    6.765428711    9.643906678   11.607779715
    1.391652755    6.776592483    9.662802581   11.631428893
    1.398831386    6.787915812    9.682191622   11.656176725
    1.406010017    6.799414304    9.702164791   11.682267660
    1.413188648    6.811107685    9.722841039   11.710024541
    1.420367279    6.823021367    9.744377924   11.739878193
    1.427545910    6.835188436    9.766985349   11.772404717
    1.434724541    6.847651567    9.790939533   11.808359539
    1.441903172    6.860462285    9.816581543   11.848653556
    1.449081803    6.873666747    9.844234120   11.894043216
    1.456260434    6.887234462    9.873769726   11.943619214
    1.463439065    6.900764919    9.902803567   11.988662124
    1.470617696    6.912545153    9.920583066   11.993700629
    1.477796327    6.918688592    9.899777573   11.886029718
    1.484974958    6.919033288    9.832427373   11.680215289
    1.492153589    6.923468568    9.789661683   11.556657292
    1.499332220    6.934999658    9.798141190   11.556956758
    1.506510851    6.949296070    9.826531953   11.602380199
    1.513689482    6.964118427    9.858027197   11.653694049
    1.520868114    6.978914053    9.888395541   11.701293741
    1.528046745    6.993620265    9.917090714   11.744089997
    1.535225376    7.008281069    9.944374905   11.782820946
    1.542404007    7.022952873    9.970608207   11.818413284
    1.549582638    7.037684731    9.996097901   11.851642150
    1.556761269    7.052516439   10.021082167   11.883100957
    1.563939900    7.067480360   10.045742158   11.913234981
    1.571118531    7.082603570   10.070216733   11.942379413
    1.578297162    7.097909617   10.094614457   11.970789828
    1.585475793    7.113419863   10.119022498   11.998664525
    1.592654424    7.129154494   10.143513073   12.026160521
    1.599833055    7.145133321   10.168148148   12.053405009
    1.607011686    7.161376430   10.192982954   12.080503669
    1.614190317    7.177904774   10.218068726   12.107546853
    1.621368948    7.194740726   10.243454961   12.134614317
    1.628547579    7.211908670   10.269191426   12.161779040
    1.635726210    7.229435644   10.295330090   12.189110480
    1.642904841    7.247352096   10.321927165   12.216677583
    1.650083472    7.265692814   10.349045432   12.244551828
    1.657262104    7.284498093   10.376757075   12.272810586
    1.664440735    7.303815245   10.405147312   12.301541150
    1.671619366    7.323700606   10.434319204   12.330845851
    1.678797997    7.344222210   10.464400177   12.360848848
    1.685976628    7.365463385   10.495550899   12.391705258
    1.693155259    7.387527502   10.527977055   12.423613178
    1.700333890    7.410543726   10.561943389   12.456827811
    1.707512521    7.434671992   10.597784017   12.491670899
    1.714691152    7.460098543   10.635881285   12.528504549
    1.721869783    7.486986145   10.676499321   12.567542980
    1.729048414    7.515234842   10.719016660   12.607996763
    1.736227045    7.543525590   10.758892015   12.644702562
    1.743405676    7.566694620   10.779357676   12.658906348
    1.750584307    7.577826849   10.757990647   12.625531701
    1.757762938    7.590277828   10.736138601   12.590105807
    1.764941569    7.619388109   10.761172850   12.604728865
    1.772120200    7.659281829   10.813215761   12.646829723
    1.779298831    7.705011782   10.874917245   12.696473422
    1.786477462    7.755951101   10.942150766   12.748258121
    1.793656093    7.812774310   11.014923851   12.801612292
    1.800834725    7.874947832   11.091790248   12.856341599
    1.808013356    7.934502955   11.159956392   12.908696880
    1.815191987    7.957521769   11.167252499   12.941963459
    1.822370618    7.881316400   11.018136518   12.925110247
    1.829549249    7.770118539   10.810019206   12.890888604
    1.836727880    7.761239307   10.758010211   12.910342039
    1.843906511    7.787332032   10.795732731   12.958137206
    1.851085142    7.717294731   10.808101069   12.980119111
    1.858263773    7.533713323   10.782053825   12.933801305
    1.865442404    7.389770251   10.783849977   12.860173612
    1.872621035    7.378971926   10.821450340   12.847509900
    1.879799666    7.442128460   10.854146451   12.866478699
    1.886978297    7.521261711   10.880821203   12.892454971
    1.894156928    7.598659707   10.928184573   12.938409996
    1.901335559    7.666632075   10.986667714   12.993442700
    1.908514190    7.710144304   11.042987988   13.044066934
    1.915692821    7.716319530   11.092078191   13.084258770
    1.922871452    7.727717690   11.139941829   13.124199642
    1.930050083    7.772228926   11.189956510   13.169802911
    1.937228715    7.827998179   11.234781458   13.211000808
    1.944407346    7.878312801   11.265882048   13.236877872
    1.951585977    7.930245544   11.294636576   13.260195744
    1.958764608    7.996512370   11.336181602   13.298279697
    1.965943239    8.074168688   11.384939796   13.344638194
    1.973121870    8.158671662   11.435442695   13.392967321
    1.980300501    8.239614680   11.486062396   13.441604928
    1.987479132    8.273312233   11.535876956   13.490482457
    1.994657763    8.145433478   11.582886709   13.539880579
    2.001836394    7.854554759   11.627469829   13.590256115
    2.009015025    7.703123679   11.676197503   13.642196607
    2.016193656    7.727030958   11.730307907   13.695286088
    2.023372287    7.796159511   11.787649539   13.746266656
    2.030550918    7.842409830   11.846691701   13.789264812
    2.037729549    7.875070088   11.904180218   13.828702672
    2.044908180    7.918159909   11.946593085   13.862468512
    2.052086811    7.940039570   11.948166024   13.860842880
    2.059265442    7.949552347   11.935259255   13.845951983
    2.066444073    7.988564699   11.963241882   13.872302014
    2.073622705    8.039463811   12.006153963   13.914982324
    2.080801336    8.075637690   12.024020780   13.936001652
    2.087979967    8.107568193   12.037516430   13.953179080
    2.095158598    8.156791637   12.084896086   14.000722630
    2.102337229    8.216137954   12.151564058   14.066079840
    2.109515860    8.277199204   12.219653101   14.134679679
    2.116694491    8.333748620   12.274289838   14.196670406
    2.123873122    8.372559350   12.304890706   14.243188488
    2.131051753    8.369620430   12.331678507   14.274178675
    2.138230384    8.335682083   12.365966483   14.276153068
    2.145409015    8.338181974   12.410500934   14.263370349
    2.152587646    8.380771987   12.471602514   14.291622290
    2.159766277    8.437949951   12.542983293   14.355122513
    2.166944908    8.497933839   12.617935681   14.429918360
    2.174123539    8.557676438   12.694271452   14.507331196
    2.181302170    8.615180017   12.770114007   14.584365544
    2.188480801    8.664241016   12.840306366   14.654357115
    2.195659432    8.694772471   12.903036387   14.698634540
    2.202838063    8.709159649   12.970524751   14.707753033
    2.210016694    8.737386093   13.050636151   14.734756652
    2.217195326    8.787034326   13.132285605   14.799903642
    2.224373957    8.836231427   13.177958483   14.867981370
    2.231552588    8.871503451   13.151394844   14.906116590
    2.238731219    8.912229375   13.124588837   14.928557298
    2.245909850    8.969897459   13.174026570   14.985450663
    2.253088481    9.026755050   13.265313391   15.066893151
    2.260267112    9.053148709   13.340146338   15.126941755
    2.267445743    9.047036791   13.351039828   15.125063016
    2.274624374    9.069821048   13.329510120   15.099252482
    2.281803005    9.126754198   13.367780519   15.131198529
    2.288981636    9.182741872   13.446783270   15.192076971
    2.296160267    9.225139824   13.514254156   15.232195173
    2.303338898    9.280759073   13.571385030   15.264737651
    2.310517529    9.352515146   13.650764960   15.326072949
    2.317696160    9.406992100   13.751636576   15.398494790
    2.324874791    9.386656172   13.851347728   15.415554277
    2.332053422    9.305566744   13.945824292   15.381303499
    2.339232053    9.295160818   14.052643942   15.407676757
    2.346410684    9.356245851   14.172952027   15.495611386
    2.353589316    9.439101262   14.300768332   15.602528929
    2.360767947    9.523916866   14.431661707   15.710467618
    2.367946578    9.603870995   14.554341101   15.808857202
    2.375125209    9.676498642   14.651785904   15.887989172
    2.382303840    9.748826572   14.749023807   15.953214526
    2.389482471    9.826487202   14.882442473   16.012242740
    2.396661102    9.909933692   15.048469929   16.091278393
    2.403839733    9.996693801   15.212493066   16.189727714
    2.411018364   10.078213797   15.271399278   16.259766819
    2.418196995   10.146998636   15.111471491   16.265468718
    2.425375626   10.215986735   14.903847504   16.265282207
    2.432554257   10.294675021   14.795455615   16.296238171
    2.439732888   10.392853313   14.842417862   16.374222540
    2.446911519   10.510081122   15.037672708   16.496450561
    2.454090150   10.620374105   15.275417066   16.621342027
    2.461268781   10.658613581   15.462191336   16.692801427
    2.468447412   10.549618745   15.515768459   16.672372625
    2.475626043   10.440271318   15.541901595   16.667896978
    2.482804674   10.485105610   15.690529946   16.761289127
    2.489983306   10.605579852   15.849965322   16.896851861
    2.497161937   10.702724093   15.743682584   17.009675292
    2.504340568   10.737692059   15.320983304   17.076398730
    2.511519199   10.755930992   15.048565120   17.111372740
    2.518697830   10.729002517   14.972196643   17.049596774
    2.525876461   10.701181882   14.985644720   16.967832082
    2.533055092   10.784071377   15.161132237   17.028136484
    2.540233723   10.926809741   15.415447898   17.173736433
