# energy grid [eV]     epsr_x  epsr_y  epsr_z
#
    0.200000000   10.265992397    7.985329127    6.683726728
    0.207178631   10.267748614    7.986729452    6.684846932
    0.214357262   10.269567490    7.988179797    6.686007172
    0.221535893   10.271449104    7.989680229    6.687207506
    0.228714524   10.273393534    7.991230819    6.688447991
    0.235893155   10.275400863    7.992831639    6.689728689
    0.243071786   10.277471176    7.994482763    6.691049661
    0.250250417   10.279604561    7.996184269    6.692410972
    0.257429048   10.281801108    7.997936235    6.693812688
    0.264607679   10.284060911    7.999738744    6.695254878
    0.271786311   10.286384066    8.001591880    6.696737613
    0.278964942   10.288770671    8.003495730    6.698260966
    0.286143573   10.291220829    8.005450384    6.699825010
    0.293322204   10.293734643    8.007455932    6.701429822
    0.300500835   10.296312222    8.009512469    6.703075482
    0.307679466   10.298953674    8.011620092    6.704762071
    0.314858097   10.301659113    8.013778900    6.706489672
    0.322036728   10.304428655    8.015988995    6.708258369
    0.329215359   10.307262419    8.018250481    6.710068250
    0.336393990   10.310160525    8.020563464    6.711919405
    0.343572621   10.313123098    8.022928055    6.713811926
    0.350751252   10.316150265    8.025344365    6.715745906
    0.357929883   10.319242157    8.027812509    6.717721441
    0.365108514   10.322398907    8.030332604    6.719738630
    0.372287145   10.325620650    8.032904770    6.721797573
    0.379465776   10.328907526    8.035529128    6.723898373
    0.386644407   10.332259677    8.038205805    6.726041134
    0.393823038   10.335677248    8.040934927    6.728225964
    0.401001669   10.339160386    8.043716626    6.730452973
    0.408180301   10.342709244    8.046551035    6.732722272
    0.415358932   10.346323973    8.049438288    6.735033975
    0.422537563   10.350004733    8.052378526    6.737388199
    0.429716194   10.353751683    8.055371888    6.739785063
    0.436894825   10.357564987    8.058418520    6.742224687
    0.444073456   10.361444810    8.061518568    6.744707195
    0.451252087   10.365391323    8.064672181    6.747232713
    0.458430718   10.369404698    8.067879513    6.749801369
    0.465609349   10.373485111    8.071140719    6.752413295
    0.472787980   10.377632742    8.074455957    6.755068623
    0.479966611   10.381847771    8.077825387    6.757767488
    0.487145242   10.386130386    8.081249175    6.760510030
    0.494323873   10.390480774    8.084727487    6.763296388
    0.501502504   10.394899129    8.088260493    6.766126707
    0.508681135   10.399385644    8.091848367    6.769001131
    0.515859766   10.403940520    8.095491283    6.771919809
    0.523038397   10.408563958    8.099189421    6.774882892
    0.530217028   10.413256163    8.102942963    6.777890534
    0.537395659   10.418017345    8.106752094    6.780942890
    0.544574290   10.422847716    8.110617003    6.784040121
    0.551752922   10.427747491    8.114537880    6.787182386
    0.558931553   10.432716889    8.118514920    6.790369851
    0.566110184   10.437756134    8.122548321    6.793602683
    0.573288815   10.442865452    8.126638283    6.796881050
    0.580467446   10.448045072    8.130785012    6.800205127
    0.587646077   10.453295228    8.134988713    6.803575089
    0.594824708   10.458616156    8.139249598    6.806991113
    0.602003339   10.464008099    8.143567881    6.810453380
    0.609181970   10.469471299    8.147943779    6.813962076
    0.616360601   10.475006004    8.152377513    6.817517387
    0.623539232   10.480612468    8.156869307    6.821119502
    0.630717863   10.486290945    8.161419389    6.824768616
    0.637896494   10.492041694    8.166027989    6.828464923
    0.645075125   10.497864979    8.170695342    6.832208623
    0.652253756   10.503761066    8.175421687    6.835999918
    0.659432387   10.509730227    8.180207265    6.839839013
    0.666611018   10.515772736    8.185052322    6.843726117
    0.673789649   10.521888873    8.189957106    6.847661442
    0.680968280   10.528078920    8.194921870    6.851645201
    0.688146912   10.534343163    8.199946870    6.855677614
    0.695325543   10.540681894    8.205032367    6.859758901
    0.702504174   10.547095409    8.210178625    6.863889288
    0.709682805   10.553584005    8.215385910    6.868069002
    0.716861436   10.560147986    8.220654496    6.872298276
    0.724040067   10.566787660    8.225984658    6.876577343
    0.731218698   10.573503339    8.231376674    6.880906442
    0.738397329   10.580295339    8.236830830    6.885285816
    0.745575960   10.587163980    8.242347411    6.889715709
    0.752754591   10.594109587    8.247926711    6.894196372
    0.759933222   10.601132490    8.253569024    6.898728056
    0.767111853   10.608233023    8.259274651    6.903311018
    0.774290484   10.615411522    8.265043895    6.907945520
    0.781469115   10.622668333    8.270877066    6.912631823
    0.788647746   10.630003801    8.276774476    6.917370197
    0.795826377   10.637418279    8.282736443    6.922160913
    0.803005008   10.644912124    8.288763287    6.927004247
    0.810183639   10.652485697    8.294855335    6.931900479
    0.817362270   10.660139365    8.301012917    6.936849891
    0.824540902   10.667873499    8.307236369    6.941852773
    0.831719533   10.675688474    8.313526030    6.946909415
    0.838898164   10.683584673    8.319882244    6.952020114
    0.846076795   10.691562481    8.326305361    6.957185170
    0.853255426   10.699622289    8.332795735    6.962404888
    0.860434057   10.707764494    8.339353724    6.967679576
    0.867612688   10.715989496    8.345979691    6.973009549
    0.874791319   10.724297703    8.352674006    6.978395123
    0.881969950   10.732689525    8.359437043    6.983836621
    0.889148581   10.741165381    8.366269179    6.989334371
    0.896327212   10.749725693    8.373170798    6.994888703
    0.903505843   10.758370889    8.380142290    7.000499954
    0.910684474   10.767101403    8.387184049    7.006168466
    0.917863105   10.775917673    8.394296475    7.011894583
    0.925041736   10.784820144    8.401479972    7.017678656
    0.932220367   10.793809267    8.408734951    7.023521043
    0.939398998   10.802885498    8.416061828    7.029422102
    0.946577629   10.812049299    8.423461025    7.035382201
    0.953756260   10.821301138    8.430932969    7.041401710
    0.960934891   10.830641489    8.438478093    7.047481006
    0.968113523   10.840070832    8.446096836    7.053620470
    0.975292154   10.849589652    8.453789642    7.059820490
    0.982470785   10.859198443    8.461556963    7.066081458
    0.989649416   10.868897702    8.469399256    7.072403772
    0.996828047   10.878687934    8.477316983    7.078787837
    1.004006678   10.888569651    8.485310613    7.085234061
    1.011185309   10.898543370    8.493380623    7.091742861
    1.018363940   10.908609615    8.501527493    7.098314657
    1.025542571   10.918768918    8.509751713    7.104949878
    1.032721202   10.929021816    8.518053778    7.111648955
    1.039899833   10.939368852    8.526434188    7.118412330
    1.047078464   10.949810580    8.534893453    7.125240448
    1.054257095   10.960347556    8.543432087    7.132133761
    1.061435726   10.970980346    8.552050613    7.139092727
    1.068614357   10.981709523    8.560749560    7.146117813
    1.075792988   10.992535665    8.569529464    7.153209490
    1.082971619   11.003459361    8.578390869    7.160368236
    1.090150250   11.014481205    8.587334325    7.167594539
    1.097328881   11.025601799    8.596360391    7.174888889
    1.104507513   11.036821751    8.605469633    7.182251787
    1.111686144   11.048141680    8.614662625    7.189683741
    1.118864775   11.059562211    8.623939947    7.197185263
    1.126043406   11.071083976    8.633302189    7.204756876
    1.133222037   11.082707616    8.642749948    7.212399110
    1.140400668   11.094433782    8.652283830    7.220112501
    1.147579299   11.106263129    8.661904447    7.227897594
    1.154757930   11.118196325    8.671612422    7.235754942
    1.161936561   11.130234042    8.681408385    7.243685106
    1.169115192   11.142376964    8.691292976    7.251688656
    1.176293823   11.154625783    8.701266841    7.259766167
    1.183472454   11.166981197    8.711330638    7.267918228
    1.190651085   11.179443918    8.721485031    7.276145432
    1.197829716   11.192014662    8.731730697    7.284448382
    1.205008347   11.204694157    8.742068319    7.292827692
    1.212186978   11.217483140    8.752498590    7.301283983
    1.219365609   11.230382356    8.763022214    7.309817885
    1.226544240   11.243392562    8.773639903    7.318430039
    1.233722871   11.256514523    8.784352380    7.327121094
    1.240901503   11.269749014    8.795160377    7.335891711
    1.248080134   11.283096820    8.806064638    7.344742558
    1.255258765   11.296558736    8.817065916    7.353674315
    1.262437396   11.310135568    8.828164974    7.362687673
    1.269616027   11.323828131    8.839362587    7.371783331
    1.276794658   11.337637252    8.850659541    7.380962001
    1.283973289   11.351563768    8.862056632    7.390224405
    1.291151920   11.365608528    8.873554666    7.399571275
    1.298330551   11.379772389    8.885154464    7.409003355
    1.305509182   11.394056222    8.896856856    7.418521402
    1.312687813   11.408460909    8.908662684    7.428126184
    1.319866444   11.422987343    8.920572803    7.437818478
    1.327045075   11.437636428    8.932588079    7.447599078
    1.334223706   11.452409081    8.944709391    7.457468786
    1.341402337   11.467306231    8.956937631    7.467428419
    1.348580968   11.482328818    8.969273702    7.477478808
    1.355759599   11.497477795    8.981718522    7.487620794
    1.362938230   11.512754129    8.994273023    7.497855234
    1.370116861   11.528158799    9.006938147    7.508182997
    1.377295492   11.543692794    9.019714853    7.518604968
    1.384474124   11.559357122    9.032604112    7.529122044
    1.391652755   11.575152798    9.045606910    7.539735130
    1.398831386   11.591080851    9.058724247    7.550445130
    1.406010017   11.607142318    9.071957137    7.561252913
    1.413188648   11.623338253    9.085306609    7.572159402
    1.420367279   11.639669757    9.098773711    7.583165762
    1.427545910   11.656137924    9.112359506    7.594273048
    1.434724541   11.672743849    9.126065068    7.605482181
    1.441903172   11.689488642    9.139891490    7.616794141
    1.449081803   11.706373436    9.153839879    7.628209954
    1.456260434   11.723399379    9.167911362    7.639730675
    1.463439065   11.740567635    9.182107080    7.651357376
    1.470617696   11.757879384    9.196428194    7.663091147
    1.477796327   11.775335822    9.210875880    7.674933100
    1.484974958   11.792938163    9.225451335    7.686884361
    1.492153589   11.810687635    9.240155769    7.698946077
    1.499332220   11.828585485    9.254990414    7.711119415
    1.506510851   11.846632977    9.269956512    7.723405558
    1.513689482   11.864831391    9.285055326    7.735805714
    1.520868114   11.883182027    9.300288168    7.748321112
    1.528046745   11.901686203    9.315656359    7.760953002
    1.535225376   11.920345253    9.331161220    7.773702655
    1.542404007   11.939160533    9.346804096    7.786571360
    1.549582638   11.958133415    9.362586357    7.799560434
    1.556761269   11.977265294    9.378509396    7.812671214
    1.563939900   11.996557581    9.394574631    7.825905062
    1.571118531   12.016011711    9.410783498    7.839263365
    1.578297162   12.035629136    9.427137460    7.852747535
    1.585475793   12.055411330    9.443638001    7.866359007
    1.592654424   12.075359790    9.460286629    7.880099245
    1.599833055   12.095476032    9.477084877    7.893969738
    1.607011686   12.115761596    9.494034302    7.907972001
    1.614190317   12.136218042    9.511136488    7.922107580
    1.621368948   12.156846955    9.528393043    7.936378047
    1.628547579   12.177649943    9.545805601    7.950785004
    1.635726210   12.198628636    9.563375826    7.965330082
    1.642904841   12.219784690    9.581105406    7.980014944
    1.650083472   12.241119783    9.598996058    7.994841284
    1.657262104   12.262635621    9.617049529    8.009810827
    1.664440735   12.284333933    9.635267595    8.024925332
    1.671619366   12.306216474    9.653652059    8.040186591
    1.678797997   12.328285028    9.672204758    8.055596431
    1.685976628   12.350541402    9.690927558    8.071156713
    1.693155259   12.372987433    9.709822358    8.086869336
    1.700333890   12.395624985    9.728891089    8.102736236
    1.707512521   12.418455951    9.748135716    8.118759386
    1.714691152   12.441482251    9.767558235    8.134940797
    1.721869783   12.464705838    9.787160681    8.151282524
    1.729048414   12.488128692    9.806945121    8.167786660
    1.736227045   12.511752824    9.826913661    8.184455339
    1.743405676   12.535580279    9.847068441    8.201290743
    1.750584307   12.559613130    9.867411641    8.218295092
    1.757762938   12.583853486    9.887945480    8.235470658
    1.764941569   12.608303486    9.908672214    8.252819755
    1.772120200   12.632965307    9.929594144    8.270344747
    1.779298831   12.657841156    9.950713607    8.288048047
    1.786477462   12.682933278    9.972032988    8.305932119
    1.793656093   12.708243954    9.993554710    8.323999479
    1.800834725   12.733775501   10.015281246    8.342252695
    1.808013356   12.759530270   10.037215108    8.360694393
    1.815191987   12.785510650   10.059358856    8.379327251
    1.822370618   12.811719070   10.081715097    8.398154010
    1.829549249   12.838158014   10.104286500    8.417177467
    1.836727880   12.864830001   10.127075775    8.436400482
    1.843906511   12.891737579   10.150085681    8.455825980
    1.851085142   12.918883341   10.173319026    8.475456946
    1.858263773   12.946269926   10.196778677    8.495296438
    1.865442404   12.973900019   10.220467555    8.515347577
    1.872621035   13.001776349   10.244388637    8.535613560
    1.879799666   13.029901691   10.268544959    8.556097654
    1.886978297   13.058278869   10.292939616    8.576803197
    1.894156928   13.086910749   10.317575760    8.597733594
    1.901335559   13.115800243   10.342456600    8.618892304
    1.908514190   13.144950319   10.367585415    8.640282898
    1.915692821   13.174364028   10.392965572    8.661909151
    1.922871452   13.204044452   10.418600501    8.683774845
    1.930050083   13.233994712   10.444493675    8.705883781
    1.937228715   13.264217987   10.470648645    8.728239873
    1.944407346   13.294717518   10.497069036    8.750847147
    1.951585977   13.325496605   10.523758550    8.773709732
    1.958764608   13.356558603   10.550720960    8.796831852
    1.965943239   13.387906919   10.577960110    8.820217819
    1.973121870   13.419545035   10.605479935    8.843872076
    1.980300501   13.451476529   10.633284503    8.867799252
    1.987479132   13.483705018   10.661377930    8.892004039
    1.994657763   13.516234170   10.689764397    8.916491204
    2.001836394   13.549067724   10.718448183    8.941265653
    2.009015025   13.582209497   10.747433665    8.966332433
    2.016193656   13.615663378   10.776725319    8.991696723
    2.023372287   13.649433329   10.806327720    9.017363841
    2.030550918   13.683523388   10.836245541    9.043339247
    2.037729549   13.717937662   10.866483558    9.069628549
    2.044908180   13.752680338   10.897046652    9.096237503
    2.052086811   13.787755716   10.927939835    9.123172030
    2.059265442   13.823168174   10.959168227    9.150438209
    2.066444073   13.858922149   10.990737050    9.178042290
    2.073622705   13.895022166   11.022651638    9.205990696
    2.080801336   13.931472837   11.054917439    9.234290034
    2.087979967   13.968278877   11.087540040    9.262947099
    2.095158598   14.005445131   11.120525243    9.291968881
    2.102337229   14.042976525   11.153878945    9.321362577
    2.109515860   14.080878060   11.187607126    9.351135590
    2.116694491   14.119154849   11.221715926    9.381295544
    2.123873122   14.157812115   11.256211646    9.411850293
    2.131051753   14.196855195   11.291100745    9.442807923
    2.138230384   14.236289536   11.326389841    9.474176769
    2.145409015   14.276120704   11.362085718    9.505965423
    2.152587646   14.316354385   11.398195331    9.538182740
    2.159766277   14.356996385   11.434725807    9.570837855
    2.166944908   14.398052641   11.471684459    9.603940189
    2.174123539   14.439529219   11.509078785    9.637499466
    2.181302170   14.481432320   11.546916479    9.671525721
    2.188480801   14.523768284   11.585205433    9.706029316
    2.195659432   14.566543594   11.623953749    9.741020954
    2.202838063   14.609764882   11.663169745    9.776511694
    2.210016694   14.653438931   11.702861961    9.812512963
    2.217195326   14.697572683   11.743039166    9.849036578
    2.224373957   14.742173242   11.783710371    9.886094757
    2.231552588   14.787247878   11.824884832    9.923700144
    2.238731219   14.832804039   11.866572062    9.961865824
    2.245909850   14.878849347   11.908781837   10.000605341
    2.253088481   14.925391611   11.951524198   10.039932728
    2.260267112   14.972438831   11.994809472   10.079862519
    2.267445743   15.019999212   12.038648343   10.120409783
    2.274624374   15.068081162   12.083051790   10.161590144
    2.281803005   15.116693298   12.128031064   10.203419808
    2.288981636   15.165844456   12.173597757   10.245915593
    2.296160267   15.215543704   12.219763819   10.289094959
    2.303338898   15.265800346   12.266541562   10.332976040
    2.310517529   15.316623930   12.313943675   10.377577672
    2.317696160   15.368024261   12.361983236   10.422919435
    2.324874791   15.420011401   12.410673724   10.469021698
    2.332053422   15.472595671   12.460029026   10.515905606
    2.339232053   15.525787677   12.510063461   10.563593159
    2.346410684   15.579598404   12.560791909   10.612107484
    2.353589316   15.634039136   12.612229732   10.661472655
    2.360767947   15.689121403   12.664392683   10.711713581
    2.367946578   15.744857084   12.717296989   10.762856252
    2.375125209   15.801258417   12.770959280   10.814927827
    2.382303840   15.858338010   12.825396650   10.867956686
    2.389482471   15.916108850   12.880627641   10.921972501
    2.396661102   15.974584328   12.936671630   10.977006303
    2.403839733   16.033778245   12.993547670   11.033090529
    2.411018364   16.093704840   13.051275483   11.090259133
    2.418196995   16.154378805   13.109875703   11.148547681
    2.425375626   16.215815307   13.169369777   11.207993446
    2.432554257   16.278030002   13.229779938   11.268635489
    2.439732888   16.341039046   13.291129184   11.330514715
    2.446911519   16.404859135   13.353441364   11.393674030
    2.454090150   16.469507674   13.416741570   11.458159005
    2.461268781   16.535002681   13.481055847   11.524017671
    2.468447412   16.601362675   13.546410855   11.591300019
    2.475626043   16.668606852   13.612834343   11.660058713
    2.482804674   16.736755122   13.680355521   11.730349389
    2.489983306   16.805828096   13.749004730   11.802230789
    2.497161937   16.875847152   13.818813336   11.875764955
    2.504340568   16.946834756   13.889814089   11.951017456
    2.511519199   17.018814123   13.962041163   12.028057636
    2.518697830   17.091809366   14.035530214   12.106958915
    2.525876461   17.165845941   14.110318493   12.187799022
    2.533055092   17.240949956   14.186444800   12.270659730
    2.540233723   17.317148461   14.263949563   12.355626923
