# energy grid [eV]     ieps_x  ieps_y  ieps_z
#
    0.200000000   14.821229211   11.988427304   14.761946026
    0.207178631   14.815983148   11.983586244   14.756666903
    0.214357262   14.810565998   11.978595106   14.751216733
    0.221535893   14.804979014   11.973455709   14.745596863
    0.228714524   14.799223465   11.968169886   14.739808656
    0.235893155   14.793300631   11.962739485   14.733853488
    0.243071786   14.787211807   11.957166362   14.727732744
    0.250250417   14.780958295   11.951452377   14.721447817
    0.257429048   14.774541405   11.945599400   14.715000106
    0.264607679   14.767962456   11.939609296   14.708391018
    0.271786311   14.761222770   11.933483932   14.701621959
    0.278964942   14.754323672   11.927225173   14.694694339
    0.286143573   14.747266493   11.920834876   14.687609568
    0.293322204   14.740052561   11.914314891   14.680369052
    0.300500835   14.732683206   11.907667058   14.672974199
    0.307679466   14.725159755   11.900893207   14.665426408
    0.314858097   14.717483536   11.893995153   14.657727076
    0.322036728   14.709655869   11.886974698   14.649877593
    0.329215359   14.701678073   11.879833627   14.641879342
    0.336393990   14.693551461   11.872573706   14.633733698
    0.343572621   14.685277340   11.865196684   14.625442027
    0.350751252   14.676857009   11.857704290   14.617005686
    0.357929883   14.668291761   11.850098231   14.608426020
    0.365108514   14.659582882   11.842380194   14.599704365
    0.372287145   14.650731647   11.834551840   14.590842046
    0.379465776   14.641739323   11.826614810   14.581840373
    0.386644407   14.632607170   11.818570719   14.572700647
    0.393823038   14.623336434   11.810421158   14.563424154
    0.401001669   14.613928354   11.802167693   14.554012170
    0.408180301   14.604384157   11.793811863   14.544465954
    0.415358932   14.594705061   11.785355184   14.534786756
    0.422537563   14.584892271   11.776799143   14.524975808
    0.429716194   14.574946983   11.768145204   14.515034332
    0.436894825   14.564870381   11.759394803   14.504963535
    0.444073456   14.554663638   11.750549349   14.494764609
    0.451252087   14.544327915   11.741610225   14.484438735
    0.458430718   14.533864364   11.732578790   14.473987080
    0.465609349   14.523274124   11.723456374   14.463410795
    0.472787980   14.512558324   11.714244282   14.452711020
    0.479966611   14.501718079   11.704943794   14.441888881
    0.487145242   14.490754498   11.695556164   14.430945491
    0.494323873   14.479668675   11.686082621   14.419881951
    0.501502504   14.468461694   11.676524367   14.408699348
    0.508681135   14.457134630   11.666882582   14.397398757
    0.515859766   14.445688546   11.657158422   14.385981241
    0.523038397   14.434124496   11.647353016   14.374447850
    0.530217028   14.422443522   11.637467472   14.362799624
    0.537395659   14.410646658   11.627502874   14.351037590
    0.544574290   14.398734927   11.617460284   14.339162765
    0.551752922   14.386709344   11.607340742   14.327176154
    0.558931553   14.374570912   11.597145264   14.315078751
    0.566110184   14.362320628   11.586874848   14.302871542
    0.573288815   14.349959477   11.576530469   14.290555501
    0.580467446   14.337488439   11.566113083   14.278131591
    0.587646077   14.324908481   11.555623624   14.265600768
    0.594824708   14.312220567   11.545063009   14.252963979
    0.602003339   14.299425649   11.534432135   14.240222159
    0.609181970   14.286524672   11.523731881   14.227376237
    0.616360601   14.273518575   11.512963108   14.214427133
    0.623539232   14.260408289   11.502126660   14.201375759
    0.630717863   14.247194737   11.491223364   14.188223019
    0.637896494   14.233878835   11.480254030   14.174969808
    0.645075125   14.220461495   11.469219453   14.161617017
    0.652253756   14.206943619   11.458120411   14.148165528
    0.659432387   14.193326105   11.446957670   14.134616215
    0.666611018   14.179609844   11.435731979   14.120969948
    0.673789649   14.165795721   11.424444073   14.107227589
    0.680968280   14.151884618   11.413094676   14.093389995
    0.688146912   14.137877407   11.401684495   14.079458016
    0.695325543   14.123774958   11.390214227   14.065432499
    0.702504174   14.109578134   11.378684557   14.051314282
    0.709682805   14.095287796   11.367096157   14.037104200
    0.716861436   14.080904797   11.355449687   14.022803082
    0.724040067   14.066429986   11.343745798   14.008411755
    0.731218698   14.051864210   11.331985129   13.993931037
    0.738397329   14.037208309   11.320168309   13.979361745
    0.745575960   14.022463119   11.308295957   13.964704691
    0.752754591   14.007629473   11.296368683   13.949960682
    0.759933222   13.992708201   11.284387087   13.935130522
    0.767111853   13.977700127   11.272351762   13.920215010
    0.774290484   13.962606072   11.260263290   13.905214943
    0.781469115   13.947426856   11.248122247   13.890131114
    0.788647746   13.932163291   11.235929200   13.874964313
    0.795826377   13.916816191   11.223684710   13.859715324
    0.803005008   13.901386362   11.211389328   13.844384933
    0.810183639   13.885874609   11.199043601   13.828973919
    0.817362270   13.870281736   11.186648068   13.813483058
    0.824540902   13.854608539   11.174203261   13.797913127
    0.831719533   13.838855817   11.161709708   13.782264896
    0.838898164   13.823024363   11.149167929   13.766539135
    0.846076795   13.807114966   11.136578439   13.750736610
    0.853255426   13.791128416   11.123941749   13.734858086
    0.860434057   13.775065498   11.111258362   13.718904325
    0.867612688   13.758926995   11.098528779   13.702876086
    0.874791319   13.742713688   11.085753494   13.686774126
    0.881969950   13.726426355   11.072932999   13.670599202
    0.889148581   13.710065773   11.060067778   13.654352066
    0.896327212   13.693632714   11.047158316   13.638033468
    0.903505843   13.677127951   11.034205088   13.621644159
    0.910684474   13.660552252   11.021208570   13.605184885
    0.917863105   13.643906384   11.008169231   13.588656391
    0.925041736   13.627191114   10.995087540   13.572059421
    0.932220367   13.610407202   10.981963960   13.555394716
    0.939398998   13.593555411   10.968798951   13.538663014
    0.946577629   13.576636498   10.955592972   13.521865055
    0.953756260   13.559651219   10.942346475   13.505001573
    0.960934891   13.542600331   10.929059914   13.488073303
    0.968113523   13.525484584   10.915733738   13.471080977
    0.975292154   13.508304730   10.902368392   13.454025326
    0.982470785   13.491061516   10.888964321   13.436907077
    0.989649416   13.473755690   10.875521967   13.419726959
    0.996828047   13.456387995   10.862041768   13.402485697
    1.004006678   13.438959173   10.848524163   13.385184013
    1.011185309   13.421469967   10.834969586   13.367822630
    1.018363940   13.403921112   10.821378470   13.350402268
    1.025542571   13.386313347   10.807751247   13.332923645
    1.032721202   13.368647405   10.794088346   13.315387477
    1.039899833   13.350924019   10.780390194   13.297794479
    1.047078464   13.333143919   10.766657217   13.280145365
    1.054257095   13.315307833   10.752889839   13.262440845
    1.061435726   13.297416487   10.739088483   13.244681628
    1.068614357   13.279470606   10.725253570   13.226868423
    1.075792988   13.261470911   10.711385519   13.209001935
    1.082971619   13.243418123   10.697484747   13.191082868
    1.090150250   13.225312959   10.683551672   13.173111923
    1.097328881   13.207156135   10.669586709   13.155089801
    1.104507513   13.188948365   10.655590271   13.137017200
    1.111686144   13.170690360   10.641562770   13.118894817
    1.118864775   13.152382829   10.627504619   13.100723345
    1.126043406   13.134026479   10.613416227   13.082503477
    1.133222037   13.115622015   10.599298002   13.064235903
    1.140400668   13.097170140   10.585150353   13.045921312
    1.147579299   13.078671554   10.570973685   13.027560390
    1.154757930   13.060126955   10.556768403   13.009153821
    1.161936561   13.041537037   10.542534912   12.990702287
    1.169115192   13.022902496   10.528273615   12.972206469
    1.176293823   13.004224022   10.513984913   12.953667043
    1.183472454   12.985502303   10.499669206   12.935084686
    1.190651085   12.966738025   10.485326895   12.916460071
    1.197829716   12.947931872   10.470958378   12.897793870
    1.205008347   12.929084526   10.456564052   12.879086750
    1.212186978   12.910196665   10.442144314   12.860339380
    1.219365609   12.891268966   10.427699558   12.841552423
    1.226544240   12.872302102   10.413230179   12.822726541
    1.233722871   12.853296744   10.398736570   12.803862394
    1.240901503   12.834253562   10.384219123   12.784960639
    1.248080134   12.815173220   10.369678229   12.766021931
    1.255258765   12.796056382   10.355114277   12.747046922
    1.262437396   12.776903710   10.340527657   12.728036263
    1.269616027   12.757715860   10.325918756   12.708990600
    1.276794658   12.738493489   10.311287960   12.689910579
    1.283973289   12.719237249   10.296635655   12.670796841
    1.291151920   12.699947789   10.281962227   12.651650027
    1.298330551   12.680625757   10.267268056   12.632470773
    1.305509182   12.661271796   10.252553527   12.613259714
    1.312687813   12.641886548   10.237819020   12.594017481
    1.319866444   12.622470653   10.223064914   12.574744704
    1.327045075   12.603024744   10.208291589   12.555442009
    1.334223706   12.583549455   10.193499422   12.536110019
    1.341402337   12.564045416   10.178688790   12.516749356
    1.348580968   12.544513254   10.163860067   12.497360636
    1.355759599   12.524953591   10.149013628   12.477944477
    1.362938230   12.505367051   10.134149846   12.458501489
    1.370116861   12.485754249   10.119269092   12.439032282
    1.377295492   12.466115801   10.104371736   12.419537463
    1.384474124   12.446452319   10.089458148   12.400017635
    1.391652755   12.426764412   10.074528695   12.380473399
    1.398831386   12.407052684   10.059583745   12.360905353
    1.406010017   12.387317739   10.044623662   12.341314092
    1.413188648   12.367560176   10.029648810   12.321700207
    1.420367279   12.347780591   10.014659553   12.302064287
    1.427545910   12.327979577    9.999656250   12.282406918
    1.434724541   12.308157724    9.984639264   12.262728682
    1.441903172   12.288315618    9.969608951   12.243030159
    1.449081803   12.268453844    9.954565670   12.223311926
    1.456260434   12.248572980    9.939509776   12.203574555
    1.463439065   12.228673605    9.924441623   12.183818617
    1.470617696   12.208756291    9.909361566   12.164044678
    1.477796327   12.188821609    9.894269955   12.144253303
    1.484974958   12.168870126    9.879167141   12.124445053
    1.492153589   12.148902406    9.864053472   12.104620484
    1.499332220   12.128919009    9.848929297   12.084780151
    1.506510851   12.108920492    9.833794959   12.064924605
    1.513689482   12.088907410    9.818650805   12.045054393
    1.520868114   12.068880311    9.803497176   12.025170061
    1.528046745   12.048839744    9.788334414   12.005272148
    1.535225376   12.028786251    9.773162859   11.985361194
    1.542404007   12.008720373    9.757982849   11.965437733
    1.549582638   11.988642647    9.742794720   11.945502295
    1.556761269   11.968553606    9.727598808   11.925555410
    1.563939900   11.948453780    9.712395445   11.905597601
    1.571118531   11.928343695    9.697184964   11.885629390
    1.578297162   11.908223875    9.681967696   11.865651294
    1.585475793   11.888094838    9.666743967   11.845663829
    1.592654424   11.867957101    9.651514106   11.825667505
    1.599833055   11.847811177    9.636278438   11.805662831
    1.607011686   11.827657574    9.621037286   11.785650310
    1.614190317   11.807496799    9.605790973   11.765630443
    1.621368948   11.787329353    9.590539818   11.745603728
    1.628547579   11.767155735    9.575284140   11.725570660
    1.635726210   11.746976440    9.560024256   11.705531728
    1.642904841   11.726791960    9.544760482   11.685487421
    1.650083472   11.706602784    9.529493130   11.665438221
    1.657262104   11.686409394    9.514222512   11.645384611
    1.664440735   11.666212273    9.498948938   11.625327065
    1.671619366   11.646011899    9.483672717   11.605266059
    1.678797997   11.625808745    9.468394154   11.585202062
    1.685976628   11.605603281    9.453113555   11.565135540
    1.693155259   11.585395976    9.437831221   11.545066958
    1.700333890   11.565187291    9.422547455   11.524996774
    1.707512521   11.544977688    9.407262556   11.504925445
    1.714691152   11.524767622    9.391976820   11.484853424
    1.721869783   11.504557547    9.376690544   11.464781160
    1.729048414   11.484347911    9.361404021   11.444709099
    1.736227045   11.464139161    9.346117544   11.424637683
    1.743405676   11.443931739    9.330831402   11.404567351
    1.750584307   11.423726084    9.315545883   11.384498540
    1.757762938   11.403522630    9.300261275   11.364431680
    1.764941569   11.383321810    9.284977862   11.344367201
    1.772120200   11.363124052    9.269695926   11.324305527
    1.779298831   11.342929780    9.254415748   11.304247081
    1.786477462   11.322739416    9.239137608   11.284192280
    1.793656093   11.302553378    9.223861782   11.264141539
    1.800834725   11.282372079    9.208588546   11.244095270
    1.808013356   11.262195930    9.193318173   11.224053881
    1.815191987   11.242025339    9.178050934   11.204017775
    1.822370618   11.221860708    9.162787100   11.183987354
    1.829549249   11.201702439    9.147526937   11.163963016
    1.836727880   11.181550927    9.132270711   11.143945155
    1.843906511   11.161406567    9.117018687   11.123934161
    1.851085142   11.141269748    9.101771126   11.103930421
    1.858263773   11.121140856    9.086528289   11.083934321
    1.865442404   11.101020275    9.071290433   11.063946239
    1.872621035   11.080908382    9.056057815   11.043966554
    1.879799666   11.060805556    9.040830688   11.023995639
    1.886978297   11.040712167    9.025609307   11.004033864
    1.894156928   11.020628586    9.010393920   10.984081597
    1.901335559   11.000555178    8.995184776   10.964139201
    1.908514190   10.980492305    8.979982123   10.944207036
    1.915692821   10.960440326    8.964786205   10.924285460
    1.922871452   10.940399597    8.949597264   10.904374825
    1.930050083   10.920370470    8.934415541   10.884475482
    1.937228715   10.900353294    8.919241276   10.864587778
    1.944407346   10.880348414    8.904074706   10.844712057
    1.951585977   10.860356172    8.888916065   10.824848659
    1.958764608   10.840376906    8.873765587   10.804997920
    1.965943239   10.820410954    8.858623503   10.785160176
    1.973121870   10.800458645    8.843490043   10.765335755
    1.980300501   10.780520310    8.828365433   10.745524986
    1.987479132   10.760596274    8.813249900   10.725728192
    1.994657763   10.740686859    8.798143666   10.705945693
    2.001836394   10.720792384    8.783046954   10.686177809
    2.009015025   10.700913164    8.767959984   10.666424852
    2.016193656   10.681049513    8.752882973   10.646687133
    2.023372287   10.661201739    8.737816138   10.626964962
    2.030550918   10.641370148    8.722759691   10.607258641
    2.037729549   10.621555043    8.707713847   10.587568473
    2.044908180   10.601756724    8.692678814   10.567894756
    2.052086811   10.581975487    8.677654801   10.548237786
    2.059265442   10.562211626    8.662642015   10.528597854
    2.066444073   10.542465430    8.647640660   10.508975249
    2.073622705   10.522737186    8.632650939   10.489370257
    2.080801336   10.503027179    8.617673053   10.469783161
    2.087979967   10.483335688    8.602707201   10.450214240
    2.095158598   10.463662992    8.587753580   10.430663772
    2.102337229   10.444009365    8.572812384   10.411132029
    2.109515860   10.424375079    8.557883808   10.391619282
    2.116694491   10.404760401    8.542968043   10.372125798
    2.123873122   10.385165597    8.528065279   10.352651843
    2.131051753   10.365590929    8.513175702   10.333197677
    2.138230384   10.346036658    8.498299500   10.313763559
    2.145409015   10.326503038    8.483436857   10.294349744
    2.152587646   10.306990324    8.468587954   10.274956485
    2.159766277   10.287498765    8.453752972   10.255584032
    2.166944908   10.268028609    8.438932089   10.236232631
    2.174123539   10.248580100    8.424125484   10.216902525
    2.181302170   10.229153481    8.409333329   10.197593957
    2.188480801   10.209748989    8.394555799   10.178307163
    2.195659432   10.190366860    8.379793066   10.159042379
    2.202838063   10.171007327    8.365045297   10.139799838
    2.210016694   10.151670620    8.350312663   10.120579768
    2.217195326   10.132356966    8.335595327   10.101382396
    2.224373957   10.113066589    8.320893455   10.082207946
    2.231552588   10.093799711    8.306207210   10.063056639
    2.238731219   10.074556551    8.291536751   10.043928694
    2.245909850   10.055337324    8.276882237   10.024824325
    2.253088481   10.036142244    8.262243827   10.005743746
    2.260267112   10.016971520    8.247621675    9.986687166
    2.267445743    9.997825361    8.233015936    9.967654793
    2.274624374    9.978703971    8.218426760    9.948646831
    2.281803005    9.959607553    8.203854299    9.929663483
    2.288981636    9.940536305    8.189298700    9.910704947
    2.296160267    9.921490426    8.174760112    9.891771421
    2.303338898    9.902470109    8.160238678    9.872863097
    2.310517529    9.883475546    8.145734543    9.853980168
    2.317696160    9.864506925    8.131247848    9.835122823
    2.324874791    9.845564434    8.116778733    9.816291247
    2.332053422    9.826648255    8.102327337    9.797485624
    2.339232053    9.807758570    8.087893797    9.778706136
    2.346410684    9.788895558    8.073478247    9.759952960
    2.353589316    9.770059394    8.059080822    9.741226274
    2.360767947    9.751250252    8.044701652    9.722526249
    2.367946578    9.732468304    8.030340868    9.703853058
    2.375125209    9.713713718    8.015998600    9.685206869
    2.382303840    9.694986660    8.001674973    9.666587848
    2.389482471    9.676287293    7.987370113    9.647996159
    2.396661102    9.657615780    7.973084144    9.629431963
    2.403839733    9.638972278    7.958817188    9.610895420
    2.411018364    9.620356944    7.944569366    9.592386684
    2.418196995    9.601769932    7.930340797    9.573905911
    2.425375626    9.583211394    7.916131598    9.555453253
    2.432554257    9.564681480    7.901941885    9.537028858
    2.439732888    9.546180335    7.887771772    9.518632875
    2.446911519    9.527708105    7.873621373    9.500265447
    2.454090150    9.509264932    7.859490799    9.481926717
    2.461268781    9.490850956    7.845380159    9.463616826
    2.468447412    9.472466315    7.831289563    9.445335912
    2.475626043    9.454111144    7.817219115    9.427084110
    2.482804674    9.435785577    7.803168923    9.408861553
    2.489983306    9.417489745    7.789139089    9.390668375
    2.497161937    9.399223776    7.775129716    9.372504702
    2.504340568    9.380987798    7.761140906    9.354370663
    2.511519199    9.362781934    7.747172756    9.336266382
    2.518697830    9.344606308    7.733225366    9.318191982
    2.525876461    9.326461040    7.719298831    9.300147584
    2.533055092    9.308346247    7.705393248    9.282133306
    2.540233723    9.290262045    7.691508709    9.264149264
