# energy grid [eV]     ieps_x  ieps_y  ieps_z
#
    0.200000000   14.852745594   12.567515081   14.716173234
    0.207178631   14.847244061   12.562494143   14.710496694
    0.214357262   14.841566686   12.557317189   14.704641751
    0.221535893   14.835715047   12.551986051   14.698610262
    0.228714524   14.829690730   12.546502575   14.692404091
    0.235893155   14.823495331   12.540868617   14.686025104
    0.243071786   14.817130453   12.535086038   14.679475172
    0.250250417   14.810597699   12.529156705   14.672756162
    0.257429048   14.803898676   12.523082485   14.665869937
    0.264607679   14.797034990   12.516865244   14.658818355
    0.271786311   14.790008244   12.510506844   14.651603264
    0.278964942   14.782820036   12.504009141   14.644226502
    0.286143573   14.775471961   12.497373985   14.636689894
    0.293322204   14.767965603   12.490603213   14.628995251
    0.300500835   14.760302540   12.483698652   14.621144368
    0.307679466   14.752484338   12.476662115   14.613139021
    0.314858097   14.744512553   12.469495400   14.604980969
    0.322036728   14.736388728   12.462200289   14.596671950
    0.329215359   14.728114394   12.454778544   14.588213682
    0.336393990   14.719691066   12.447231910   14.579607861
    0.343572621   14.711120246   12.439562111   14.570856160
    0.350751252   14.702403419   12.431770850   14.561960229
    0.357929883   14.693542056   12.423859809   14.552921696
    0.365108514   14.684537610   12.415830644   14.543742161
    0.372287145   14.675391518   12.407684992   14.534423205
    0.379465776   14.666105200   12.399424462   14.524966380
    0.386644407   14.656680057   12.391050641   14.515373217
    0.393823038   14.647117475   12.382565090   14.505645219
    0.401001669   14.637418820   12.373969345   14.495783866
    0.408180301   14.627585441   12.365264917   14.485790613
    0.415358932   14.617618671   12.356453290   14.475666893
    0.422537563   14.607519822   12.347535925   14.465414111
    0.429716194   14.597290191   12.338514255   14.455033650
    0.436894825   14.586931057   12.329389688   14.444526870
    0.444073456   14.576443681   12.320163606   14.433895107
    0.451252087   14.565829307   12.310837366   14.423139674
    0.458430718   14.555089163   12.301412299   14.412261861
    0.465609349   14.544224459   12.291889712   14.401262939
    0.472787980   14.533236389   12.282270885   14.390144154
    0.479966611   14.522126131   12.272557077   14.378906732
    0.487145242   14.510894848   12.262749519   14.367551879
    0.494323873   14.499543686   12.252849421   14.356080781
    0.501502504   14.488073777   12.242857966   14.344494605
    0.508681135   14.476486239   12.232776318   14.332794497
    0.515859766   14.464782172   12.222605615   14.320981587
    0.523038397   14.452962666   12.212346974   14.309056985
    0.530217028   14.441028795   12.202001490   14.297021785
    0.537395659   14.428981621   12.191570237   14.284877065
    0.544574290   14.416822192   12.181054266   14.272623885
    0.551752922   14.404551544   12.170454611   14.260263289
    0.558931553   14.392170699   12.159772283   14.247796309
    0.566110184   14.379680671   12.149008274   14.235223958
    0.573288815   14.367082458   12.138163559   14.222547239
    0.580467446   14.354377051   12.127239092   14.209767138
    0.587646077   14.341565428   12.116235809   14.196884630
    0.594824708   14.328648556   12.105154632   14.183900677
    0.602003339   14.315627394   12.093996461   14.170816228
    0.609181970   14.302502890   12.082762183   14.157632221
    0.616360601   14.289275983   12.071452668   14.144349582
    0.623539232   14.275947603   12.060068769   14.130969228
    0.630717863   14.262518672   12.048611326   14.117492064
    0.637896494   14.248990102   12.037081162   14.103918986
    0.645075125   14.235362797   12.025479090   14.090250880
    0.652253756   14.221637657   12.013805904   14.076488623
    0.659432387   14.207815569   12.002062389   14.062633083
    0.666611018   14.193897417   11.990249314   14.048685120
    0.673789649   14.179884076   11.978367438   14.034645586
    0.680968280   14.165776415   11.966417507   14.020515326
    0.688146912   14.151575296   11.954400255   14.006295175
    0.695325543   14.137281577   11.942316406   13.991985965
    0.702504174   14.122896107   11.930166673   13.977588518
    0.709682805   14.108419732   11.917951758   13.963103651
    0.716861436   14.093853292   11.905672354   13.948532175
    0.724040067   14.079197619   11.893329142   13.933874895
    0.731218698   14.064453544   11.880922798   13.919132610
    0.738397329   14.049621891   11.868453984   13.904306114
    0.745575960   14.034703480   11.855923358   13.889396196
    0.752754591   14.019699126   11.843331568   13.874403640
    0.759933222   14.004609641   11.830679252   13.859329226
    0.767111853   13.989435830   11.817967044   13.844173728
    0.774290484   13.974178498   11.805195568   13.828937917
    0.781469115   13.958838443   11.792365443   13.813622559
    0.788647746   13.943416461   11.779477280   13.798228418
    0.795826377   13.927913344   11.766531684   13.782756252
    0.803005008   13.912329880   11.753529252   13.767206818
    0.810183639   13.896666856   11.740470578   13.751580866
    0.817362270   13.880925052   11.727356249   13.735879147
    0.824540902   13.865105249   11.714186845   13.720102406
    0.831719533   13.849208222   11.700962944   13.704251385
    0.838898164   13.833234744   11.687685116   13.688326825
    0.846076795   13.817185587   11.674353928   13.672329462
    0.853255426   13.801061518   11.660969940   13.656260032
    0.860434057   13.784863302   11.647533711   13.640119266
    0.867612688   13.768591702   11.634045793   13.623907893
    0.874791319   13.752247478   11.620506735   13.607626642
    0.881969950   13.735831389   11.606917081   13.591276236
    0.889148581   13.719344189   11.593277373   13.574857398
    0.896327212   13.702786632   11.579588148   13.558370850
    0.903505843   13.686159469   11.565849941   13.541817308
    0.910684474   13.669463449   11.552063281   13.525197490
    0.917863105   13.652699319   11.538228697   13.508512110
    0.925041736   13.635867823   11.524346713   13.491761881
    0.932220367   13.618969703   11.510417850   13.474947513
    0.939398998   13.602005701   11.496442626   13.458069714
    0.946577629   13.584976554   11.482421559   13.441129193
    0.953756260   13.567882999   11.468355160   13.424126653
    0.960934891   13.550725771   11.454243941   13.407062798
    0.968113523   13.533505602   11.440088410   13.389938331
    0.975292154   13.516223223   11.425889073   13.372753951
    0.982470785   13.498879363   11.411646433   13.355510356
    0.989649416   13.481474748   11.397360992   13.338208243
    0.996828047   13.464010103   11.383033250   13.320848307
    1.004006678   13.446486151   11.368663704   13.303431242
    1.011185309   13.428903614   11.354252848   13.285957738
    1.018363940   13.411263210   11.339801177   13.268428487
    1.025542571   13.393565657   11.325309182   13.250844176
    1.032721202   13.375811671   11.310777353   13.233205492
    1.039899833   13.358001964   11.296206178   13.215513121
    1.047078464   13.340137248   11.281596142   13.197767745
    1.054257095   13.322218233   11.266947731   13.179970047
    1.061435726   13.304245627   11.252261428   13.162120707
    1.068614357   13.286220135   11.237537713   13.144220403
    1.075792988   13.268142461   11.222777067   13.126269812
    1.082971619   13.250013308   11.207979967   13.108269609
    1.090150250   13.231833374   11.193146891   13.090220468
    1.097328881   13.213603358   11.178278314   13.072123059
    1.104507513   13.195323955   11.163374710   13.053978054
    1.111686144   13.176995860   11.148436550   13.035786120
    1.118864775   13.158619764   11.133464306   13.017547922
    1.126043406   13.140196357   11.118458447   12.999264127
    1.133222037   13.121726325   11.103419441   12.980935396
    1.140400668   13.103210356   11.088347755   12.962562390
    1.147579299   13.084649131   11.073243855   12.944145769
    1.154757930   13.066043332   11.058108204   12.925686188
    1.161936561   13.047393639   11.042941264   12.907184304
    1.169115192   13.028700727   11.027743498   12.888640769
    1.176293823   13.009965271   11.012515365   12.870056235
    1.183472454   12.991187943   10.997257324   12.851431350
    1.190651085   12.972369414   10.981969831   12.832766762
    1.197829716   12.953510350   10.966653343   12.814063115
    1.205008347   12.934611418   10.951308315   12.795321053
    1.212186978   12.915673280   10.935935198   12.776541217
    1.219365609   12.896696596   10.920534446   12.757724245
    1.226544240   12.877682025   10.905106508   12.738870774
    1.233722871   12.858630222   10.889651833   12.719981437
    1.240901503   12.839541841   10.874170870   12.701056868
    1.248080134   12.820417533   10.858664064   12.682097696
    1.255258765   12.801257944   10.843131861   12.663104549
    1.262437396   12.782063722   10.827574704   12.644078051
    1.269616027   12.762835510   10.811993034   12.625018827
    1.276794658   12.743573947   10.796387293   12.605927495
    1.283973289   12.724279671   10.780757921   12.586804676
    1.291151920   12.704953319   10.765105353   12.567650983
    1.298330551   12.685595522   10.749430028   12.548467031
    1.305509182   12.666206911   10.733732380   12.529253431
    1.312687813   12.646788112   10.718012842   12.510010790
    1.319866444   12.627339750   10.702271845   12.490739715
    1.327045075   12.607862447   10.686509822   12.471440808
    1.334223706   12.588356822   10.670727199   12.452114671
    1.341402337   12.568823490   10.654924405   12.432761902
    1.348580968   12.549263065   10.639101866   12.413383096
    1.355759599   12.529676158   10.623260004   12.393978846
    1.362938230   12.510063375   10.607399244   12.374549741
    1.370116861   12.490425322   10.591520006   12.355096370
    1.377295492   12.470762600   10.575622710   12.335619317
    1.384474124   12.451075808   10.559707772   12.316119164
    1.391652755   12.431365541   10.543775610   12.296596489
    1.398831386   12.411632393   10.527826638   12.277051871
    1.406010017   12.391876953   10.511861268   12.257485881
    1.413188648   12.372099808   10.495879912   12.237899091
    1.420367279   12.352301541   10.479882979   12.218292069
    1.427545910   12.332482734   10.463870877   12.198665378
    1.434724541   12.312643964   10.447844011   12.179019583
    1.441903172   12.292785805   10.431802786   12.159355241
    1.449081803   12.272908829   10.415747604   12.139672909
    1.456260434   12.253013604   10.399678866   12.119973140
    1.463439065   12.233100695   10.383596971   12.100256484
    1.470617696   12.213170664   10.367502315   12.080523488
    1.477796327   12.193224070   10.351395294   12.060774697
    1.484974958   12.173261467   10.335276302   12.041010652
    1.492153589   12.153283410   10.319145729   12.021231891
    1.499332220   12.133290445   10.303003966   12.001438949
    1.506510851   12.113283121   10.286851400   11.981632358
    1.513689482   12.093261978   10.270688417   11.961812647
    1.520868114   12.073227556   10.254515401   11.941980342
    1.528046745   12.053180392   10.238332735   11.922135964
    1.535225376   12.033121018   10.222140797   11.902280035
    1.542404007   12.013049964   10.205939967   11.882413069
    1.549582638   11.992967755   10.189730620   11.862535581
    1.556761269   11.972874915   10.173513131   11.842648080
    1.563939900   11.952771963   10.157287872   11.822751073
    1.571118531   11.932659415   10.141055214   11.802845064
    1.578297162   11.912537784   10.124815524   11.782930552
    1.585475793   11.892407580   10.108569168   11.763008036
    1.592654424   11.872269307   10.092316512   11.743078009
    1.599833055   11.852123470   10.076057917   11.723140961
    1.607011686   11.831970567   10.059793743   11.703197381
    1.614190317   11.811811095   10.043524348   11.683247751
    1.621368948   11.791645545   10.027250088   11.663292554
    1.628547579   11.771474407   10.010971318   11.643332267
    1.635726210   11.751298166    9.994688389   11.623367363
    1.642904841   11.731117305    9.978401650   11.603398315
    1.650083472   11.710932303    9.962111450   11.583425590
    1.657262104   11.690743635    9.945818133   11.563449652
    1.664440735   11.670551773    9.929522044   11.543470962
    1.671619366   11.650357185    9.913223523   11.523489979
    1.678797997   11.630160337    9.896922909   11.503507156
    1.685976628   11.609961691    9.880620540   11.483522945
    1.693155259   11.589761704    9.864316750   11.463537793
    1.700333890   11.569560832    9.848011872   11.443552146
    1.707512521   11.549359526    9.831706236   11.423566445
    1.714691152   11.529158233    9.815400171   11.403581126
    1.721869783   11.508957399    9.799094003   11.383596626
    1.729048414   11.488757463    9.782788056   11.363613374
    1.736227045   11.468558865    9.766482651   11.343631800
    1.743405676   11.448362038    9.750178108   11.323652326
    1.750584307   11.428167413    9.733874745   11.303675376
    1.757762938   11.407975417    9.717572876   11.283701365
    1.764941569   11.387786473    9.701272815   11.263730710
    1.772120200   11.367601004    9.684974873   11.243763821
    1.779298831   11.347419424    9.668679357   11.223801105
    1.786477462   11.327242148    9.652386574   11.203842968
    1.793656093   11.307069586    9.636096829   11.183889811
    1.800834725   11.286902145    9.619810423   11.163942031
    1.808013356   11.266740227    9.603527656   11.144000024
    1.815191987   11.246584233    9.587248826   11.124064179
    1.822370618   11.226434560    9.570974227   11.104134886
    1.829549249   11.206291600    9.554704152   11.084212528
    1.836727880   11.186155742    9.538438893   11.064297487
    1.843906511   11.166027374    9.522178738   11.044390142
    1.851085142   11.145906878    9.505923973   11.024490866
    1.858263773   11.125794633    9.489674882   11.004600031
    1.865442404   11.105691016    9.473431747   10.984718005
    1.872621035   11.085596399    9.457194848   10.964845153
    1.879799666   11.065511151    9.440964462   10.944981836
    1.886978297   11.045435640    9.424740865   10.925128413
    1.894156928   11.025370226    9.408524328   10.905285239
    1.901335559   11.005315270    9.392315123   10.885452665
    1.908514190   10.985271128    9.376113518   10.865631040
    1.915692821   10.965238152    9.359919780   10.845820709
    1.922871452   10.945216692    9.343734173   10.826022014
    1.930050083   10.925207093    9.327556957   10.806235294
    1.937228715   10.905209699    9.311388394   10.786460885
    1.944407346   10.885224849    9.295228740   10.766699119
    1.951585977   10.865252878    9.279078250   10.746950325
    1.958764608   10.845294121    9.262937177   10.727214828
    1.965943239   10.825348906    9.246805772   10.707492953
    1.973121870   10.805417560    9.230684284   10.687785018
    1.980300501   10.785500406    9.214572958   10.668091339
    1.987479132   10.765597765    9.198472039   10.648412231
    1.994657763   10.745709952    9.182381770   10.628748004
    2.001836394   10.725837282    9.166302388   10.609098963
    2.009015025   10.705980064    9.150234133   10.589465414
    2.016193656   10.686138607    9.134177239   10.569847657
    2.023372287   10.666313213    9.118131939   10.550245990
    2.030550918   10.646504184    9.102098465   10.530660707
    2.037729549   10.626711817    9.086077045   10.511092100
    2.044908180   10.606936407    9.070067907   10.491540457
    2.052086811   10.587178245    9.054071274   10.472006064
    2.059265442   10.567437620    9.038087369   10.452489204
    2.066444073   10.547714817    9.022116411   10.432990154
    2.073622705   10.528010118    9.006158621   10.413509193
    2.080801336   10.508323802    8.990214212   10.394046593
    2.087979967   10.488656145    8.974283399   10.374602625
    2.095158598   10.469007420    8.958366394   10.355177555
    2.102337229   10.449377897    8.942463405   10.335771649
    2.109515860   10.429767842    8.926574642   10.316385167
    2.116694491   10.410177521    8.910700308   10.297018369
    2.123873122   10.390607194    8.894840608   10.277671509
    2.131051753   10.371057118    8.878995742   10.258344842
    2.138230384   10.351527549    8.863165910   10.239038615
    2.145409015   10.332018739    8.847351308   10.219753076
    2.152587646   10.312530936    8.831552131   10.200488470
    2.159766277   10.293064388    8.815768573   10.181245037
    2.166944908   10.273619337    8.800000825   10.162023016
    2.174123539   10.254196025    8.784249074   10.142822642
    2.181302170   10.234794687    8.768513507   10.123644148
    2.188480801   10.215415560    8.752794311   10.104487763
    2.195659432   10.196058875    8.737091666   10.085353716
    2.202838063   10.176724861    8.721405755   10.066242229
    2.210016694   10.157413744    8.705736755   10.047153525
    2.217195326   10.138125747    8.690084843   10.028087823
    2.224373957   10.118861092    8.674450194   10.009045338
    2.231552588   10.099619997    8.658832981    9.990026285
    2.238731219   10.080402675    8.643233374    9.971030873
    2.245909850   10.061209341    8.627651543    9.952059311
    2.253088481   10.042040202    8.612087653    9.933111804
    2.260267112   10.022895467    8.596541871    9.914188554
    2.267445743   10.003775340    8.581014359    9.895289763
    2.274624374    9.984680022    8.565505278    9.876415627
    2.281803005    9.965609713    8.550014786    9.857566341
    2.288981636    9.946564608    8.534543043    9.838742098
    2.296160267    9.927544901    8.519090202    9.819943087
    2.303338898    9.908550783    8.503656417    9.801169495
    2.310517529    9.889582444    8.488241840    9.782421506
    2.317696160    9.870640068    8.472846620    9.763699304
    2.324874791    9.851723839    8.457470905    9.745003067
    2.332053422    9.832833939    8.442114842    9.726332973
    2.339232053    9.813970544    8.426778574    9.707689196
    2.346410684    9.795133832    8.411462244    9.689071907
    2.353589316    9.776323975    8.396165991    9.670481278
    2.360767947    9.757541144    8.380889956    9.651917475
    2.367946578    9.738785508    8.365634274    9.633380663
    2.375125209    9.720057233    8.350399082    9.614871004
    2.382303840    9.701356481    8.335184511    9.596388658
    2.389482471    9.682683414    8.319990694    9.577933784
    2.396661102    9.664038191    8.304817760    9.559506535
    2.403839733    9.645420968    8.289665838    9.541107067
    2.411018364    9.626831899    8.274535053    9.522735528
    2.418196995    9.608271136    8.259425531    9.504392067
    2.425375626    9.589738827    8.244337394    9.486076832
    2.432554257    9.571235120    8.229270763    9.467789964
    2.439732888    9.552760159    8.214225757    9.449531606
    2.446911519    9.534314087    8.199202495    9.431301897
    2.454090150    9.515897044    8.184201093    9.413100975
    2.461268781    9.497509168    8.169221664    9.394928973
    2.468447412    9.479150594    8.154264322    9.376786026
    2.475626043    9.460821455    8.139329177    9.358672262
    2.482804674    9.442521884    8.124416340    9.340587812
    2.489983306    9.424252008    8.109525917    9.322532800
    2.497161937    9.406011955    8.094658016    9.304507351
    2.504340568    9.387801850    8.079812740    9.286511587
    2.511519199    9.369621814    8.064990193    9.268545628
    2.518697830    9.351471969    8.050190477    9.250609591
    2.525876461    9.333352433    8.035413690    9.232703593
    2.533055092    9.315263322    8.020659931    9.214827747
    2.540233723    9.297204751    8.005929297    9.196982164
