# energy grid [eV]     epsr_x  epsr_y  epsr_z
#
    0.200000000   12.701072425    9.256535481    9.950743334
    0.207178631   12.703786694    9.258370011    9.952729512
    0.214357262   12.706598300    9.260270316    9.954786978
    0.221535893   12.709507415    9.262236512    9.956915867
    0.228714524   12.712514217    9.264268716    9.959116316
    0.235893155   12.715618893    9.266367054    9.961388469
    0.243071786   12.718821633    9.268531651    9.963732474
    0.250250417   12.722122634    9.270762641    9.966148484
    0.257429048   12.725522103    9.273060159    9.968636658
    0.264607679   12.729020250    9.275424347    9.971197161
    0.271786311   12.732617292    9.277855350    9.973830160
    0.278964942   12.736313455    9.280353317    9.976535832
    0.286143573   12.740108969    9.282918403    9.979314357
    0.293322204   12.744004074    9.285550766    9.982165920
    0.300500835   12.747999015    9.288250571    9.985090712
    0.307679466   12.752094044    9.291017984    9.988088931
    0.314858097   12.756289420    9.293853179    9.991160780
    0.322036728   12.760585411    9.296756334    9.994306467
    0.329215359   12.764982291    9.299727631    9.997526208
    0.336393990   12.769480341    9.302767257   10.000820223
    0.343572621   12.774079850    9.305875405   10.004188739
    0.350751252   12.778781116    9.309052271   10.007631989
    0.357929883   12.783584442    9.312298059   10.011150214
    0.365108514   12.788490140    9.315612975   10.014743660
    0.372287145   12.793498531    9.318997233   10.018412578
    0.379465776   12.798609944    9.322451049   10.022157230
    0.386644407   12.803824714    9.325974648   10.025977880
    0.393823038   12.809143187    9.329568259   10.029874804
    0.401001669   12.814565715    9.333232115   10.033848281
    0.408180301   12.820092660    9.336966456   10.037898600
    0.415358932   12.825724394    9.340771528   10.042026055
    0.422537563   12.831461296    9.344647582   10.046230950
    0.429716194   12.837303753    9.348594875   10.050513597
    0.436894825   12.843252165    9.352613671   10.054874313
    0.444073456   12.849306938    9.356704238   10.059313425
    0.451252087   12.855468489    9.360866852   10.063831270
    0.458430718   12.861737245    9.365101794   10.068428192
    0.465609349   12.868113642    9.369409353   10.073104543
    0.472787980   12.874598128    9.373789823   10.077860685
    0.479966611   12.881191159    9.378243505   10.082696990
    0.487145242   12.887893203    9.382770706   10.087613838
    0.494323873   12.894704740    9.387371743   10.092611621
    0.501502504   12.901626260    9.392046935   10.097690740
    0.508681135   12.908658263    9.396796614   10.102851605
    0.515859766   12.915801264    9.401621115   10.108094639
    0.523038397   12.923055787    9.406520781   10.113420275
    0.530217028   12.930422370    9.411495964   10.118828958
    0.537395659   12.937901563    9.416547025   10.124321145
    0.544574290   12.945493930    9.421674329   10.129897305
    0.551752922   12.953200047    9.426878253   10.135557920
    0.558931553   12.961020506    9.432159180   10.141303484
    0.566110184   12.968955910    9.437517504   10.147134506
    0.573288815   12.977006879    9.442953625   10.153051510
    0.580467446   12.985174047    9.448467955   10.159055032
    0.587646077   12.993458065    9.454060913   10.165145627
    0.594824708   13.001859599    9.459732928   10.171323862
    0.602003339   13.010379332    9.465484440   10.177590324
    0.609181970   13.019017963    9.471315898   10.183945616
    0.616360601   13.027776211    9.477227762   10.190390359
    0.623539232   13.036654813    9.483220502   10.196925193
    0.630717863   13.045654523    9.489294601   10.203550779
    0.637896494   13.054776119    9.495450550   10.210267799
    0.645075125   13.064020397    9.501688855   10.217076954
    0.652253756   13.073388175    9.508010033   10.223978971
    0.659432387   13.082880294    9.514414612   10.230974601
    0.666611018   13.092497619    9.520903136   10.238064619
    0.673789649   13.102241040    9.527476160   10.245249828
    0.680968280   13.112111470    9.534134255   10.252531058
    0.688146912   13.122109854    9.540878004   10.259909171
    0.695325543   13.132237161    9.547708007   10.267385059
    0.702504174   13.142494391    9.554624879   10.274959650
    0.709682805   13.152882578    9.561629251   10.282633905
    0.716861436   13.163402785    9.568721771   10.290408825
    0.724040067   13.174056113    9.575903106   10.298285450
    0.731218698   13.184843699    9.583173938   10.306264865
    0.738397329   13.195766719    9.590534972   10.314348200
    0.745575960   13.206826389    9.597986931   10.322536636
    0.752754591   13.218023972    9.605530559   10.330831405
    0.759933222   13.229360775    9.613166624   10.339233797
    0.767111853   13.240838157    9.620895914   10.347745164
    0.774290484   13.252457529    9.628719244   10.356366924
    0.781469115   13.264220360    9.636637453   10.365100564
    0.788647746   13.276128178    9.644651409   10.373947653
    0.795826377   13.288182579    9.652762006   10.382909840
    0.803005008   13.300385229    9.660970170   10.391988867
    0.810183639   13.312737869    9.669276859   10.401186575
    0.817362270   13.325242324    9.677683063   10.410504913
    0.824540902   13.337900508    9.686189810   10.419945950
    0.831719533   13.350714431    9.694798166   10.429511885
    0.838898164   13.363686210    9.703509237   10.439205059
    0.846076795   13.376818076    9.712324175   10.449027971
    0.853255426   13.390112388    9.721244175   10.458983297
    0.860434057   13.403571643    9.730270487   10.469073905
    0.867612688   13.417198490    9.739404412   10.479302876
    0.874791319   13.430995748    9.748647311   10.489673535
    0.881969950   13.444966422    9.758000608   10.500189473
    0.889148581   13.459113726    9.767465796   10.510854582
    0.896327212   13.473441105    9.777044441   10.521673094
    0.903505843   13.487952263    9.786738193   10.532649624
    0.910684474   13.502651199    9.796548789   10.543789223
    0.917863105   13.517542237    9.806478066   10.555097433
    0.925041736   13.532630077    9.816527968   10.566580367
    0.932220367   13.547919842    9.826700557   10.578244783
    0.939398998   13.563417142    9.836998031   10.590098192
    0.946577629   13.579128141    9.847422731   10.602148970
    0.953756260   13.595059648    9.857977168   10.614406508
    0.960934891   13.611219221    9.868664037   10.626881379
    0.968113523   13.627615286    9.879486243   10.639585550
    0.975292154   13.644257294    9.890446929   10.652532643
    0.982470785   13.661155906    9.901549515   10.665738247
    0.989649416   13.678323222    9.912797730   10.679220318
    0.996828047   13.695773070    9.924195668   10.692999668
    1.004006678   13.713521360    9.935747846   10.707100595
    1.011185309   13.731586545    9.947459273   10.721551677
    1.018363940   13.749990200    9.959335547   10.736386796
    1.025542571   13.768757776    9.971382959   10.751646476
    1.032721202   13.787919582    9.983608638   10.767379636
    1.039899833   13.807512088    9.996020726   10.783645922
    1.047078464   13.827579662   10.008628608   10.800518860
    1.054257095   13.848176932   10.021443205   10.818090130
    1.061435726   13.869372015   10.034477365   10.836475487
    1.068614357   13.891250997   10.047746369   10.855822992
    1.075792988   13.913924197   10.061268629   10.876324578
    1.082971619   13.937534916   10.075066622   10.898232268
    1.090150250   13.962271475   10.089168176   10.921880492
    1.097328881   13.988382797   10.103608241   10.947714779
    1.104507513   14.016194659   10.118431303   10.976320627
    1.111686144   14.046110475   10.133694510   11.008419267
    1.118864775   14.078527594   10.149470993   11.044689478
    1.126043406   14.113389195   10.165850235   11.084846293
    1.133222037   14.148281527   10.182921730   11.123762368
    1.140400668   14.171845548   10.200698956   11.138074420
    1.147579299   14.155944098   10.219010054   11.070295003
    1.154757930   14.106336303   10.238022273   10.931940484
    1.161936561   14.095388918   10.258208032   10.870794766
    1.169115192   14.121033073   10.276902442   10.887557145
    1.176293823   14.136753419   10.283848061   10.905734851
    1.183472454   14.104981246   10.264667528   10.874874010
    1.190651085   14.065822708   10.242329030   10.834647666
    1.197829716   14.074493653   10.246741753   10.842860492
    1.205008347   14.109497742   10.266156892   10.877181678
    1.212186978   14.149872864   10.289097465   10.915868434
    1.219365609   14.189604696   10.312184587   10.952822695
    1.226544240   14.227830367   10.334851051   10.987294298
    1.233722871   14.264897117   10.357206876   11.019750898
    1.240901503   14.301353413   10.379487474   11.050828501
    1.248080134   14.337735516   10.401932404   11.081114358
    1.255258765   14.374549966   10.424770911   11.111132137
    1.262437396   14.412303021   10.448233392   11.141373112
    1.269616027   14.451541685   10.472569325   11.172336347
    1.276794658   14.492897107   10.498066842   11.204568264
    1.283973289   14.537116957   10.525068846   11.238688400
    1.291151920   14.585028878   10.553964179   11.275345762
    1.298330551   14.637193304   10.585063026   11.314875547
    1.305509182   14.692276518   10.617990782   11.355736316
    1.312687813   14.740760086   10.649321196   11.388520107
    1.319866444   14.750410014   10.667088360   11.382166363
    1.327045075   14.694748765   10.661474580   11.311146351
    1.334223706   14.661388656   10.665409524   11.259064677
    1.341402337   14.694496784   10.693909282   11.272152482
    1.348580968   14.718270012   10.711116072   11.297019471
    1.355759599   14.624993726   10.659348190   11.274954742
    1.362938230   14.434816111   10.551740054   11.211075609
    1.370116861   14.356331387   10.510197548   11.193329304
    1.377295492   14.388394637   10.534046102   11.221389945
    1.384474124   14.451892827   10.577110180   11.261964170
    1.391652755   14.516785067   10.621860207   11.302534857
    1.398831386   14.576738382   10.664628299   11.340590648
    1.406010017   14.631574740   10.705371792   11.376190863
    1.413188648   14.682312533   10.744782805   11.409873466
    1.420367279   14.730001697   10.783613051   11.442170016
    1.427545910   14.775506912   10.822555183   11.473520657
    1.434724541   14.819512017   10.862257770   11.504281435
    1.441903172   14.862566352   10.903370823   11.534748534
    1.449081803   14.905131468   10.946599948   11.565182353
    1.456260434   14.947621467   10.992768434   11.595829080
    1.463439065   14.990438550   11.042892011   11.626940912
    1.470617696   15.034006341   11.098269843   11.658796271
    1.477796327   15.078800453   11.160581406   11.691719201
    1.484974958   15.125362733   11.231919319   11.726087882
    1.492153589   15.174235543   11.314452193   11.762286379
    1.499332220   15.225554854   11.408476389   11.800412127
    1.506510851   15.277264926   11.503937354   11.838995136
    1.513689482   15.318391264   11.548526056   11.870173167
    1.520868114   15.314337403   11.377963712   11.869146477
    1.528046745   15.240627480   10.875961511   11.818379460
    1.535225376   15.190495406   10.484275884   11.784767336
    1.542404007   15.211154305   10.426480507   11.802205800
    1.549582638   15.260990780   10.505023091   11.840891715
    1.556761269   15.316082525   10.606199161   11.883723245
    1.563939900   15.370324207   10.700737866   11.926394330
    1.571118531   15.422944474   10.784608426   11.968447534
    1.578297162   15.474381575   10.859449438   12.010324383
    1.585475793   15.525264409   10.927715373   12.052646262
    1.592654424   15.576201822   10.991649277   12.096078449
    1.599833055   15.627766358   11.053176623   12.141333926
    1.607011686   15.680508104   11.113967383   12.189181936
    1.614190317   15.734911812   11.175367470   12.240326524
    1.621368948   15.791088328   11.237667912   12.294712751
    1.628547579   15.847431892   11.296791013   12.348560536
    1.635726210   15.896267691   11.332729799   12.384037088
    1.642904841   15.921486366   11.295299861   12.355890300
    1.650083472   15.933784994   11.189888128   12.267320389
    1.657262104   15.974185297   11.147690551   12.237674451
    1.664440735   16.041015280   11.181816512   12.280685508
    1.671619366   16.119812112   11.240940870   12.349908988
    1.678797997   16.204539772   11.303701284   12.424648403
    1.685976628   16.287619441   11.365359694   12.493393559
    1.693155259   16.341817671   11.425185730   12.528319511
    1.700333890   16.319613175   11.482962939   12.483688466
    1.707512521   16.270048666   11.541874369   12.416748745
    1.714691152   16.259743098   11.606501853   12.428183065
    1.721869783   16.174512329   11.677138488   12.482576751
    1.729048414   16.010761617   11.753228167   12.544895753
    1.736227045   15.966510491   11.830222537   12.617750071
    1.743405676   16.026644880   11.880934813   12.684915607
    1.750584307   16.099536262   11.822010093   12.699608229
    1.757762938   16.154743656   11.597054003   12.636468367
    1.764941569   16.219368232   11.419387434   12.602141797
    1.772120200   16.299940927   11.414049938   12.653190627
    1.779298831   16.384856716   11.486136076   12.745028116
    1.786477462   16.469676417   11.574223697   12.850739586
    1.793656093   16.553906592   11.661894161   12.963102115
    1.800834725   16.635919108   11.745118548   13.073378681
    1.808013356   16.705577751   11.815589692   13.141810854
    1.815191987   16.733892817   11.844691818   13.045493598
    1.822370618   16.716631777   11.806770464   12.700555317
    1.829549249   16.732965408   11.780831790   12.429311880
    1.836727880   16.799915519   11.820960657   12.410630853
    1.843906511   16.880971419   11.885212007   12.497527714
    1.851085142   16.944022609   11.928190962   12.590934104
    1.858263773   16.965148152   11.918404686   12.655870761
    1.865442404   16.988115144   11.908678396   12.713257566
    1.872621035   17.052704799   11.949330908   12.786709524
    1.879799666   17.126904174   12.010878997   12.863603660
    1.886978297   17.165229245   12.063051878   12.929470076
    1.894156928   17.161575878   12.100088662   12.982592144
    1.901335559   17.192892609   12.149212128   13.041530453
    1.908514190   17.270732446   12.214463664   13.109035748
    1.915692821   17.361641617   12.281436793   13.174663132
    1.922871452   17.440966778   12.331572698   13.222426543
    1.930050083   17.493317268   12.348825785   13.237724239
    1.937228715   17.549688537   12.370895236   13.255489363
    1.944407346   17.630748369   12.424559477   13.304278649
    1.951585977   17.698093944   12.472852082   13.367823693
    1.958764608   17.686937701   12.459318954   13.434526476
    1.965943239   17.616034190   12.397834034   13.501453617
    1.973121870   17.621380279   12.397555144   13.568462871
    1.980300501   17.699109866   12.455465944   13.636064421
    1.987479132   17.798482041   12.530940179   13.704923358
    1.994657763   17.900852678   12.609197638   13.775784278
    2.001836394   18.002554445   12.687566704   13.849482035
    2.009015025   18.103168470   12.766147686   13.926939363
    2.016193656   18.200299330   12.843882384   14.009003839
    2.023372287   18.285298558   12.915453925   14.095968679
    2.030550918   18.356804302   12.979729086   14.187721355
    2.037729549   18.438834793   13.049229418   14.280954641
    2.044908180   18.524179984   13.102930030   14.349405198
    2.052086811   18.569479339   13.073980231   14.325042746
    2.059265442   18.569245341   12.972730304   14.209590332
    2.066444073   18.602858791   12.948365230   14.167774673
    2.073622705   18.694228258   13.014351040   14.239810240
    2.080801336   18.811234520   13.111432872   14.351871318
    2.087979967   18.930623936   13.202361212   14.430675248
    2.095158598   19.037730730   13.247167486   14.402974689
    2.102337229   19.135088050   13.228916627   14.300906790
    2.109515860   19.251421431   13.241360616   14.285432939
    2.116694491   19.388361001   13.319111603   14.377813730
    2.123873122   19.509599878   13.418599903   14.500835123
    2.131051753   19.556364133   13.509089965   14.599585473
    2.138230384   19.546137032   13.588297824   14.655509700
    2.145409015   19.593835648   13.666138657   14.714601903
    2.152587646   19.654842817   13.689872165   14.752912919
    2.159766277   19.606459110   13.597190481   14.696580900
    2.166944908   19.509457247   13.512578963   14.649115042
    2.174123539   19.381557478   13.512985331   14.691020106
    2.181302170   19.279993805   13.563343885   14.785612695
    2.188480801   19.347159436   13.663461294   14.914480486
    2.195659432   19.504275842   13.785929327   15.049696460
    2.202838063   19.664225569   13.904174613   15.153900419
    2.210016694   19.791463612   13.987672802   15.195678929
    2.217195326   19.895562076   13.985011588   15.193348338
    2.224373957   20.002392051   13.910234628   15.173365302
    2.231552588   20.133860553   13.896352169   15.203143372
    2.238731219   20.283436882   13.956523414   15.282512470
    2.245909850   20.439263499   14.060416583   15.390048146
    2.253088481   20.592246602   14.180715308   15.491303541
    2.260267112   20.751391065   14.307065013   15.601823658
    2.267445743   20.927071754   14.439281576   15.745960195
    2.274624374   21.116120611   14.572790329   15.908091469
    2.281803005   21.310548067   14.688778273   16.067511612
    2.288981636   21.490376269   14.739608495   16.191513694
    2.296160267   21.636468343   14.725684537   16.274181057
    2.303338898   21.701084671   14.723900569   16.355326002
    2.310517529   21.541434572   14.679512599   16.370709660
    2.317696160   21.320451569   14.637625437   16.356853313
    2.324874791   21.273776869   14.657409168   16.393920939
    2.332053422   21.221597254   14.653423685   16.375724499
    2.339232053   21.168980287   14.653314970   16.341495742
    2.346410684   21.239925077   14.693526796   16.290495970
    2.353589316   21.342797584   14.719489780   16.004803520
    2.360767947   21.466012995   14.773244508   15.710050902
    2.367946578   21.654114247   14.886200387   15.730049092
    2.375125209   21.872186033   15.022469288   15.917680565
    2.382303840   22.092990502   15.160925915   16.139474876
    2.389482471   22.305143469   15.294384848   16.357382105
    2.396661102   22.489935883   15.413538632   16.563965144
    2.403839733   22.630309974   15.509036663   16.757605828
    2.411018364   22.777327176   15.604538083   16.939809135
    2.418196995   22.958999877   15.713379052   17.095082580
    2.425375626   23.136088300   15.821522257   17.205451907
    2.432554257   23.259692344   15.922182802   17.248419235
    2.439732888   23.321104965   16.008609906   17.209530393
    2.446911519   23.426229435   16.102979855   17.247899290
    2.454090150   23.578911554   16.199805780   17.384898606
    2.461268781   23.758868784   16.296112817   17.531953017
    2.468447412   23.952231488   16.385569206   17.682018252
    2.475626043   24.165592053   16.486167518   17.863886626
    2.482804674   24.401923913   16.591455844   18.061899079
    2.489983306   24.648198231   16.695194662   18.262052578
    2.497161937   24.903818449   16.831840465   18.468885803
    2.504340568   25.161527683   16.989141733   18.693560354
    2.511519199   25.399976518   17.141829518   18.934572957
    2.518697830   25.580136613   17.283633783   19.162878066
    2.525876461   25.667050598   17.381736555   19.303749689
    2.533055092   25.720424928   17.418418717   19.260836689
    2.540233723   25.857802856   17.478066082   19.149039574
