# energy grid [eV]     epsr_x  epsr_y  epsr_z
#
    0.200000000   12.750342145   12.430336139   14.636487798
    0.207178631   12.753300924   12.433250077   14.640137018
    0.214357262   12.756366695   12.436268959   14.643918031
    0.221535893   12.759539749   12.439393020   14.647831173
    0.228714524   12.762820386   12.442622504   14.651876793
    0.235893155   12.766208920   12.445957664   14.656055255
    0.243071786   12.769705676   12.449398763   14.660366935
    0.250250417   12.773310992   12.452946072   14.664812227
    0.257429048   12.777025220   12.456599873   14.669391536
    0.264607679   12.780848725   12.460360458   14.674105284
    0.271786311   12.784781887   12.464228129   14.678953907
    0.278964942   12.788825096   12.468203196   14.683937858
    0.286143573   12.792978762   12.472285981   14.689057605
    0.293322204   12.797243305   12.476476819   14.694313632
    0.300500835   12.801619163   12.480776050   14.699706442
    0.307679466   12.806106790   12.485184031   14.705236552
    0.314858097   12.810706654   12.489701125   14.710904499
    0.322036728   12.815419242   12.494327711   14.716710838
    0.329215359   12.820245056   12.499064175   14.722656141
    0.336393990   12.825184618   12.503910920   14.728741000
    0.343572621   12.830238467   12.508868357   14.734966029
    0.350751252   12.835407161   12.513936912   14.741331858
    0.357929883   12.840691278   12.519117022   14.747839141
    0.365108514   12.846091417   12.524409139   14.754488553
    0.372287145   12.851608198   12.529813727   14.761280793
    0.379465776   12.857242260   12.535331264   14.768216580
    0.386644407   12.862994270   12.540962243   14.775296659
    0.393823038   12.868864915   12.546707172   14.782521800
    0.401001669   12.874854907   12.552566573   14.789892798
    0.408180301   12.880964986   12.558540983   14.797410475
    0.415358932   12.887195915   12.564630957   14.805075683
    0.422537563   12.893548490   12.570837065   14.812889299
    0.429716194   12.900023533   12.577159896   14.820852233
    0.436894825   12.906621896   12.583600053   14.828965426
    0.444073456   12.913344467   12.590158161   14.837229853
    0.451252087   12.920192163   12.596834863   14.845646521
    0.458430718   12.927165940   12.603630822   14.854216474
    0.465609349   12.934266789   12.610546719   14.862940795
    0.472787980   12.941495742   12.617583259   14.871820605
    0.479966611   12.948853872   12.624741168   14.880857067
    0.487145242   12.956342293   12.632021197   14.890051388
    0.494323873   12.963962167   12.639424118   14.899404820
    0.501502504   12.971714706   12.646950730   14.908918665
    0.508681135   12.979601169   12.654601859   14.918594274
    0.515859766   12.987622875   12.662378357   14.928433054
    0.523038397   12.995781195   12.670281105   14.938436468
    0.530217028   13.004077567   12.678311015   14.948606040
    0.537395659   13.012513489   12.686469033   14.958943357
    0.544574290   13.021090533   12.694756133   14.969450076
    0.551752922   13.029810342   12.703173331   14.980127926
    0.558931553   13.038674640   12.711721676   14.990978712
    0.566110184   13.047685235   12.720402258   15.002004322
    0.573288815   13.056844026   12.729216210   15.013206735
    0.580467446   13.066153009   12.738164706   15.024588020
    0.587646077   13.075614285   12.747248972   15.036150349
    0.594824708   13.085230068   12.756470281   15.047896003
    0.602003339   13.095002691   12.765829961   15.059827380
    0.609181970   13.104934622   12.775329397   15.071947003
    0.616360601   13.115028465   12.784970035   15.084257531
    0.623539232   13.125286983   12.794753388   15.096761770
    0.630717863   13.135713101   12.804681038   15.109462684
    0.637896494   13.146309926   12.814754645   15.122363411
    0.645075125   13.157080762   12.824975948   15.135467277
    0.652253756   13.168029129   12.835346779   15.148777810
    0.659432387   13.179158777   12.845869063   15.162298764
    0.666611018   13.190473719   12.856544829   15.176034134
    0.673789649   13.201978243   12.867376223   15.189988186
    0.680968280   13.213676953   12.878365510   15.204165477
    0.688146912   13.225574790   12.889515095   15.218570889
    0.695325543   13.237677076   12.900827529   15.233209661
    0.702504174   13.249989547   12.912305525   15.248087428
    0.709682805   13.262518404   12.923951980   15.263210263
    0.716861436   13.275270366   12.935769984   15.278584727
    0.724040067   13.288252724   12.947762853   15.294217923
    0.731218698   13.301473414   12.959934143   15.310117566
    0.738397329   13.314941096   12.972287687   15.326292050
    0.745575960   13.328665239   12.984827622   15.342750538
    0.752754591   13.342656233   12.997558426   15.359503059
    0.759933222   13.356925504   13.010484966   15.376560622
    0.767111853   13.371485659   13.023612545   15.393935353
    0.774290484   13.386350651   13.036946961   15.411640647
    0.781469115   13.401535970   13.050494579   15.429691355
    0.788647746   13.417058879   13.064262409   15.448103999
    0.795826377   13.432938681   13.078258204   15.466897032
    0.803005008   13.449197042   13.092490574   15.486091145
    0.810183639   13.465858384   13.106969128   15.505709632
    0.817362270   13.482950347   13.121704631   15.525778840
    0.824540902   13.500504359   13.136709214   15.546328699
    0.831719533   13.518556322   13.151996608   15.567393386
    0.838898164   13.537147461   13.167582451   15.589012124
    0.846076795   13.556325364   13.183484653   15.611230182
    0.853255426   13.576145289   13.199723856   15.634100113
    0.860434057   13.596671787   13.216324007   15.657683311
    0.867612688   13.617980766   13.233313091   15.682051980
    0.874791319   13.640162121   13.250724055   15.707291652
    0.881969950   13.663323123   13.268596005   15.733504429
    0.889148581   13.687592821   13.286975765   15.760813205
    0.896327212   13.713127840   13.305919916   15.789367227
    0.903505843   13.740120083   13.325497525   15.819349491
    0.910684474   13.768807102   13.345793805   15.850986707
    0.917863105   13.799486207   13.366915102   15.884562874
    0.925041736   13.832533920   13.388995775   15.920438007
    0.932220367   13.868433083   13.412207781   15.959074254
    0.939398998   13.907810957   13.436774159   16.001072633
    0.946577629   13.951492981   13.462988049   16.047224900
    0.953756260   14.000577963   13.491239317   16.098586117
    0.960934891   14.056539281   13.522050371   16.156572351
    0.968113523   14.121344855   13.556118606   16.223076379
    0.975292154   14.197534834   13.594343728   16.300542005
    0.982470785   14.287980108   13.637741485   16.391727800
    0.989649416   14.394190495   13.686841573   16.498060978
    0.996828047   14.508652861   13.738962683   16.612189435
    1.004006678   14.584602046   13.777463538   16.688604588
    1.011185309   14.451875273   13.741823691   16.561873281
    1.018363940   13.871879215   13.547184553   16.000039131
    1.025542571   13.244297602   13.335613095   15.391299086
    1.032721202   13.066473836   13.283885171   15.218690740
    1.039899833   13.134927579   13.319589945   15.284234094
    1.047078464   13.257309125   13.374284073   15.400799703
    1.054257095   13.376540140   13.427738963   15.513142154
    1.061435726   13.479457777   13.475915468   15.610836246
    1.068614357   13.553731813   13.517203548   15.692238176
    1.075792988   13.570357461   13.547921207   15.753918322
    1.082971619   13.540125912   13.570209843   15.799978554
    1.090150250   13.546175159   13.596765621   15.848096678
    1.097328881   13.591368684   13.628342911   15.900011504
    1.104507513   13.645834408   13.660790734   15.950823352
    1.111686144   13.698334579   13.692651164   15.999024845
    1.118864775   13.746847320   13.723787251   16.044737707
    1.126043406   13.791685297   13.754380773   16.088424017
    1.133222037   13.833556167   13.784655795   16.130542247
    1.140400668   13.873119916   13.814821096   16.171484698
    1.147579299   13.910917066   13.845066309   16.211581106
    1.154757930   13.947380783   13.875570247   16.251114933
    1.161936561   13.982862788   13.906511822   16.290340394
    1.169115192   14.017657293   13.938082002   16.329498455
    1.176293823   14.052020675   13.970497235   16.368832446
    1.183472454   14.086187707   14.004014747   16.408603907
    1.190651085   14.120385349   14.038947745   16.449107032
    1.197829716   14.154843589   14.075668205   16.490670554
    1.205008347   14.189796978   14.114543994   16.533598694
    1.212186978   14.225447550   14.155594107   16.577855061
    1.219365609   14.261771121   14.197016263   16.621723062
    1.226544240   14.297803011   14.229996631   16.657096624
    1.233722871   14.330648800   14.231538215   16.662973401
    1.240901503   14.360918193   14.202821083   16.640178376
    1.248080134   14.397841684   14.205434407   16.644170363
    1.255258765   14.442960269   14.246373183   16.680955722
    1.262437396   14.492964408   14.301808985   16.728930460
    1.269616027   14.543471464   14.359643214   16.778785597
    1.276794658   14.578881508   14.406501300   16.826854113
    1.283973289   14.552099058   14.407736143   16.867769762
    1.291151920   14.433894723   14.342331774   16.898656540
    1.298330551   14.351470836   14.304663497   16.934647657
    1.305509182   14.361771905   14.337416236   16.982886540
    1.312687813   14.408998907   14.400219154   17.037615937
    1.319866444   14.462465811   14.470849189   17.095664908
    1.327045075   14.514365261   14.541912252   17.154882391
    1.334223706   14.563344340   14.602382166   17.207267261
    1.341402337   14.608723719   14.619575246   17.227501544
    1.348580968   14.650444333   14.571872934   17.198659442
    1.355759599   14.692576341   14.551138804   17.190963075
    1.362938230   14.737239187   14.601271013   17.237831225
    1.370116861   14.782723339   14.675596624   17.303146945
    1.377295492   14.825674221   14.723522862   17.347770295
    1.384474124   14.860357535   14.682561563   17.323562231
    1.391652755   14.891998150   14.592761413   17.262304915
    1.398831386   14.935710619   14.578792443   17.264126315
    1.406010017   14.989976990   14.602945902   17.307192317
    1.413188648   15.049766400   14.636904641   17.361177692
    1.420367279   15.110399625   14.702820073   17.427067627
    1.427545910   15.155076757   14.774705675   17.492410750
    1.434724541   15.132446208   14.798381644   17.532253405
    1.441903172   15.006686693   14.734089224   17.528508399
    1.449081803   14.912471125   14.673442866   17.528401146
    1.456260434   14.922110482   14.696638048   17.569523561
    1.463439065   14.977500423   14.768650215   17.633613443
    1.470617696   15.041810179   14.853702600   17.703818326
    1.477796327   15.105083141   14.940669318   17.775063883
    1.484974958   15.165670057   15.025661100   17.845468799
    1.492153589   15.222791930   15.097248821   17.908989270
    1.499332220   15.272735902   15.115591399   17.944516433
    1.506510851   15.311437960   15.038002718   17.929411882
    1.513689482   15.351572954   14.970537604   17.919608471
    1.520868114   15.403603131   14.999845849   17.960752568
    1.528046745   15.462587725   15.076255858   18.026436008
    1.535225376   15.525023713   15.164157708   18.097766986
    1.542404007   15.589369590   15.253216601   18.169774777
    1.549582638   15.650511834   15.336600625   18.241835199
    1.556761269   15.687947010   15.392399522   18.313916107
    1.563939900   15.661866527   15.377925278   18.385624265
    1.571118531   15.607147144   15.332246170   18.459170642
    1.578297162   15.617829436   15.359157381   18.538836686
    1.585475793   15.677192120   15.441153759   18.625186067
    1.592654424   15.750975487   15.540735032   18.717266883
    1.599833055   15.827226553   15.641030671   18.810078148
    1.607011686   15.900336002   15.717963227   18.880544427
    1.614190317   15.961269103   15.716492093   18.870177484
    1.621368948   16.012916009   15.646236317   18.788255690
    1.628547579   16.082532635   15.654544279   18.789358334
    1.635726210   16.172105937   15.748237730   18.878262138
    1.642904841   16.266216824   15.852051654   18.969009459
    1.650083472   16.335526922   15.879878220   18.960093766
    1.657262104   16.317804624   15.750320608   18.806842873
    1.664440735   16.164029036   15.511117822   18.689012425
    1.671619366   16.026634439   15.346655368   18.698365637
    1.678797997   16.048718152   15.362209094   18.790186027
    1.685976628   16.153969976   15.459059153   18.907946110
    1.693155259   16.278239119   15.568882467   19.026716474
    1.700333890   16.388334406   15.671902315   19.134944304
    1.707512521   16.423493451   15.760213857   19.209103743
    1.714691152   16.302223442   15.826534475   19.217994891
    1.721869783   16.160644906   15.884517159   19.219601061
    1.729048414   16.174519175   15.953964784   19.282444543
    1.736227045   16.277238861   16.029938265   19.378780492
    1.743405676   16.399795970   16.106260456   19.482697100
    1.750584307   16.509571555   16.181244635   19.585091542
    1.757762938   16.557046819   16.254223107   19.677442048
    1.764941569   16.481898709   16.324380467   19.746733347
    1.772120200   16.396847928   16.394015307   19.806281991
    1.779298831   16.429025383   16.466879218   19.889528781
    1.786477462   16.524155464   16.542836193   19.993394074
    1.793656093   16.632838657   16.620936267   20.106570494
    1.800834725   16.738080106   16.699731012   20.225966223
    1.808013356   16.827797796   16.774580256   20.351952671
    1.815191987   16.896843436   16.842727396   20.484636236
    1.822370618   16.975794821   16.917709420   20.618378027
    1.829549249   17.078924057   17.000116918   20.724378678
    1.836727880   17.193846990   17.072355119   20.749775761
    1.843906511   17.313630912   17.143180360   20.751971223
    1.851085142   17.423015060   17.226194794   20.825167174
    1.858263773   17.453467847   17.264930265   20.838645924
    1.865442404   17.284137010   17.165815449   20.596350917
    1.872621035   17.019596152   16.997428483   20.297333994
    1.879799666   16.924622707   16.937857948   20.266251115
    1.886978297   16.988694124   16.998437558   20.401188543
    1.894156928   17.107726775   17.106034638   20.577920917
    1.901335559   17.233648358   17.221227784   20.756464124
    1.908514190   17.353609003   17.332884195   20.924991522
    1.915692821   17.460409105   17.434623138   21.063404561
    1.922871452   17.540324959   17.514987176   21.123411578
    1.930050083   17.596676948   17.579904369   21.105953672
    1.937228715   17.663416914   17.654913073   21.115099836
    1.944407346   17.751916988   17.722840777   21.200545278
    1.951585977   17.852701080   17.769390089   21.331740363
    1.958764608   17.959880865   17.835225597   21.480031206
    1.965943239   18.072015730   17.929954878   21.635520142
    1.973121870   18.187707685   18.035686830   21.793765458
    1.980300501   18.302042823   18.142847530   21.952062219
    1.987479132   18.393971902   18.243398524   22.101041503
    1.994657763   18.413036442   18.327007296   22.219524594
    2.001836394   18.353971655   18.395081506   22.292173354
    2.009015025   18.349048120   18.463199071   22.329951535
    2.016193656   18.426448895   18.542541369   22.379201616
    2.023372287   18.528071635   18.632997609   22.467062831
    2.030550918   18.645664806   18.738271551   22.598986169
    2.037729549   18.784604125   18.857369061   22.770193185
    2.044908180   18.926726883   18.959627649   22.915015949
    2.052086811   19.044243938   19.009909223   22.962397834
    2.059265442   19.093363383   19.050116089   22.975314929
    2.066444073   18.979086591   19.112633741   22.992716428
    2.073622705   18.787862188   19.154712563   22.965729012
    2.080801336   18.767678316   19.194021346   22.977741285
    2.087979967   18.858134555   19.274117337   23.087169381
    2.095158598   18.955038137   19.371513109   23.238715636
    2.102337229   19.067346219   19.493795753   23.421130189
    2.109515860   19.205604827   19.644678674   23.631183528
    2.116694491   19.350281851   19.797437071   23.829916687
    2.123873122   19.488199256   19.920202741   23.957319627
    2.131051753   19.617588865   20.018811172   24.011481906
    2.138230384   19.754459352   20.158197647   24.133183114
    2.145409015   19.901907247   20.335488344   24.343125278
    2.152587646   20.045303858   20.507280058   24.574621328
    2.159766277   20.154653744   20.642925493   24.766112824
    2.166944908   20.198600862   20.745082208   24.876089815
    2.174123539   20.244772132   20.867152598   25.001755617
    2.181302170   20.348922372   20.995828588   25.188287204
    2.188480801   20.428218725   20.931802856   25.276974278
    2.195659432   20.433327368   20.622535403   25.192698964
    2.202838063   20.462993441   20.460996850   25.206583130
    2.210016694   20.528437368   20.508648114   25.359633679
    2.217195326   20.583431955   20.598756355   25.442516442
    2.224373957   20.663966018   20.739050021   25.483249864
    2.231552588   20.806232030   20.963929924   25.668886399
    2.238731219   20.982372068   21.232942550   25.947170136
    2.245909850   21.164613418   21.501968689   26.236125224
    2.253088481   21.336124703   21.714804833   26.474856555
    2.260267112   21.458092828   21.753444886   26.505113786
    2.267445743   21.532274894   21.660870580   26.383513997
    2.274624374   21.644848388   21.685953309   26.463589595
    2.281803005   21.798816854   21.814686417   26.727010266
    2.288981636   21.950494869   21.906589506   27.019070733
    2.296160267   22.085739113   21.958205954   27.268614054
    2.303338898   22.237045522   22.086610265   27.488132071
    2.310517529   22.408540263   22.318096452   27.724863301
    2.317696160   22.541623037   22.582876865   27.904302814
    2.324874791   22.580183353   22.804536648   27.961798935
    2.332053422   22.538370187   22.945183037   27.886800445
    2.339232053   22.585849969   23.071615371   27.892527525
    2.346410684   22.731662961   23.219926731   28.086931433
    2.353589316   22.907003467   23.355221059   28.397806479
    2.360767947   23.066422809   23.358274728   28.697334988
    2.367946578   23.240668586   23.351999404   28.990063735
    2.375125209   23.468274409   23.531439941   29.322548016
    2.382303840   23.702642868   23.841595967   29.686692753
    2.389482471   23.865883844   24.179958821   30.023715820
    2.396661102   23.972113745   24.504835591   30.302722555
    2.403839733   24.164681299   24.837956951   30.602857915
    2.411018364   24.431537362   25.143963760   30.921387098
    2.418196995   24.674823399   25.352239932   31.171163625
    2.425375626   24.799115654   25.409340451   31.317891562
    2.432554257   24.864463679   25.423955942   31.458835953
    2.439732888   25.027884341   25.609172235   31.784991341
    2.446911519   25.263506079   25.666436673   32.136847401
    2.454090150   25.504969921   25.304846500   32.343109776
    2.461268781   25.789815265   24.988640207   32.581294312
    2.468447412   26.165134314   25.032578517   32.859348384
    2.475626043   26.599592249   25.220489469   32.976104867
    2.482804674   27.029563383   25.504303193   33.187943060
    2.489983306   27.279371374   25.817376778   33.525893207
    2.497161937   27.069650250   26.095683623   33.786482290
    2.504340568   26.621670062   26.413799814   33.985484658
    2.511519199   26.421888356   26.757323134   34.195969022
    2.518697830   26.160999510   27.030564774   34.164658067
    2.525876461   25.991117485   27.319191767   34.193044471
    2.533055092   26.285773396   27.760980302   34.733305597
    2.540233723   26.842398392   28.305165238   35.522028481
