# energy grid [eV]     ieps_x  ieps_y  ieps_z
#
    0.200000000    8.581574373    7.163519985    6.932407576
    0.207178631    8.579760199    7.162101898    6.931094897
    0.214357262    8.577883019    7.160634533    6.929736574
    0.221535893    8.575942933    7.159117964    6.928332674
    0.228714524    8.573940043    7.157552269    6.926883264
    0.235893155    8.571874454    7.155937527    6.925388414
    0.243071786    8.569746276    7.154273820    6.923848199
    0.250250417    8.567555621    7.152561233    6.922262692
    0.257429048    8.565302603    7.150799852    6.920631969
    0.264607679    8.562987341    7.148989766    6.918956112
    0.271786311    8.560609957    7.147131067    6.917235199
    0.278964942    8.558170576    7.145223849    6.915469316
    0.286143573    8.555669325    7.143268208    6.913658546
    0.293322204    8.553106335    7.141264242    6.911802977
    0.300500835    8.550481740    7.139212052    6.909902699
    0.307679466    8.547795677    7.137111742    6.907957804
    0.314858097    8.545048287    7.134963417    6.905968384
    0.322036728    8.542239711    7.132767185    6.903934536
    0.329215359    8.539370097    7.130523155    6.901856357
    0.336393990    8.536439594    7.128231440    6.899733947
    0.343572621    8.533448352    7.125892155    6.897567406
    0.350751252    8.530396528    7.123505416    6.895356840
    0.357929883    8.527284280    7.121071342    6.893102353
    0.365108514    8.524111767    7.118590054    6.890804054
    0.372287145    8.520879154    7.116061676    6.888462050
    0.379465776    8.517586607    7.113486333    6.886076455
    0.386644407    8.514234295    7.110864153    6.883647381
    0.393823038    8.510822391    7.108195265    6.881174943
    0.401001669    8.507351070    7.105479802    6.878659258
    0.408180301    8.503820509    7.102717896    6.876100447
    0.415358932    8.500230888    7.099909685    6.873498628
    0.422537563    8.496582392    7.097055307    6.870853926
    0.429716194    8.492875205    7.094154900    6.868166464
    0.436894825    8.489109516    7.091208609    6.865436370
    0.444073456    8.485285517    7.088216576    6.862663770
    0.451252087    8.481403400    7.085178948    6.859848796
    0.458430718    8.477463364    7.082095874    6.856991578
    0.465609349    8.473465605    7.078967502    6.854092250
    0.472787980    8.469410327    7.075793986    6.851150948
    0.479966611    8.465297732    7.072575479    6.848167808
    0.487145242    8.461128028    7.069312137    6.845142969
    0.494323873    8.456901423    7.066004117    6.842076571
    0.501502504    8.452618129    7.062651580    6.838968756
    0.508681135    8.448278360    7.059254687    6.835819669
    0.515859766    8.443882331    7.055813600    6.832629453
    0.523038397    8.439430261    7.052328485    6.829398256
    0.530217028    8.434922372    7.048799509    6.826126227
    0.537395659    8.430358886    7.045226841    6.822813516
    0.544574290    8.425740029    7.041610649    6.819460274
    0.551752922    8.421066028    7.037951108    6.816066654
    0.558931553    8.416337113    7.034248389    6.812632812
    0.566110184    8.411553517    7.030502669    6.809158903
    0.573288815    8.406715474    7.026714125    6.805645085
    0.580467446    8.401823220    7.022882935    6.802091518
    0.587646077    8.396876993    7.019009280    6.798498363
    0.594824708    8.391877035    7.015093342    6.794865781
    0.602003339    8.386823587    7.011135303    6.791193936
    0.609181970    8.381716895    7.007135349    6.787482993
    0.616360601    8.376557205    7.003093667    6.783733118
    0.623539232    8.371344766    6.999010444    6.779944480
    0.630717863    8.366079827    6.994885871    6.776117246
    0.637896494    8.360762642    6.990720137    6.772251589
    0.645075125    8.355393465    6.986513436    6.768347679
    0.652253756    8.349972552    6.982265961    6.764405690
    0.659432387    8.344500161    6.977977907    6.760425796
    0.666611018    8.338976551    6.973649472    6.756408173
    0.673789649    8.333401983    6.969280852    6.752352996
    0.680968280    8.327776722    6.964872248    6.748260446
    0.688146912    8.322101032    6.960423860    6.744130700
    0.695325543    8.316375179    6.955935889    6.739963939
    0.702504174    8.310599431    6.951408540    6.735760345
    0.709682805    8.304774059    6.946842015    6.731520100
    0.716861436    8.298899333    6.942236522    6.727243389
    0.724040067    8.292975526    6.937592266    6.722930397
    0.731218698    8.287002913    6.932909456    6.718581308
    0.738397329    8.280981769    6.928188300    6.714196312
    0.745575960    8.274912371    6.923429010    6.709775595
    0.752754591    8.268794999    6.918631796    6.705319347
    0.759933222    8.262629932    6.913796870    6.700827759
    0.767111853    8.256417451    6.908924447    6.696301021
    0.774290484    8.250157840    6.904014740    6.691739325
    0.781469115    8.243851381    6.899067966    6.687142865
    0.788647746    8.237498361    6.894084340    6.682511835
    0.795826377    8.231099066    6.889064081    6.677846430
    0.803005008    8.224653783    6.884007406    6.673146845
    0.810183639    8.218162802    6.878914536    6.668413278
    0.817362270    8.211626411    6.873785690    6.663645925
    0.824540902    8.205044903    6.868621089    6.658844986
    0.831719533    8.198418570    6.863420956    6.654010659
    0.838898164    8.191747703    6.858185512    6.649143145
    0.846076795    8.185032599    6.852914983    6.644242644
    0.853255426    8.178273551    6.847609593    6.639309358
    0.860434057    8.171470857    6.842269565    6.634343489
    0.867612688    8.164624812    6.836895128    6.629345239
    0.874791319    8.157735715    6.831486506    6.624314814
    0.881969950    8.150803865    6.826043928    6.619252417
    0.889148581    8.143829562    6.820567621    6.614158253
    0.896327212    8.136813105    6.815057815    6.609032527
    0.903505843    8.129754796    6.809514738    6.603875447
    0.910684474    8.122654937    6.803938621    6.598687219
    0.917863105    8.115513831    6.798329694    6.593468049
    0.925041736    8.108331781    6.792688188    6.588218148
    0.932220367    8.101109090    6.787014334    6.582937722
    0.939398998    8.093846064    6.781308366    6.577626981
    0.946577629    8.086543009    6.775570515    6.572286134
    0.953756260    8.079200228    6.769801015    6.566915392
    0.960934891    8.071818030    6.764000099    6.561514965
    0.968113523    8.064396720    6.758168002    6.556085065
    0.975292154    8.056936607    6.752304957    6.550625901
    0.982470785    8.049437997    6.746411200    6.545137687
    0.989649416    8.041901200    6.740486967    6.539620635
    0.996828047    8.034326523    6.734532492    6.534074956
    1.004006678    8.026714277    6.728548011    6.528500865
    1.011185309    8.019064769    6.722533761    6.522898574
    1.018363940    8.011378310    6.716489978    6.517268296
    1.025542571    8.003655210    6.710416900    6.511610247
    1.032721202    7.995895779    6.704314762    6.505924639
    1.039899833    7.988100327    6.698183803    6.500211688
    1.047078464    7.980269165    6.692024260    6.494471608
    1.054257095    7.972402604    6.685836371    6.488704614
    1.061435726    7.964500955    6.679620373    6.482910920
    1.068614357    7.956564529    6.673376505    6.477090744
    1.075792988    7.948593637    6.667105004    6.471244299
    1.082971619    7.940588591    6.660806110    6.465371802
    1.090150250    7.932549701    6.654480059    6.459473468
    1.097328881    7.924477280    6.648127092    6.453549514
    1.104507513    7.916371639    6.641747445    6.447600155
    1.111686144    7.908233088    6.635341359    6.441625608
    1.118864775    7.900061940    6.628909071    6.435626088
    1.126043406    7.891858505    6.622450820    6.429601812
    1.133222037    7.883623095    6.615966844    6.423552997
    1.140400668    7.875356021    6.609457382    6.417479859
    1.147579299    7.867057594    6.602922673    6.411382613
    1.154757930    7.858728124    6.596362954    6.405261477
    1.161936561    7.850367922    6.589778464    6.399116667
    1.169115192    7.841977298    6.583169442    6.392948398
    1.176293823    7.833556562    6.576536125    6.386756888
    1.183472454    7.825106024    6.569878751    6.380542353
    1.190651085    7.816625994    6.563197558    6.374305008
    1.197829716    7.808116781    6.556492784    6.368045069
    1.205008347    7.799578694    6.549764665    6.361762753
    1.212186978    7.791012041    6.543013440    6.355458275
    1.219365609    7.782417130    6.536239345    6.349131851
    1.226544240    7.773794270    6.529442616    6.342783696
    1.233722871    7.765143767    6.522623491    6.336414026
    1.240901503    7.756465929    6.515782205    6.330023055
    1.248080134    7.747761062    6.508918994    6.323610999
    1.255258765    7.739029472    6.502034094    6.317178071
    1.262437396    7.730271465    6.495127740    6.310724488
    1.269616027    7.721487345    6.488200167    6.304250462
    1.276794658    7.712677417    6.481251610    6.297756208
    1.283973289    7.703841984    6.474282302    6.291241939
    1.291151920    7.694981351    6.467292478    6.284707869
    1.298330551    7.686095820    6.460282371    6.278154211
    1.305509182    7.677185694    6.453252214    6.271581178
    1.312687813    7.668251272    6.446202239    6.264988981
    1.319866444    7.659292857    6.439132679    6.258377834
    1.327045075    7.650310748    6.432043765    6.251747948
    1.334223706    7.641305246    6.424935729    6.245099534
    1.341402337    7.632276648    6.417808802    6.238432804
    1.348580968    7.623225253    6.410663213    6.231747968
    1.355759599    7.614151359    6.403499192    6.225045235
    1.362938230    7.605055260    6.396316969    6.218324817
    1.370116861    7.595937255    6.389116772    6.211586923
    1.377295492    7.586797637    6.381898830    6.204831761
    1.384474124    7.577636701    6.374663369    6.198059540
    1.391652755    7.568454739    6.367410618    6.191270468
    1.398831386    7.559252046    6.360140802    6.184464753
    1.406010017    7.550028911    6.352854147    6.177642601
    1.413188648    7.540785627    6.345550878    6.170804220
    1.420367279    7.531522483    6.338231221    6.163949815
    1.427545910    7.522239768    6.330895399    6.157079593
    1.434724541    7.512937771    6.323543635    6.150193758
    1.441903172    7.503616778    6.316176152    6.143292514
    1.449081803    7.494277076    6.308793172    6.136376067
    1.456260434    7.484918950    6.301394917    6.129444619
    1.463439065    7.475542684    6.293981607    6.122498372
    1.470617696    7.466148562    6.286553461    6.115537531
    1.477796327    7.456736867    6.279110701    6.108562295
    1.484974958    7.447307879    6.271653543    6.101572867
    1.492153589    7.437861879    6.264182206    6.094569447
    1.499332220    7.428399147    6.256696906    6.087552234
    1.506510851    7.418919960    6.249197861    6.080521429
    1.513689482    7.409424596    6.241685286    6.073477229
    1.520868114    7.399913332    6.234159395    6.066419834
    1.528046745    7.390386441    6.226620402    6.059349439
    1.535225376    7.380844199    6.219068522    6.052266243
    1.542404007    7.371286878    6.211503966    6.045170441
    1.549582638    7.361714750    6.203926946    6.038062228
    1.556761269    7.352128086    6.196337673    6.030941799
    1.563939900    7.342527155    6.188736357    6.023809349
    1.571118531    7.332912226    6.181123208    6.016665071
    1.578297162    7.323283566    6.173498433    6.009509156
    1.585475793    7.313641441    6.165862240    6.002341798
    1.592654424    7.303986116    6.158214837    5.995163187
    1.599833055    7.294317855    6.150556428    5.987973514
    1.607011686    7.284636920    6.142887219    5.980772969
    1.614190317    7.274943574    6.135207414    5.973561741
    1.621368948    7.265238075    6.127517217    5.966340017
    1.628547579    7.255520684    6.119816829    5.959107986
    1.635726210    7.245791657    6.112106453    5.951865835
    1.642904841    7.236051252    6.104386288    5.944613748
    1.650083472    7.226299724    6.096656535    5.937351912
    1.657262104    7.216537326    6.088917392    5.930080512
    1.664440735    7.206764312    6.081169058    5.922799730
    1.671619366    7.196980934    6.073411729    5.915509749
    1.678797997    7.187187440    6.065645601    5.908210752
    1.685976628    7.177384082    6.057870870    5.900902921
    1.693155259    7.167571106    6.050087729    5.893586434
    1.700333890    7.157748758    6.042296372    5.886261473
    1.707512521    7.147917285    6.034496991    5.878928216
    1.714691152    7.138076930    6.026689778    5.871586841
    1.721869783    7.128227935    6.018874923    5.864237526
    1.729048414    7.118370542    6.011052616    5.856880446
    1.736227045    7.108504991    6.003223044    5.849515777
    1.743405676    7.098631521    5.995386396    5.842143695
    1.750584307    7.088750368    5.987542858    5.834764372
    1.757762938    7.078861770    5.979692615    5.827377982
    1.764941569    7.068965960    5.971835853    5.819984698
    1.772120200    7.059063173    5.963972754    5.812584690
    1.779298831    7.049153639    5.956103501    5.805178129
    1.786477462    7.039237591    5.948228277    5.797765184
    1.793656093    7.029315257    5.940347262    5.790346025
    1.800834725    7.019386865    5.932460634    5.782920820
    1.808013356    7.009452642    5.924568574    5.775489734
    1.815191987    6.999512813    5.916671258    5.768052935
    1.822370618    6.989567603    5.908768864    5.760610587
    1.829549249    6.979617234    5.900861566    5.753162856
    1.836727880    6.969661927    5.892949540    5.745709903
    1.843906511    6.959701902    5.885032959    5.738251893
    1.851085142    6.949737377    5.877111996    5.730788987
    1.858263773    6.939768571    5.869186822    5.723321346
    1.865442404    6.929795697    5.861257608    5.715849128
    1.872621035    6.919818972    5.853324523    5.708372495
    1.879799666    6.909838608    5.845387736    5.700891603
    1.886978297    6.899854817    5.837447414    5.693406610
    1.894156928    6.889867808    5.829503724    5.685917673
    1.901335559    6.879877792    5.821556832    5.678424946
    1.908514190    6.869884975    5.813606901    5.670928584
    1.915692821    6.859889563    5.805654095    5.663428741
    1.922871452    6.849891762    5.797698576    5.655925569
    1.930050083    6.839891775    5.789740506    5.648419221
    1.937228715    6.829889803    5.781780045    5.640909847
    1.944407346    6.819886048    5.773817353    5.633397597
    1.951585977    6.809880709    5.765852586    5.625882620
    1.958764608    6.799873983    5.757885903    5.618365064
    1.965943239    6.789866068    5.749917460    5.610845076
    1.973121870    6.779857157    5.741947411    5.603322804
    1.980300501    6.769847446    5.733975912    5.595798391
    1.987479132    6.759837125    5.726003114    5.588271983
    1.994657763    6.749826388    5.718029170    5.580743723
    2.001836394    6.739815422    5.710054231    5.573213753
    2.009015025    6.729804416    5.702078446    5.565682216
    2.016193656    6.719793557    5.694101965    5.558149252
    2.023372287    6.709783030    5.686124935    5.550615000
    2.030550918    6.699773020    5.678147504    5.543079601
    2.037729549    6.689763709    5.670169816    5.535543191
    2.044908180    6.679755278    5.662192018    5.528005908
    2.052086811    6.669747908    5.654214251    5.520467888
    2.059265442    6.659741777    5.646236660    5.512929266
    2.066444073    6.649737063    5.638259385    5.505390177
    2.073622705    6.639733941    5.630282568    5.497850753
    2.080801336    6.629732585    5.622306347    5.490311128
    2.087979967    6.619733170    5.614330862    5.482771432
    2.095158598    6.609735865    5.606356249    5.475231797
    2.102337229    6.599740844    5.598382646    5.467692353
    2.109515860    6.589748273    5.590410188    5.460153227
    2.116694491    6.579758321    5.582439009    5.452614547
    2.123873122    6.569771154    5.574469243    5.445076442
    2.131051753    6.559786938    5.566501022    5.437539036
    2.138230384    6.549805836    5.558534477    5.430002455
    2.145409015    6.539828010    5.550569739    5.422466823
    2.152587646    6.529853621    5.542606937    5.414932263
    2.159766277    6.519882830    5.534646199    5.407398897
    2.166944908    6.509915793    5.526687653    5.399866848
    2.174123539    6.499952669    5.518731425    5.392336235
    2.181302170    6.489993613    5.510777641    5.384807179
    2.188480801    6.480038780    5.502826424    5.377279797
    2.195659432    6.470088322    5.494877897    5.369754208
    2.202838063    6.460142391    5.486932184    5.362230529
    2.210016694    6.450201138    5.478989406    5.354708875
    2.217195326    6.440264711    5.471049682    5.347189362
    2.224373957    6.430333259    5.463113131    5.339672105
    2.231552588    6.420406928    5.455179873    5.332157215
    2.238731219    6.410485864    5.447250025    5.324644806
    2.245909850    6.400570209    5.439323703    5.317134989
    2.253088481    6.390660107    5.431401021    5.309627875
    2.260267112    6.380755700    5.423482095    5.302123573
    2.267445743    6.370857126    5.415567038    5.294622193
    2.274624374    6.360964526    5.407655962    5.287123843
    2.281803005    6.351078036    5.399748979    5.279628628
    2.288981636    6.341197793    5.391846199    5.272136657
    2.296160267    6.331323932    5.383947732    5.264648033
    2.303338898    6.321456586    5.376053685    5.257162862
    2.310517529    6.311595888    5.368164168    5.249681246
    2.317696160    6.301741969    5.360279285    5.242203290
    2.324874791    6.291894960    5.352399143    5.234729093
    2.332053422    6.282054988    5.344523847    5.227258759
    2.339232053    6.272222182    5.336653500    5.219792385
    2.346410684    6.262396668    5.328788206    5.212330073
    2.353589316    6.252578570    5.320928065    5.204871920
    2.360767947    6.242768013    5.313073179    5.197418023
    2.367946578    6.232965119    5.305223647    5.189968480
    2.375125209    6.223170010    5.297379570    5.182523386
    2.382303840    6.213382806    5.289541044    5.175082836
    2.389482471    6.203603626    5.281708168    5.167646924
    2.396661102    6.193832587    5.273881037    5.160215743
    2.403839733    6.184069807    5.266059747    5.152789387
    2.411018364    6.174315400    5.258244391    5.145367946
    2.418196995    6.164569481    5.250435065    5.137951512
    2.425375626    6.154832164    5.242631860    5.130540173
    2.432554257    6.145103559    5.234834867    5.123134020
    2.439732888    6.135383778    5.227044179    5.115733141
    2.446911519    6.125672930    5.219259884    5.108337622
    2.454090150    6.115971124    5.211482072    5.100947552
    2.461268781    6.106278467    5.203710831    5.093563015
    2.468447412    6.096595066    5.195946247    5.086184096
    2.475626043    6.086921024    5.188188409    5.078810880
    2.482804674    6.077256447    5.180437400    5.071443450
    2.489983306    6.067601436    5.172693306    5.064081889
    2.497161937    6.057956094    5.164956210    5.056726279
    2.504340568    6.048320520    5.157226195    5.049376700
    2.511519199    6.038694815    5.149503344    5.042033233
    2.518697830    6.029079077    5.141787737    5.034695957
    2.525876461    6.019473403    5.134079454    5.027364950
    2.533055092    6.009877888    5.126378576    5.020040292
    2.540233723    6.000292629    5.118685181    5.012722058
