# energy grid [eV]     ieps_x  ieps_y  ieps_z
#
    0.200000000    6.940433059    8.641235046    7.053398310
    0.207178631    6.939112006    8.639411098    7.052034484
    0.214357262    6.937745023    8.637523804    7.050623251
    0.221535893    6.936332177    8.635573263    7.049164682
    0.228714524    6.934873538    8.633559579    7.047658850
    0.235893155    6.933369177    8.631482857    7.046105830
    0.243071786    6.931819167    8.629343207    7.044505699
    0.250250417    6.930223584    8.627140741    7.042858536
    0.257429048    6.928582507    8.624875575    7.041164424
    0.264607679    6.926896015    8.622547829    7.039423445
    0.271786311    6.925164191    8.620157623    7.037635688
    0.278964942    6.923387119    8.617705084    7.035801240
    0.286143573    6.921564886    8.615190340    7.033920191
    0.293322204    6.919697581    8.612613521    7.031992635
    0.300500835    6.917785293    8.609974764    7.030018668
    0.307679466    6.915828116    8.607274205    7.027998385
    0.314858097    6.913826145    8.604511984    7.025931888
    0.322036728    6.911779477    8.601688246    7.023819276
    0.329215359    6.909688211    8.598803138    7.021660655
    0.336393990    6.907552447    8.595856809    7.019456130
    0.343572621    6.905372289    8.592849411    7.017205809
    0.350751252    6.903147841    8.589781101    7.014909802
    0.357929883    6.900879212    8.586652036    7.012568221
    0.365108514    6.898566510    8.583462379    7.010181182
    0.372287145    6.896209845    8.580212294    7.007748799
    0.379465776    6.893809331    8.576901948    7.005271192
    0.386644407    6.891365083    8.573531510    7.002748480
    0.393823038    6.888877218    8.570101155    7.000180787
    0.401001669    6.886345854    8.566611057    6.997568236
    0.408180301    6.883771112    8.563061395    6.994910955
    0.415358932    6.881153114    8.559452350    6.992209071
    0.422537563    6.878491985    8.555784107    6.989462715
    0.429716194    6.875787851    8.552056851    6.986672019
    0.436894825    6.873040841    8.548270773    6.983837117
    0.444073456    6.870251083    8.544426063    6.980958145
    0.451252087    6.867418710    8.540522918    6.978035242
    0.458430718    6.864543856    8.536561533    6.975068547
    0.465609349    6.861626655    8.532542109    6.972058202
    0.472787980    6.858667244    8.528464849    6.969004351
    0.479966611    6.855665763    8.524329956    6.965907138
    0.487145242    6.852622351    8.520137638    6.962766711
    0.494323873    6.849537152    8.515888106    6.959583218
    0.501502504    6.846410309    8.511581572    6.956356812
    0.508681135    6.843241966    8.507218249    6.953087643
    0.515859766    6.840032273    8.502798356    6.949775866
    0.523038397    6.836781377    8.498322112    6.946421637
    0.530217028    6.833489429    8.493789738    6.943025114
    0.537395659    6.830156582    8.489201459    6.939586455
    0.544574290    6.826782988    8.484557502    6.936105822
    0.551752922    6.823368803    8.479858094    6.932583377
    0.558931553    6.819914184    8.475103467    6.929019284
    0.566110184    6.816419289    8.470293854    6.925413709
    0.573288815    6.812884278    8.465429490    6.921766819
    0.580467446    6.809309312    8.460510613    6.918078784
    0.587646077    6.805694555    8.455537461    6.914349773
    0.594824708    6.802040170    8.450510278    6.910579958
    0.602003339    6.798346323    8.445429305    6.906769513
    0.609181970    6.794613181    8.440294790    6.902918612
    0.616360601    6.790840913    8.435106979    6.899027432
    0.623539232    6.787029688    8.429866123    6.895096151
    0.630717863    6.783179679    8.424572472    6.891124948
    0.637896494    6.779291057    8.419226281    6.887114003
    0.645075125    6.775363997    8.413827805    6.883063498
    0.652253756    6.771398674    8.408377300    6.878973617
    0.659432387    6.767395264    8.402875026    6.874844545
    0.666611018    6.763353945    8.397321244    6.870676466
    0.673789649    6.759274896    8.391716217    6.866469569
    0.680968280    6.755158298    8.386060208    6.862224042
    0.688146912    6.751004332    8.380353483    6.857940074
    0.695325543    6.746813181    8.374596310    6.853617858
    0.702504174    6.742585028    8.368788959    6.849257584
    0.709682805    6.738320059    8.362931700    6.844859446
    0.716861436    6.734018459    8.357024806    6.840423639
    0.724040067    6.729680417    8.351068550    6.835950358
    0.731218698    6.725306120    8.345063208    6.831439801
    0.738397329    6.720895758    8.339009058    6.826892165
    0.745575960    6.716449520    8.332906377    6.822307649
    0.752754591    6.711967600    8.326755445    6.817686454
    0.759933222    6.707450189    8.320556544    6.813028780
    0.767111853    6.702897480    8.314309956    6.808334829
    0.774290484    6.698309669    8.308015964    6.803604805
    0.781469115    6.693686950    8.301674855    6.798838912
    0.788647746    6.689029521    8.295286914    6.794037355
    0.795826377    6.684337577    8.288852430    6.789200340
    0.803005008    6.679611318    8.282371691    6.784328073
    0.810183639    6.674850942    8.275844986    6.779420763
    0.817362270    6.670056650    8.269272609    6.774478618
    0.824540902    6.665228642    8.262654849    6.769501847
    0.831719533    6.660367119    8.255992002    6.764490662
    0.838898164    6.655472284    8.249284361    6.759445273
    0.846076795    6.650544339    8.242532222    6.754365892
    0.853255426    6.645583490    8.235735881    6.749252733
    0.860434057    6.640589940    8.228895636    6.744106007
    0.867612688    6.635563895    8.222011785    6.738925930
    0.874791319    6.630505560    8.215084627    6.733712717
    0.881969950    6.625415143    8.208114462    6.728466583
    0.889148581    6.620292850    8.201101592    6.723187744
    0.896327212    6.615138889    8.194046317    6.717876417
    0.903505843    6.609953470    8.186948940    6.712532820
    0.910684474    6.604736801    8.179809765    6.707157170
    0.917863105    6.599489091    8.172629096    6.701749687
    0.925041736    6.594210552    8.165407237    6.696310590
    0.932220367    6.588901394    8.158144493    6.690840099
    0.939398998    6.583561829    8.150841171    6.685338433
    0.946577629    6.578192067    8.143497577    6.679805814
    0.953756260    6.572792323    8.136114017    6.674242463
    0.960934891    6.567362807    8.128690801    6.668648601
    0.968113523    6.561903734    8.121228235    6.663024451
    0.975292154    6.556415317    8.113726629    6.657370236
    0.982470785    6.550897770    8.106186291    6.651686179
    0.989649416    6.545351308    8.098607532    6.645972502
    0.996828047    6.539776146    8.090990661    6.640229429
    1.004006678    6.534172498    8.083335988    6.634457186
    1.011185309    6.528540580    8.075643825    6.628655995
    1.018363940    6.522880608    8.067914481    6.622826083
    1.025542571    6.517192797    8.060148269    6.616967673
    1.032721202    6.511477365    8.052345500    6.611080991
    1.039899833    6.505734528    8.044506486    6.605166263
    1.047078464    6.499964503    8.036631538    6.599223714
    1.054257095    6.494167506    8.028720969    6.593253570
    1.061435726    6.488343756    8.020775091    6.587256058
    1.068614357    6.482493469    8.012794217    6.581231404
    1.075792988    6.476616863    8.004778659    6.575179833
    1.082971619    6.470714156    7.996728730    6.569101573
    1.090150250    6.464785566    7.988644743    6.562996851
    1.097328881    6.458831311    7.980527009    6.556865893
    1.104507513    6.452851608    7.972375843    6.550708926
    1.111686144    6.446846677    7.964191557    6.544526177
    1.118864775    6.440816736    7.955974463    6.538317873
    1.126043406    6.434762002    7.947724874    6.532084241
    1.133222037    6.428682694    7.939443102    6.525825508
    1.140400668    6.422579031    7.931129460    6.519541901
    1.147579299    6.416451231    7.922784260    6.513233647
    1.154757930    6.410299512    7.914407815    6.506900974
    1.161936561    6.404124093    7.906000435    6.500544107
    1.169115192    6.397925191    7.897562433    6.494163274
    1.176293823    6.391703025    7.889094120    6.487758701
    1.183472454    6.385457814    7.880595807    6.481330615
    1.190651085    6.379189774    7.872067805    6.474879243
    1.197829716    6.372899125    7.863510425    6.468404811
    1.205008347    6.366586084    7.854923977    6.461907544
    1.212186978    6.360250868    7.846308771    6.455387670
    1.219365609    6.353893695    7.837665116    6.448845414
    1.226544240    6.347514782    7.828993321    6.442281002
    1.233722871    6.341114347    7.820293695    6.435694658
    1.240901503    6.334692606    7.811566547    6.429086609
    1.248080134    6.328249776    7.802812184    6.422457078
    1.255258765    6.321786074    7.794030913    6.415806292
    1.262437396    6.315301715    7.785223042    6.409134474
    1.269616027    6.308796917    7.776388876    6.402441848
    1.276794658    6.302271894    7.767528722    6.395728638
    1.283973289    6.295726861    7.758642884    6.388995067
    1.291151920    6.289162035    7.749731668    6.382241359
    1.298330551    6.282577629    7.740795377    6.375467737
    1.305509182    6.275973859    7.731834315    6.368674423
    1.312687813    6.269350938    7.722848785    6.361861638
    1.319866444    6.262709081    7.713839088    6.355029605
    1.327045075    6.256048500    7.704805527    6.348178545
    1.334223706    6.249369409    7.695748401    6.341308679
    1.341402337    6.242672020    7.686668012    6.334420226
    1.348580968    6.235956545    7.677564658    6.327513408
    1.355759599    6.229223198    7.668438638    6.320588443
    1.362938230    6.222472188    7.659290251    6.313645551
    1.370116861    6.215703726    7.650119792    6.306684950
    1.377295492    6.208918025    7.640927559    6.299706858
    1.384474124    6.202115292    7.631713847    6.292711493
    1.391652755    6.195295739    7.622478950    6.285699072
    1.398831386    6.188459574    7.613223163    6.278669811
    1.406010017    6.181607005    7.603946778    6.271623927
    1.413188648    6.174738241    7.594650087    6.264561634
    1.420367279    6.167853490    7.585333383    6.257483149
    1.427545910    6.160952958    7.575996954    6.250388684
    1.434724541    6.154036852    7.566641091    6.243278453
    1.441903172    6.147105378    7.557266082    6.236152671
    1.449081803    6.140158741    7.547872215    6.229011549
    1.456260434    6.133197147    7.538459776    6.221855299
    1.463439065    6.126220799    7.529029051    6.214684133
    1.470617696    6.119229900    7.519580324    6.207498261
    1.477796327    6.112224655    7.510113879    6.200297893
    1.484974958    6.105205266    7.500629999    6.193083238
    1.492153589    6.098171934    7.491128966    6.185854506
    1.499332220    6.091124861    7.481611060    6.178611904
    1.506510851    6.084064247    7.472076560    6.171355640
    1.513689482    6.076990292    7.462525746    6.164085920
    1.520868114    6.069903195    7.452958894    6.156802950
    1.528046745    6.062803155    7.443376281    6.149506935
    1.535225376    6.055690371    7.433778182    6.142198081
    1.542404007    6.048565039    7.424164872    6.134876590
    1.549582638    6.041427355    7.414536623    6.127542665
    1.556761269    6.034277516    7.404893707    6.120196510
    1.563939900    6.027115717    7.395236396    6.112838325
    1.571118531    6.019942153    7.385564959    6.105468312
    1.578297162    6.012757016    7.375879663    6.098086670
    1.585475793    6.005560501    7.366180778    6.090693599
    1.592654424    5.998352799    7.356468569    6.083289297
    1.599833055    5.991134102    7.346743300    6.075873962
    1.607011686    5.983904601    7.337005236    6.068447791
    1.614190317    5.976664486    7.327254640    6.061010979
    1.621368948    5.969413945    7.317491772    6.053563723
    1.628547579    5.962153169    7.307716894    6.046106216
    1.635726210    5.954882343    7.297930263    6.038638653
    1.642904841    5.947601657    7.288132138    6.031161225
    1.650083472    5.940311294    7.278322775    6.023674126
    1.657262104    5.933011442    7.268502430    6.016177546
    1.664440735    5.925702284    7.258671356    6.008671675
    1.671619366    5.918384005    7.248829806    6.001156703
    1.678797997    5.911056787    7.238978033    5.993632819
    1.685976628    5.903720812    7.229116285    5.986100211
    1.693155259    5.896376262    7.219244812    5.978559064
    1.700333890    5.889023318    7.209363862    5.971009565
    1.707512521    5.881662159    7.199473680    5.963451900
    1.714691152    5.874292963    7.189574513    5.955886253
    1.721869783    5.866915910    7.179666604    5.948312806
    1.729048414    5.859531176    7.169750194    5.940731742
    1.736227045    5.852138937    7.159825527    5.933143243
    1.743405676    5.844739369    7.149892840    5.925547490
    1.750584307    5.837332647    7.139952373    5.917944662
    1.757762938    5.829918944    7.130004364    5.910334938
    1.764941569    5.822498434    7.120049047    5.902718496
    1.772120200    5.815071288    7.110086657    5.895095513
    1.779298831    5.807637677    7.100117428    5.887466165
    1.786477462    5.800197772    7.090141592    5.879830628
    1.793656093    5.792751742    7.080159378    5.872189075
    1.800834725    5.785299756    7.070171017    5.864541679
    1.808013356    5.777841981    7.060176735    5.856888614
    1.815191987    5.770378585    7.050176760    5.849230051
    1.822370618    5.762909732    7.040171316    5.841566159
    1.829549249    5.755435588    7.030160627    5.833897110
    1.836727880    5.747956317    7.020144915    5.826223070
    1.843906511    5.740472082    7.010124402    5.818544209
    1.851085142    5.732983045    7.000099307    5.810860692
    1.858263773    5.725489368    6.990069849    5.803172685
    1.865442404    5.717991211    6.980036244    5.795480354
    1.872621035    5.710488734    6.969998707    5.787783861
    1.879799666    5.702982096    6.959957453    5.780083371
    1.886978297    5.695471453    6.949912695    5.772379044
    1.894156928    5.687956963    6.939864644    5.764671043
    1.901335559    5.680438781    6.929813509    5.756959525
    1.908514190    5.672917063    6.919759500    5.749244652
    1.915692821    5.665391963    6.909702824    5.741526581
    1.922871452    5.657863634    6.899643687    5.733805469
    1.930050083    5.650332227    6.889582292    5.726081471
    1.937228715    5.642797895    6.879518844    5.718354745
    1.944407346    5.635260787    6.869453544    5.710625442
    1.951585977    5.627721054    6.859386591    5.702893717
    1.958764608    5.620178842    6.849318186    5.695159722
    1.965943239    5.612634301    6.839248525    5.687423609
    1.973121870    5.605087576    6.829177805    5.679685526
    1.980300501    5.597538813    6.819106220    5.671945625
    1.987479132    5.589988158    6.809033964    5.664204052
    1.994657763    5.582435753    6.798961229    5.656460956
    2.001836394    5.574881742    6.788888205    5.648716483
    2.009015025    5.567326266    6.778815081    5.640970779
    2.016193656    5.559769468    6.768742047    5.633223986
    2.023372287    5.552211486    6.758669287    5.625476250
    2.030550918    5.544652460    6.748596987    5.617727713
    2.037729549    5.537092528    6.738525331    5.609978516
    2.044908180    5.529531827    6.728454501    5.602228799
    2.052086811    5.521970495    6.718384678    5.594478703
    2.059265442    5.514408665    6.708316042    5.586728365
    2.066444073    5.506846473    6.698248770    5.578977924
    2.073622705    5.499284053    6.688183040    5.571227516
    2.080801336    5.491721536    6.678119027    5.563477277
    2.087979967    5.484159055    6.668056905    5.555727341
    2.095158598    5.476596741    6.657996848    5.547977842
    2.102337229    5.469034722    6.647939025    5.540228912
    2.109515860    5.461473129    6.637883608    5.532480685
    2.116694491    5.453912089    6.627830765    5.524733290
    2.123873122    5.446351728    6.617780664    5.516986857
    2.131051753    5.438792174    6.607733470    5.509241515
    2.138230384    5.431233552    6.597689348    5.501497392
    2.145409015    5.423675985    6.587648461    5.493754615
    2.152587646    5.416119597    6.577610971    5.486013310
    2.159766277    5.408564511    6.567577039    5.478273602
    2.166944908    5.401010848    6.557546824    5.470535615
    2.174123539    5.393458728    6.547520484    5.462799472
    2.181302170    5.385908272    6.537498175    5.455065295
    2.188480801    5.378359597    6.527480054    5.447333206
    2.195659432    5.370812823    6.517466273    5.439603325
    2.202838063    5.363268065    6.507456985    5.431875770
    2.210016694    5.355725440    6.497452343    5.424150661
    2.217195326    5.348185063    6.487452495    5.416428115
    2.224373957    5.340647048    6.477457590    5.408708248
    2.231552588    5.333111509    6.467467776    5.400991176
    2.238731219    5.325578557    6.457483199    5.393277012
    2.245909850    5.318048305    6.447504004    5.385565872
    2.253088481    5.310520862    6.437530334    5.377857868
    2.260267112    5.302996339    6.427562331    5.370153111
    2.267445743    5.295474845    6.417600137    5.362451712
    2.274624374    5.287956487    6.407643891    5.354753781
    2.281803005    5.280441372    6.397693731    5.347059428
    2.288981636    5.272929607    6.387749794    5.339368760
    2.296160267    5.265421296    6.377812217    5.331681884
    2.303338898    5.257916545    6.367881134    5.323998907
    2.310517529    5.250415456    6.357956678    5.316319934
    2.317696160    5.242918132    6.348038981    5.308645069
    2.324874791    5.235424676    6.338128174    5.300974415
    2.332053422    5.227935187    6.328224387    5.293308077
    2.339232053    5.220449765    6.318327748    5.285646154
    2.346410684    5.212968511    6.308438384    5.277988749
    2.353589316    5.205491521    6.298556421    5.270335960
    2.360767947    5.198018895    6.288681984    5.262687887
    2.367946578    5.190550727    6.278815195    5.255044627
    2.375125209    5.183087113    6.268956178    5.247406279
    2.382303840    5.175628150    6.259105053    5.239772938
    2.389482471    5.168173930    6.249261940    5.232144700
    2.396661102    5.160724546    6.239426958    5.224521660
    2.403839733    5.153280091    6.229600224    5.216903911
    2.411018364    5.145840657    6.219781854    5.209291545
    2.418196995    5.138406333    6.209971964    5.201684656
    2.425375626    5.130977210    6.200170666    5.194083333
    2.432554257    5.123553376    6.190378075    5.186487668
    2.439732888    5.116134920    6.180594301    5.178897749
    2.446911519    5.108721929    6.170819454    5.171313666
    2.454090150    5.101314490    6.161053645    5.163735505
    2.461268781    5.093912687    6.151296980    5.156163353
    2.468447412    5.086516606    6.141549567    5.148597298
    2.475626043    5.079126331    6.131811512    5.141037422
    2.482804674    5.071741945    6.122082919    5.133483812
    2.489983306    5.064363530    6.112363892    5.125936550
    2.497161937    5.056991167    6.102654533    5.118395719
    2.504340568    5.049624939    6.092954943    5.110861401
    2.511519199    5.042264924    6.083265223    5.103333676
    2.518697830    5.034911202    6.073585471    5.095812626
    2.525876461    5.027563851    6.063915786    5.088298329
    2.533055092    5.020222949    6.054256264    5.080790863
    2.540233723    5.012888572    6.044607001    5.073290307
