# energy grid [eV]     ieps_x  ieps_y  ieps_z
#
    0.200000000   10.468751741   10.420024870    1.120369133
    0.207178631   10.466287868   10.417597847    1.120321464
    0.214357262   10.463738704   10.415086730    1.120272204
    0.221535893   10.461104412   10.412491673    1.120221361
    0.228714524   10.458385160   10.409812831    1.120168944
    0.235893155   10.455581120   10.407050367    1.120114963
    0.243071786   10.452692469   10.404204448    1.120059427
    0.250250417   10.449719389   10.401275244    1.120002347
    0.257429048   10.446662069   10.398262933    1.119943731
    0.264607679   10.443520699   10.395167696    1.119883590
    0.271786311   10.440295478   10.391989717    1.119821935
    0.278964942   10.436986606   10.388729187    1.119758775
    0.286143573   10.433594290   10.385386300    1.119694122
    0.293322204   10.430118742   10.381961257    1.119627986
    0.300500835   10.426560177   10.378454260    1.119560379
    0.307679466   10.422918815   10.374865519    1.119491311
    0.314858097   10.419194882   10.371195245    1.119420794
    0.322036728   10.415388607   10.367443656    1.119348839
    0.329215359   10.411500224   10.363610973    1.119275458
    0.336393990   10.407529970   10.359697423    1.119200662
    0.343572621   10.403478090   10.355703234    1.119124464
    0.350751252   10.399344829   10.351628642    1.119046876
    0.357929883   10.395130439   10.347473885    1.118967909
    0.365108514   10.390835175   10.343239205    1.118887575
    0.372287145   10.386459297   10.338924849    1.118805887
    0.379465776   10.382003068   10.334531068    1.118722857
    0.386644407   10.377466757   10.330058116    1.118638498
    0.393823038   10.372850634   10.325506253    1.118552822
    0.401001669   10.368154975   10.320875740    1.118465842
    0.408180301   10.363380060   10.316166845    1.118377570
    0.415358932   10.358526172   10.311379837    1.118288019
    0.422537563   10.353593598   10.306514992    1.118197201
    0.429716194   10.348582630   10.301572586    1.118105130
    0.436894825   10.343493560   10.296552901    1.118011819
    0.444073456   10.338326689   10.291456223    1.117917279
    0.451252087   10.333082317   10.286282841    1.117821525
    0.458430718   10.327760751   10.281033046    1.117724568
    0.465609349   10.322362297   10.275707136    1.117626423
    0.472787980   10.316887270   10.270305409    1.117527101
    0.479966611   10.311335984   10.264828168    1.117426616
    0.487145242   10.305708758   10.259275719    1.117324980
    0.494323873   10.300005914   10.253648373    1.117222207
    0.501502504   10.294227778   10.247946441    1.117118310
    0.508681135   10.288374679   10.242170240    1.117013301
    0.515859766   10.282446948   10.236320089    1.116907194
    0.523038397   10.276444919   10.230396311    1.116800001
    0.530217028   10.270368931   10.224399231    1.116691735
    0.537395659   10.264219325   10.218329178    1.116582408
    0.544574290   10.257996443   10.212186484    1.116472035
    0.551752922   10.251700633   10.205971482    1.116360627
    0.558931553   10.245332243   10.199684510    1.116248197
    0.566110184   10.238891626   10.193325909    1.116134758
    0.573288815   10.232379138   10.186896021    1.116020323
    0.580467446   10.225795134   10.180395194    1.115904903
    0.587646077   10.219139976   10.173823774    1.115788513
    0.594824708   10.212414026   10.167182114    1.115671163
    0.602003339   10.205617649   10.160470567    1.115552866
    0.609181970   10.198751212   10.153689490    1.115433636
    0.616360601   10.191815087   10.146839241    1.115313483
    0.623539232   10.184809645   10.139920183    1.115192421
    0.630717863   10.177735262   10.132932679    1.115070461
    0.637896494   10.170592314   10.125877096    1.114947616
    0.645075125   10.163381180   10.118753802    1.114823897
    0.652253756   10.156102243   10.111563167    1.114699316
    0.659432387   10.148755885   10.104305566    1.114573886
    0.666611018   10.141342492   10.096981374    1.114447617
    0.673789649   10.133862453   10.089590967    1.114320522
    0.680968280   10.126316156   10.082134726    1.114192613
    0.688146912   10.118703994   10.074613033    1.114063900
    0.695325543   10.111026360   10.067026270    1.113934395
    0.702504174   10.103283650   10.059374825    1.113804110
    0.709682805   10.095476260   10.051659083    1.113673055
    0.716861436   10.087604590   10.043879435    1.113541242
    0.724040067   10.079669040   10.036036273    1.113408683
    0.731218698   10.071670013   10.028129988    1.113275387
    0.738397329   10.063607913   10.020160976    1.113141366
    0.745575960   10.055483146   10.012129633    1.113006630
    0.752754591   10.047296117   10.004036357    1.112871191
    0.759933222   10.039047237    9.995881549    1.112735059
    0.767111853   10.030736915    9.987665609    1.112598244
    0.774290484   10.022365562    9.979388939    1.112460757
    0.781469115   10.013933591    9.971051946    1.112322608
    0.788647746   10.005441417    9.962655032    1.112183807
    0.795826377    9.996889454    9.954198607    1.112044365
    0.803005008    9.988278120    9.945683078    1.111904292
    0.810183639    9.979607832    9.937108855    1.111763596
    0.817362270    9.970879008    9.928476348    1.111622289
    0.824540902    9.962092070    9.919785970    1.111480380
    0.831719533    9.953247437    9.911038134    1.111337879
    0.838898164    9.944345532    9.902233254    1.111194795
    0.846076795    9.935386778    9.893371745    1.111051138
    0.853255426    9.926371599    9.884454024    1.110906917
    0.860434057    9.917300420    9.875480509    1.110762140
    0.867612688    9.908173666    9.866451617    1.110616819
    0.874791319    9.898991764    9.857367767    1.110470961
    0.881969950    9.889755140    9.848229380    1.110324575
    0.889148581    9.880464224    9.839036877    1.110177671
    0.896327212    9.871119443    9.829790679    1.110030257
    0.903505843    9.861721226    9.820491209    1.109882342
    0.910684474    9.852270004    9.811138889    1.109733935
    0.917863105    9.842766207    9.801734143    1.109585043
    0.925041736    9.833210265    9.792277395    1.109435676
    0.932220367    9.823602611    9.782769071    1.109285842
    0.939398998    9.813943676    9.773209595    1.109135549
    0.946577629    9.804233891    9.763599394    1.108984805
    0.953756260    9.794473690    9.753938893    1.108833618
    0.960934891    9.784663506    9.744228520    1.108681997
    0.968113523    9.774803772    9.734468701    1.108529949
    0.975292154    9.764894920    9.724659864    1.108377481
    0.982470785    9.754937385    9.714802436    1.108224603
    0.989649416    9.744931601    9.704896845    1.108071321
    0.996828047    9.734878000    9.694943520    1.107917642
    1.004006678    9.724777019    9.684942888    1.107763576
    1.011185309    9.714629089    9.674895378    1.107609127
    1.018363940    9.704434646    9.664801419    1.107454305
    1.025542571    9.694194124    9.654661439    1.107299116
    1.032721202    9.683907956    9.644475866    1.107143568
    1.039899833    9.673576577    9.634245130    1.106987667
    1.047078464    9.663200420    9.623969658    1.106831421
    1.054257095    9.652779919    9.613649880    1.106674836
    1.061435726    9.642315508    9.603286224    1.106517920
    1.068614357    9.631807619    9.592879117    1.106360678
    1.075792988    9.621256686    9.582428987    1.106203118
    1.082971619    9.610663142    9.571936264    1.106045247
    1.090150250    9.600027419    9.561401373    1.105887070
    1.097328881    9.589349948    9.550824742    1.105728595
    1.104507513    9.578631162    9.540206799    1.105569828
    1.111686144    9.567871492    9.529547969    1.105410774
    1.118864775    9.557071368    9.518848680    1.105251441
    1.126043406    9.546231222    9.508109355    1.105091835
    1.133222037    9.535351482    9.497330422    1.104931961
    1.140400668    9.524432578    9.486512304    1.104771826
    1.147579299    9.513474938    9.475655427    1.104611435
    1.154757930    9.502478992    9.464760213    1.104450795
    1.161936561    9.491445165    9.453827085    1.104289912
    1.169115192    9.480373885    9.442856468    1.104128791
    1.176293823    9.469265578    9.431848781    1.103967438
    1.183472454    9.458120669    9.420804447    1.103805858
    1.190651085    9.446939583    9.409723887    1.103644058
    1.197829716    9.435722744    9.398607519    1.103482043
    1.205008347    9.424470575    9.387455764    1.103319818
    1.212186978    9.413183497    9.376269039    1.103157388
    1.219365609    9.401861932    9.365047761    1.102994760
    1.226544240    9.390506301    9.353792349    1.102831938
    1.233722871    9.379117023    9.342503217    1.102668927
    1.240901503    9.367694516    9.331180780    1.102505734
    1.248080134    9.356239199    9.319825452    1.102342362
    1.255258765    9.344751488    9.308437647    1.102178818
    1.262437396    9.333231798    9.297017776    1.102015106
    1.269616027    9.321680543    9.285566250    1.101851230
    1.276794658    9.310098138    9.274083481    1.101687197
    1.283973289    9.298484995    9.262569876    1.101523010
    1.291151920    9.286841525    9.251025843    1.101358675
    1.298330551    9.275168139    9.239451790    1.101194197
    1.305509182    9.263465244    9.227848123    1.101029580
    1.312687813    9.251733249    9.216215245    1.100864828
    1.319866444    9.239972561    9.204553561    1.100699947
    1.327045075    9.228183584    9.192863472    1.100534941
    1.334223706    9.216366724    9.181145380    1.100369815
    1.341402337    9.204522382    9.169399685    1.100204572
    1.348580968    9.192650960    9.157626785    1.100039218
    1.355759599    9.180752859    9.145827078    1.099873757
    1.362938230    9.168828478    9.134000960    1.099708193
    1.370116861    9.156878213    9.122148825    1.099542530
    1.377295492    9.144902462    9.110271067    1.099376773
    1.384474124    9.132901618    9.098368078    1.099210926
    1.391652755    9.120876076    9.086440249    1.099044993
    1.398831386    9.108826227    9.074487969    1.098878978
    1.406010017    9.096752462    9.062511626    1.098712885
    1.413188648    9.084655169    9.050511607    1.098546719
    1.420367279    9.072534737    9.038488296    1.098380483
    1.427545910    9.060391552    9.026442077    1.098214181
    1.434724541    9.048225997    9.014373333    1.098047817
    1.441903172    9.036038456    9.002282444    1.097881395
    1.449081803    9.023829310    8.990169789    1.097714919
    1.456260434    9.011598940    8.978035746    1.097548393
    1.463439065    8.999347723    8.965880690    1.097381820
    1.470617696    8.987076037    8.953704998    1.097215204
    1.477796327    8.974784256    8.941509040    1.097048549
    1.484974958    8.962472754    8.929293190    1.096881858
    1.492153589    8.950141903    8.917057816    1.096715136
    1.499332220    8.937792073    8.904803286    1.096548385
    1.506510851    8.925423632    8.892529968    1.096381609
    1.513689482    8.913036948    8.880238226    1.096214812
    1.520868114    8.900632386    8.867928424    1.096047996
    1.528046745    8.888210308    8.855600923    1.095881167
    1.535225376    8.875771078    8.843256082    1.095714326
    1.542404007    8.863315054    8.830894261    1.095547477
    1.549582638    8.850842596    8.818515816    1.095380624
    1.556761269    8.838354060    8.806121101    1.095213770
    1.563939900    8.825849800    8.793710469    1.095046919
    1.571118531    8.813330169    8.781284273    1.094880072
    1.578297162    8.800795520    8.768842861    1.094713234
    1.585475793    8.788246201    8.756386581    1.094546408
    1.592654424    8.775682560    8.743915780    1.094379597
    1.599833055    8.763104942    8.731430802    1.094212803
    1.607011686    8.750513693    8.718931989    1.094046031
    1.614190317    8.737909153    8.706419682    1.093879283
    1.621368948    8.725291665    8.693894220    1.093712562
    1.628547579    8.712661565    8.681355940    1.093545870
    1.635726210    8.700019191    8.668805177    1.093379212
    1.642904841    8.687364877    8.656242266    1.093212590
    1.650083472    8.674698957    8.643667536    1.093046007
    1.657262104    8.662021761    8.631081319    1.092879466
    1.664440735    8.649333619    8.618483943    1.092712968
    1.671619366    8.636634859    8.605875732    1.092546519
    1.678797997    8.623925805    8.593257013    1.092380119
    1.685976628    8.611206780    8.580628106    1.092213773
    1.693155259    8.598478108    8.567989332    1.092047481
    1.700333890    8.585740107    8.555341011    1.091881249
    1.707512521    8.572993095    8.542683458    1.091715077
    1.714691152    8.560237389    8.530016989    1.091548969
    1.721869783    8.547473301    8.517341917    1.091382927
    1.729048414    8.534701145    8.504658552    1.091216953
    1.736227045    8.521921230    8.491967203    1.091051052
    1.743405676    8.509133864    8.479268179    1.090885224
    1.750584307    8.496339354    8.466561784    1.090719472
    1.757762938    8.483538004    8.453848321    1.090553800
    1.764941569    8.470730116    8.441128093    1.090388209
    1.772120200    8.457915991    8.428401399    1.090222701
    1.779298831    8.445095927    8.415668535    1.090057280
    1.786477462    8.432270221    8.402929799    1.089891948
    1.793656093    8.419439167    8.390185484    1.089726706
    1.800834725    8.406603058    8.377435881    1.089561558
    1.808013356    8.393762184    8.364681281    1.089396505
    1.815191987    8.380916834    8.351921972    1.089231551
    1.822370618    8.368067296    8.339158239    1.089066697
    1.829549249    8.355213852    8.326390367    1.088901945
    1.836727880    8.342356787    8.313618638    1.088737298
    1.843906511    8.329496382    8.300843331    1.088572757
    1.851085142    8.316632914    8.288064727    1.088408326
    1.858263773    8.303766661    8.275283100    1.088244006
    1.865442404    8.290897898    8.262498725    1.088079799
    1.872621035    8.278026898    8.249711874    1.087915708
    1.879799666    8.265153931    8.236922819    1.087751734
    1.886978297    8.252279267    8.224131827    1.087587880
    1.894156928    8.239403173    8.211339166    1.087424148
    1.901335559    8.226525915    8.198545099    1.087260539
    1.908514190    8.213647754    8.185749890    1.087097057
    1.915692821    8.200768952    8.172953800    1.086933701
    1.922871452    8.187889770    8.160157087    1.086770476
    1.930050083    8.175010463    8.147360009    1.086607382
    1.937228715    8.162131287    8.134562820    1.086444421
    1.944407346    8.149252495    8.121765773    1.086281596
    1.951585977    8.136374340    8.108969120    1.086118908
    1.958764608    8.123497070    8.096173109    1.085956360
    1.965943239    8.110620933    8.083377988    1.085793952
    1.973121870    8.097746175    8.070584003    1.085631687
    1.980300501    8.084873038    8.057791397    1.085469567
    1.987479132    8.072001766    8.045000411    1.085307593
    1.994657763    8.059132597    8.032211285    1.085145768
    2.001836394    8.046265770    8.019424257    1.084984092
    2.009015025    8.033401520    8.006639562    1.084822568
    2.016193656    8.020540082    7.993857434    1.084661197
    2.023372287    8.007681687    7.981078106    1.084499981
    2.030550918    7.994826566    7.968301807    1.084338922
    2.037729549    7.981974946    7.955528765    1.084178021
    2.044908180    7.969127055    7.942759208    1.084017281
    2.052086811    7.956283117    7.929993358    1.083856701
    2.059265442    7.943443354    7.917231440    1.083696285
    2.066444073    7.930607987    7.904473673    1.083536034
    2.073622705    7.917777235    7.891720276    1.083375949
    2.080801336    7.904951314    7.878971466    1.083216032
    2.087979967    7.892130440    7.866227458    1.083056284
    2.095158598    7.879314826    7.853488466    1.082896707
    2.102337229    7.866504682    7.840754700    1.082737302
    2.109515860    7.853700219    7.828026370    1.082578071
    2.116694491    7.840901644    7.815303684    1.082419016
    2.123873122    7.828109162    7.802586848    1.082260137
    2.131051753    7.815322978    7.789876065    1.082101436
    2.138230384    7.802543293    7.777171537    1.081942915
    2.145409015    7.789770308    7.764473466    1.081784574
    2.152587646    7.777004221    7.751782049    1.081626416
    2.159766277    7.764245228    7.739097483    1.081468442
    2.166944908    7.751493524    7.726419963    1.081310652
    2.174123539    7.738749302    7.713749683    1.081153049
    2.181302170    7.726012754    7.701086832    1.080995633
    2.188480801    7.713284068    7.688431602    1.080838407
    2.195659432    7.700563431    7.675784178    1.080681370
    2.202838063    7.687851030    7.663144749    1.080524525
    2.210016694    7.675147049    7.650513497    1.080367872
    2.217195326    7.662451669    7.637890605    1.080211414
    2.224373957    7.649765072    7.625276254    1.080055150
    2.231552588    7.637087435    7.612670623    1.079899083
    2.238731219    7.624418935    7.600073889    1.079743213
    2.245909850    7.611759748    7.587486226    1.079587541
    2.253088481    7.599110048    7.574907810    1.079432070
    2.260267112    7.586470005    7.562338812    1.079276799
    2.267445743    7.573839789    7.549779402    1.079121730
    2.274624374    7.561219570    7.537229749    1.078966865
    2.281803005    7.548609513    7.524690020    1.078812203
    2.288981636    7.536009783    7.512160380    1.078657747
    2.296160267    7.523420544    7.499640992    1.078503498
    2.303338898    7.510841957    7.487132018    1.078349455
    2.310517529    7.498274181    7.474633619    1.078195621
    2.317696160    7.485717374    7.462145952    1.078041997
    2.324874791    7.473171694    7.449669176    1.077888583
    2.332053422    7.460637295    7.437203444    1.077735380
    2.339232053    7.448114330    7.424748911    1.077582390
    2.346410684    7.435602950    7.412305728    1.077429613
    2.353589316    7.423103306    7.399874046    1.077277050
    2.360767947    7.410615546    7.387454013    1.077124703
    2.367946578    7.398139815    7.375045777    1.076972571
    2.375125209    7.385676260    7.362649482    1.076820657
    2.382303840    7.373225024    7.350265274    1.076668961
    2.389482471    7.360786248    7.337893294    1.076517484
    2.396661102    7.348360073    7.325533682    1.076366226
    2.403839733    7.335946637    7.313186579    1.076215189
    2.411018364    7.323546078    7.300852121    1.076064373
    2.418196995    7.311158531    7.288530444    1.075913780
    2.425375626    7.298784131    7.276221684    1.075763410
    2.432554257    7.286423008    7.263925974    1.075613263
    2.439732888    7.274075295    7.251643443    1.075463342
    2.446911519    7.261741122    7.239374223    1.075313645
    2.454090150    7.249420614    7.227118442    1.075164175
    2.461268781    7.237113900    7.214876227    1.075014932
    2.468447412    7.224821104    7.202647704    1.074865917
    2.475626043    7.212542350    7.190432995    1.074717130
    2.482804674    7.200277758    7.178232224    1.074568572
    2.489983306    7.188027451    7.166045511    1.074420244
    2.497161937    7.175791546    7.153872977    1.074272147
    2.504340568    7.163570161    7.141714739    1.074124281
    2.511519199    7.151363413    7.129570914    1.073976647
    2.518697830    7.139171416    7.117441616    1.073829245
    2.525876461    7.126994282    7.105326961    1.073682077
    2.533055092    7.114832124    7.093227060    1.073535143
    2.540233723    7.102685053    7.081142023    1.073388443
