# energy grid [eV]     epsr_x  epsr_y  epsr_z
#
    0.200000000    3.053435974   16.464243325   16.327604284
    0.207178631    3.053751723   16.468134151   16.331563073
    0.214357262    3.054078892   16.472164659   16.335664154
    0.221535893    3.054417514   16.476335113   16.339907812
    0.228714524    3.054767621   16.480645786   16.344294346
    0.235893155    3.055129247   16.485096961   16.348824064
    0.243071786    3.055502426   16.489688930   16.353497285
    0.250250417    3.055887196   16.494421997   16.358314340
    0.257429048    3.056283595   16.499296473   16.363275570
    0.264607679    3.056691663   16.504312684   16.368381328
    0.271786311    3.057111440   16.509470961   16.373631980
    0.278964942    3.057542969   16.514771649   16.379027902
    0.286143573    3.057986295   16.520215101   16.384569482
    0.293322204    3.058441463   16.525801684   16.390257120
    0.300500835    3.058908521   16.531531773   16.396091230
    0.307679466    3.059387519   16.537405755   16.402072235
    0.314858097    3.059878507   16.543424027   16.408200573
    0.322036728    3.060381538   16.549586999   16.414476695
    0.329215359    3.060896667   16.555895091   16.420901063
    0.336393990    3.061423952   16.562348735   16.427474155
    0.343572621    3.061963450   16.568948374   16.434196460
    0.350751252    3.062515222   16.575694464   16.441068481
    0.357929883    3.063079333   16.582587473   16.448090736
    0.365108514    3.063655846   16.589627880   16.455263758
    0.372287145    3.064244829   16.596816177   16.462588091
    0.379465776    3.064846353   16.604152869   16.470064298
    0.386644407    3.065460489   16.611638474   16.477692954
    0.393823038    3.066087314   16.619273522   16.485474651
    0.401001669    3.066726903   16.627058557   16.493409996
    0.408180301    3.067379339   16.634994137   16.501499614
    0.415358932    3.068044703   16.643080833   16.509744144
    0.422537563    3.068723083   16.651319231   16.518144243
    0.429716194    3.069414568   16.659709930   16.526700586
    0.436894825    3.070119251   16.668253546   16.535413866
    0.444073456    3.070837228   16.676950707   16.544284794
    0.451252087    3.071568598   16.685802058   16.553314099
    0.458430718    3.072313465   16.694808261   16.562502530
    0.465609349    3.073071937   16.703969992   16.571850858
    0.472787980    3.073844124   16.713287944   16.581359872
    0.479966611    3.074630142   16.722762827   16.591030383
    0.487145242    3.075430112   16.732395369   16.600863225
    0.494323873    3.076244158   16.742186316   16.610859255
    0.501502504    3.077072411   16.752136430   16.621019352
    0.508681135    3.077915005   16.762246494   16.631344420
    0.515859766    3.078772080   16.772517311   16.641835390
    0.523038397    3.079643784   16.782949701   16.652493218
    0.530217028    3.080530268   16.793544508   16.663318888
    0.537395659    3.081431691   16.804302596   16.674313411
    0.544574290    3.082348219   16.815224849   16.685477831
    0.551752922    3.083280025   16.826312177   16.696813220
    0.558931553    3.084227290   16.837565512   16.708320685
    0.566110184    3.085190201   16.848985811   16.720001366
    0.573288815    3.086168957   16.860574055   16.731856438
    0.580467446    3.087163764   16.872331253   16.743887117
    0.587646077    3.088174838   16.884258442   16.756094654
    0.594824708    3.089202405   16.896356685   16.768480345
    0.602003339    3.090246705   16.908627077   16.781045528
    0.609181970    3.091307986   16.921070743   16.793791590
    0.616360601    3.092386511   16.933688844   16.806719966
    0.623539232    3.093482556   16.946482570   16.819832141
    0.630717863    3.094596413   16.959453151   16.833129660
    0.637896494    3.095728388   16.972601853   16.846614125
    0.645075125    3.096878806   16.985929983   16.860287201
    0.652253756    3.098048009   16.999438888   16.874150621
    0.659432387    3.099236360   17.013129963   16.888206191
    0.666611018    3.100444242   17.027004646   16.902455796
    0.673789649    3.101672065   17.041064427   16.916901403
    0.680968280    3.102920262   17.055310850   16.931545070
    0.688146912    3.104189295   17.069745513   16.946388956
    0.695325543    3.105479656   17.084370078   16.961435323
    0.702504174    3.106791872   17.099186268   16.976686552
    0.709682805    3.108126505   17.114195877   16.992145147
    0.716861436    3.109484162   17.129400773   17.007813755
    0.724040067    3.110865490   17.144802907   17.023695171
    0.731218698    3.112271191   17.160404314   17.039792359
    0.738397329    3.113702019   17.176207123   17.056108470
    0.745575960    3.115158794   17.192213569   17.072646856
    0.752754591    3.116642403   17.208425996   17.089411101
    0.759933222    3.118153813   17.224846870   17.106405041
    0.767111853    3.119694080   17.241478795   17.123632799
    0.774290484    3.121264361   17.258324520   17.141098818
    0.781469115    3.122865928   17.275386960   17.158807907
    0.788647746    3.124500183   17.292669209   17.176765287
    0.795826377    3.126168682   17.310174568   17.194976649
    0.803005008    3.127873154   17.327906564   17.213448228
    0.810183639    3.129615533   17.345868981   17.232186882
    0.817362270    3.131397993   17.364065892   17.251200194
    0.824540902    3.133222987   17.382501701   17.270496594
    0.831719533    3.135093306   17.401181191   17.290085509
    0.838898164    3.137012138   17.420109580   17.309977546
    0.846076795    3.138983156   17.439292594   17.330184721
    0.853255426    3.141010621   17.458736547   17.350720747
    0.860434057    3.143099516   17.478448456   17.371601399
    0.867612688    3.145255723   17.498436166   17.392844985
    0.874791319    3.147486250   17.518708522   17.414472950
    0.881969950    3.149799537   17.539275586   17.436510680
    0.889148581    3.152205864   17.560148913   17.458988563
    0.896327212    3.154717911   17.581341925   17.481943427
    0.903505843    3.157351528   17.602870402   17.505420494
    0.910684474    3.160126807   17.624753147   17.529476096
    0.917863105    3.163069587   17.647012904   17.554181438
    0.925041736    3.166213567   17.669677602   17.579627842
    0.932220367    3.169603186   17.692782039   17.605933885
    0.939398998    3.173297265   17.716370003   17.633254412
    0.946577629    3.177372376   17.740496337   17.661789059
    0.953756260    3.181920827   17.765226442   17.691778361
    0.960934891    3.187021921   17.790622645   17.723437549
    0.968113523    3.192600646   17.816674859   17.756627190
    0.975292154    3.197842366   17.843011024   17.789484939
    0.982470785    3.199228116   17.867922898   17.813828889
    0.989649416    3.188719947   17.887466874   17.810913163
    0.996828047    3.169584998   17.903324768   17.788476130
    1.004006678    3.161973975   17.925577721   17.793806291
    1.011185309    3.165193013   17.953975764   17.825432818
    1.018363940    3.171691600   17.984891223   17.865884425
    1.025542571    3.178682386   18.017098844   17.908910128
    1.032721202    3.185619989   18.050536727   17.953602713
    1.039899833    3.192557829   18.085505055   18.000579427
    1.047078464    3.199686764   18.122444035   18.050906022
    1.054257095    3.207209683   18.161829368   18.105677690
    1.061435726    3.215227312   18.203853908   18.165066255
    1.068614357    3.223331329   18.247070489   18.224422896
    1.075792988    3.229095903   18.283332279   18.259848130
    1.082971619    3.225060397   18.287675788   18.199379548
    1.090150250    3.207422589   18.247461747   18.005785653
    1.097328881    3.196763509   18.231824403   17.874114312
    1.104507513    3.200961410   18.267170949   17.878850715
    1.111686144    3.210927992   18.322168199   17.935749956
    1.118864775    3.220299969   18.370990858   17.999062328
    1.126043406    3.221796767   18.374022363   18.051431633
    1.133222037    3.208374944   18.290511484   18.084264040
    1.140400668    3.195928060   18.211927801   18.114782870
    1.147579299    3.198449639   18.218553857   18.158470307
    1.154757930    3.208506794   18.266475368   18.208340034
    1.161936561    3.220587563   18.322872306   18.259259774
    1.169115192    3.233227270   18.378734400   18.310134993
    1.176293823    3.245801414   18.432118831   18.360312292
    1.183472454    3.255903254   18.480163559   18.405766445
    1.190651085    3.254831561   18.512116434   18.431479865
    1.197829716    3.231743186   18.514410561   18.418687780
    1.205008347    3.208702767   18.515657706   18.405612537
    1.212186978    3.208062179   18.544745709   18.430951536
    1.219365609    3.219084384   18.587969802   18.476051812
    1.226544240    3.233026944   18.634116426   18.525684453
    1.233722871    3.247568512   18.680151285   18.575704152
    1.240901503    3.262558448   18.725751764   18.625672813
    1.248080134    3.278424300   18.771247505   18.676084369
    1.255258765    3.295781994   18.817105106   18.727675713
    1.262437396    3.315343218   18.863818927   18.781282496
    1.269616027    3.337770182   18.911863304   18.837747374
    1.276794658    3.362986740   18.961495393   18.897485160
    1.283973289    3.387247428   19.011866940   18.958535198
    1.291151920    3.392698768   19.057752736   19.009277814
    1.298330551    3.331379518   19.083602788   19.013045439
    1.305509182    3.196216050   19.080414515   18.932605647
    1.312687813    3.108513629   19.081314417   18.827734621
    1.319866444    3.099262117   19.114633810   18.802652545
    1.327045075    3.122316324   19.170577938   18.845522112
    1.334223706    3.151395371   19.233397378   18.908135705
    1.341402337    3.178835316   19.291573022   18.971404435
    1.348580968    3.201393572   19.320612635   19.029075730
    1.355759599    3.216136822   19.285939484   19.077598857
    1.362938230    3.229837002   19.241730994   19.123059400
    1.370116861    3.251318564   19.261917227   19.173553631
    1.377295492    3.278154145   19.319215384   19.226917891
    1.384474124    3.305595483   19.385561163   19.280790749
    1.391652755    3.321847061   19.451146445   19.334466946
    1.398831386    3.290389924   19.508959102   19.387164835
    1.406010017    3.178356000   19.554328316   19.438392870
    1.413188648    3.082518289   19.604300273   19.491565193
    1.420367279    3.066729312   19.670178610   19.548929833
    1.427545910    3.085981357   19.743293348   19.608401866
    1.434724541    3.110503405   19.808845955   19.663697471
    1.441903172    3.129432612   19.827635215   19.694233963
    1.449081803    3.136877327   19.742487003   19.669425228
    1.456260434    3.140387739   19.639653873   19.635414190
    1.463439065    3.150697617   19.640919895   19.657357163
    1.470617696    3.164644366   19.702207719   19.711576565
    1.477796327    3.178810691   19.777525611   19.773371445
    1.484974958    3.192358201   19.853145873   19.835349348
    1.492153589    3.205102027   19.926153225   19.896065600
    1.499332220    3.216016415   19.993816303   19.954847584
    1.506510851    3.220742811   20.045567679   20.009018623
    1.513689482    3.212126264   20.063909420   20.054009291
    1.520868114    3.199939603   20.073382852   20.096646056
    1.528046745    3.200157019   20.113892628   20.147905347
    1.535225376    3.207826853   20.173259305   20.204590507
    1.542404007    3.217044950   20.236905674   20.262845654
    1.549582638    3.226024851   20.300477801   20.321594656
    1.556761269    3.234474618   20.363331138   20.380779282
    1.563939900    3.242464180   20.425721889   20.440605012
    1.571118531    3.250129448   20.488078040   20.501351948
    1.578297162    3.257605728   20.550837270   20.563333686
    1.585475793    3.265011784   20.614396430   20.626854003
    1.592654424    3.272420977   20.678968660   20.691998503
    1.599833055    3.279730315   20.743944431   20.757727120
    1.607011686    3.286165119   20.805501158   20.818520996
    1.614190317    3.289330930   20.852037323   20.857992144
    1.621368948    3.288243034   20.878730229   20.869195193
    1.628547579    3.289635600   20.917862424   20.896959885
    1.635726210    3.295797741   20.980344307   20.956249746
    1.642904841    3.303980494   21.052892123   21.028321706
    1.650083472    3.312646512   21.128215129   21.103351173
    1.657262104    3.320470530   21.200785341   21.176453050
    1.664440735    3.323525579   21.255087515   21.237229967
    1.671619366    3.314703332   21.263127413   21.267281471
    1.678797997    3.301128463   21.253018934   21.285277371
    1.685976628    3.299137284   21.289182113   21.333840578
    1.693155259    3.305119952   21.357418352   21.403669403
    1.700333890    3.313064912   21.434062464   21.479195087
    1.707512521    3.321024504   21.511468555   21.555411712
    1.714691152    3.328634816   21.588236797   21.631427248
    1.721869783    3.335925139   21.664523461   21.707369486
    1.729048414    3.343000262   21.740791835   21.783562736
    1.736227045    3.349968801   21.817533681   21.860344556
    1.743405676    3.356932566   21.895231875   21.938041202
    1.750584307    3.363989382   21.974374615   22.016977242
    1.757762938    3.371233836   22.055450343   22.097474863
    1.764941569    3.378736807   22.138808385   22.179776079
    1.772120200    3.386437119   22.223965032   22.263646607
    1.779298831    3.393697375   22.306787655   22.346762020
    1.786477462    3.397970557   22.371059612   22.419869257
    1.793656093    3.394938895   22.389345667   22.467286442
    1.800834725    3.389912148   22.394996207   22.508231212
    1.808013356    3.392599285   22.449118276   22.577868765
    1.815191987    3.400319441   22.534577357   22.666478351
    1.822370618    3.409469950   22.628833190   22.761237808
    1.829549249    3.418598711   22.724939321   22.858180207
    1.836727880    3.425947182   22.821626164   22.956139778
    1.843906511    3.427417350   22.918737646   23.053588853
    1.851085142    3.422896091   23.017062201   23.151225209
    1.858263773    3.423400437   23.119096201   23.255262993
    1.865442404    3.430530100   23.225564287   23.366326752
    1.872621035    3.439897323   23.334448329   23.477858849
    1.879799666    3.449167886   23.436970803   23.568692767
    1.886978297    3.456652640   23.510957678   23.588295214
    1.894156928    3.462645779   23.561477747   23.545039862
    1.901335559    3.470806108   23.649812848   23.569734266
    1.908514190    3.481384202   23.779223599   23.669676371
    1.915692821    3.492534577   23.919629645   23.794395617
    1.922871452    3.501022936   24.026999904   23.922156399
    1.930050083    3.498645674   23.996170659   24.043351153
    1.937228715    3.481628361   23.778715727   24.155641893
    1.944407346    3.472001835   23.653844517   24.275342821
    1.951585977    3.477492617   23.719646933   24.409166245
    1.958764608    3.488430573   23.854974361   24.551639335
    1.965943239    3.499180501   23.993010539   24.699086973
    1.973121870    3.508628886   24.119108877   24.851173262
    1.980300501    3.518924910   24.247685573   25.007036441
    1.987479132    3.529904110   24.380472834   25.134530440
    1.994657763    3.539150555   24.509029998   25.131024618
    2.001836394    3.545472550   24.629975638   24.936838608
    2.009015025    3.553431442   24.753580348   24.824614737
    2.016193656    3.565060902   24.884838834   24.910226005
    2.023372287    3.578415047   25.019888526   25.074491629
    2.030550918    3.591858521   25.154494989   25.250400977
    2.037729549    3.602657183   25.278916118   25.411196830
    2.044908180    3.607167212   25.379528211   25.539431419
    2.052086811    3.611705362   25.480140708   25.661388939
    2.059265442    3.624591968   25.612045337   25.811810676
    2.066444073    3.643097902   25.764785472   25.979710154
    2.073622705    3.664472201   25.927823146   26.153919045
    2.080801336    3.687528318   26.096774281   26.330961409
    2.087979967    3.709034906   26.260797741   26.505638182
    2.095158598    3.716082934   26.376533282   26.656584925
    2.102337229    3.682569300   26.351052274   26.736632113
    2.109515860    3.628606034   26.238506160   26.771946832
    2.116694491    3.617237783   26.266992171   26.881104914
    2.123873122    3.639568396   26.416750649   27.055826714
    2.131051753    3.672452526   26.602585887   27.249698429
    2.138230384    3.706038953   26.791556781   27.435848011
    2.145409015    3.730174652   26.969715088   27.587596804
    2.152587646    3.721228796   27.126088967   27.713710847
    2.159766277    3.653051161   27.250982809   27.855005446
    2.166944908    3.583748553   27.374810456   28.022136582
    2.174123539    3.574973793   27.532976526   28.217480426
    2.181302170    3.599117175   27.694045342   28.422325021
    2.188480801    3.629806391   27.836235427   28.625606855
    2.195659432    3.660533556   27.991822492   28.841499901
    2.202838063    3.690535303   28.168039546   29.074449965
    2.210016694    3.721922470   28.357038693   29.319531214
    2.217195326    3.753727902   28.538293452   29.573222006
    2.224373957    3.780734506   28.694158525   29.829355633
    2.231552588    3.795903896   28.844454599   30.076023810
    2.238731219    3.803574463   29.006733444   30.310007984
    2.245909850    3.815197294   29.195123755   30.523005718
    2.253088481    3.826552939   29.407208931   30.672448768
    2.260267112    3.834243803   29.637604112   30.785164395
    2.267445743    3.833974015   29.881377603   30.995507877
    2.274624374    3.789502410   30.133584421   31.266808360
    2.281803005    3.738176813   30.392681555   31.555573650
    2.288981636    3.742021320   30.659952834   31.851855709
    2.296160267    3.767768351   30.933793085   32.059020350
    2.303338898    3.777882428   31.188378908   32.111352923
    2.310517529    3.773135284   31.388460508   32.210040057
    2.317696160    3.757476363   31.532949157   32.435742110
    2.324874791    3.739016931   31.642694025   32.665927672
    2.332053422    3.728666196   31.744198079   32.841394986
    2.339232053    3.749772932   31.971258088   33.143968830
    2.346410684    3.792366184   32.311624862   33.598093220
    2.353589316    3.810630948   32.600245084   34.087080366
    2.360767947    3.770700402   32.653232498   34.529847587
    2.367946578    3.727245512   32.513846701   34.932650893
    2.375125209    3.739771443   32.525652772   35.391869724
    2.382303840    3.793394030   32.821010219   35.986026944
    2.389482471    3.860179738   33.255034365   36.657076046
    2.396661102    3.919010299   33.703267601   37.268933789
    2.403839733    3.936391079   34.101212963   37.720516233
    2.411018364    3.879718732   34.414359993   38.022081335
    2.418196995    3.779814562   34.647189908   38.024817777
    2.425375626    3.719018551   34.879800423   37.857676963
    2.432554257    3.721501838   35.206760214   38.033806004
    2.439732888    3.769601916   35.694669106   38.694562207
    2.446911519    3.821621762   36.267209833   39.305208502
    2.454090150    3.851309990   36.842252461   39.736526053
    2.461268781    3.858478869   37.348572539   39.795840460
    2.468447412    3.816169390   37.656328706   38.295990019
    2.475626043    3.741425471   37.881271600   36.235457440
    2.482804674    3.696335512   38.263620808   35.764052248
    2.489983306    3.699363668   38.813121899   36.207781415
    2.497161937    3.737862939   39.358680395   36.889052263
    2.504340568    3.773458486   39.781571575   37.576376911
    2.511519199    3.792433065   40.246312081   38.554345848
    2.518697830    3.793617446   40.422303936   39.693551304
    2.525876461    3.744019905   39.649504757   40.417283379
    2.533055092    3.614218081   38.166085555   40.586244241
    2.540233723    3.520518148   37.129757702   41.140875609
