# energy grid [eV]     epsr_x  epsr_y  epsr_z
#
    0.200000000    2.062454770   12.759673775   13.001993506
    0.207178631    2.062547531   12.762381805   13.004838161
    0.214357262    2.062643581   12.765186745   13.007784684
    0.221535893    2.062742923   12.768088743   13.010833240
    0.228714524    2.062845558   12.771087954   13.013983997
    0.235893155    2.062951489   12.774184538   13.017237133
    0.243071786    2.063060717   12.777378660   13.020592828
    0.250250417    2.063173245   12.780670491   13.024051270
    0.257429048    2.063289076   12.784060206   13.027612654
    0.264607679    2.063408211   12.787547986   13.031277177
    0.271786311    2.063530653   12.791134020   13.035045047
    0.278964942    2.063656405   12.794818498   13.038916475
    0.286143573    2.063785469   12.798601619   13.042891677
    0.293322204    2.063917847   12.802483586   13.046970879
    0.300500835    2.064053543   12.806464607   13.051154310
    0.307679466    2.064192560   12.810544898   13.055442207
    0.314858097    2.064334899   12.814724678   13.059834810
    0.322036728    2.064480564   12.819004173   13.064332371
    0.329215359    2.064629558   12.823383614   13.068935142
    0.336393990    2.064781884   12.827863239   13.073643385
    0.343572621    2.064937545   12.832443290   13.078457369
    0.350751252    2.065096544   12.837124016   13.083377367
    0.357929883    2.065258885   12.841905672   13.088403659
    0.365108514    2.065424571   12.846788517   13.093536533
    0.372287145    2.065593605   12.851772819   13.098776282
    0.379465776    2.065765991   12.856858849   13.104123206
    0.386644407    2.065941732   12.862046885   13.109577612
    0.393823038    2.066120832   12.867337212   13.115139813
    0.401001669    2.066303294   12.872730121   13.120810131
    0.408180301    2.066489123   12.878225906   13.126588891
    0.415358932    2.066678322   12.883824872   13.132476427
    0.422537563    2.066870895   12.889527326   13.138473081
    0.429716194    2.067066847   12.895333584   13.144579201
    0.436894825    2.067266180   12.901243966   13.150795140
    0.444073456    2.067468899   12.907258802   13.157121261
    0.451252087    2.067675009   12.913378424   13.163557933
    0.458430718    2.067884514   12.919603173   13.170105531
    0.465609349    2.068097417   12.925933397   13.176764440
    0.472787980    2.068313724   12.932369448   13.183535049
    0.479966611    2.068533439   12.938911687   13.190417758
    0.487145242    2.068756567   12.945560481   13.197412971
    0.494323873    2.068983111   12.952316204   13.204521102
    0.501502504    2.069213078   12.959179234   13.211742571
    0.508681135    2.069446471   12.966149961   13.219077807
    0.515859766    2.069683295   12.973228777   13.226527245
    0.523038397    2.069923556   12.980416084   13.234091329
    0.530217028    2.070167258   12.987712291   13.241770512
    0.537395659    2.070414407   12.995117811   13.249565252
    0.544574290    2.070665007   13.002633068   13.257476018
    0.551752922    2.070919064   13.010258490   13.265503285
    0.558931553    2.071176584   13.017994515   13.273647537
    0.566110184    2.071437571   13.025841588   13.281909266
    0.573288815    2.071702031   13.033800159   13.290288973
    0.580467446    2.071969970   13.041870687   13.298787167
    0.587646077    2.072241393   13.050053640   13.307404366
    0.594824708    2.072516306   13.058349492   13.316141095
    0.602003339    2.072794715   13.066758725   13.324997891
    0.609181970    2.073076626   13.075281829   13.333975295
    0.616360601    2.073362044   13.083919301   13.343073862
    0.623539232    2.073650976   13.092671648   13.352294152
    0.630717863    2.073943427   13.101539383   13.361636737
    0.637896494    2.074239404   13.110523029   13.371102196
    0.645075125    2.074538914   13.119623116   13.380691119
    0.652253756    2.074841962   13.128840181   13.390404104
    0.659432387    2.075148555   13.138174774   13.400241760
    0.666611018    2.075458700   13.147627448   13.410204705
    0.673789649    2.075772402   13.157198768   13.420293565
    0.680968280    2.076089670   13.166889307   13.430508979
    0.688146912    2.076410509   13.176699646   13.440851594
    0.695325543    2.076734926   13.186630376   13.451322068
    0.702504174    2.077062929   13.196682097   13.461921068
    0.709682805    2.077394524   13.206855417   13.472649273
    0.716861436    2.077729718   13.217150954   13.483507371
    0.724040067    2.078068519   13.227569336   13.494496061
    0.731218698    2.078410934   13.238111198   13.505616054
    0.738397329    2.078756971   13.248777187   13.516868070
    0.745575960    2.079106636   13.259567959   13.528252841
    0.752754591    2.079459937   13.270484179   13.539771111
    0.759933222    2.079816882   13.281526523   13.551423633
    0.767111853    2.080177479   13.292695677   13.563211174
    0.774290484    2.080541735   13.303992336   13.575134510
    0.781469115    2.080909658   13.315417205   13.587194432
    0.788647746    2.081281257   13.326971002   13.599391739
    0.795826377    2.081656539   13.338654453   13.611727246
    0.803005008    2.082035512   13.350468296   13.624201777
    0.810183639    2.082418186   13.362413279   13.636816171
    0.817362270    2.082804567   13.374490161   13.649571277
    0.824540902    2.083194665   13.386699713   13.662467959
    0.831719533    2.083588488   13.399042716   13.675507092
    0.838898164    2.083986045   13.411519963   13.688689567
    0.846076795    2.084387344   13.424132259   13.702016284
    0.853255426    2.084792394   13.436880420   13.715488161
    0.860434057    2.085201205   13.449765273   13.729106125
    0.867612688    2.085613784   13.462787659   13.742871122
    0.874791319    2.086030142   13.475948431   13.756784108
    0.881969950    2.086450288   13.489248452   13.770846054
    0.889148581    2.086874230   13.502688599   13.785057948
    0.896327212    2.087301978   13.516269763   13.799420789
    0.903505843    2.087733542   13.529992845   13.813935594
    0.910684474    2.088168931   13.543858761   13.828603393
    0.917863105    2.088608155   13.557868441   13.843425232
    0.925041736    2.089051224   13.572022826   13.858402173
    0.932220367    2.089498147   13.586322871   13.873535293
    0.939398998    2.089948935   13.600769548   13.888825687
    0.946577629    2.090403598   13.615363838   13.904274463
    0.953756260    2.090862146   13.630106740   13.919882749
    0.960934891    2.091324588   13.644999266   13.935651687
    0.968113523    2.091790937   13.660042443   13.951582437
    0.975292154    2.092261201   13.675237312   13.967676178
    0.982470785    2.092735393   13.690584931   13.983934104
    0.989649416    2.093213522   13.706086369   14.000357429
    0.996828047    2.093695599   13.721742717   14.016947383
    1.004006678    2.094181635   13.737555075   14.033705216
    1.011185309    2.094671642   13.753524564   14.050632197
    1.018363940    2.095165630   13.769652319   14.067729613
    1.025542571    2.095663611   13.785939492   14.084998771
    1.032721202    2.096165597   13.802387251   14.102440997
    1.039899833    2.096671597   13.818996782   14.120057638
    1.047078464    2.097181625   13.835769287   14.137850060
    1.054257095    2.097695692   13.852705988   14.155819652
    1.061435726    2.098213810   13.869808121   14.173967821
    1.068614357    2.098735991   13.887076944   14.192295998
    1.075792988    2.099262247   13.904513730   14.210805634
    1.082971619    2.099792589   13.922119773   14.229498204
    1.090150250    2.100327031   13.939896386   14.248375202
    1.097328881    2.100865584   13.957844900   14.267438149
    1.104507513    2.101408262   13.975966666   14.286688586
    1.111686144    2.101955077   13.994263054   14.306128080
    1.118864775    2.102506042   14.012735457   14.325758221
    1.126043406    2.103061169   14.031385285   14.345580623
    1.133222037    2.103620472   14.050213973   14.365596927
    1.140400668    2.104183964   14.069222973   14.385808797
    1.147579299    2.104751658   14.088413762   14.406217923
    1.154757930    2.105323567   14.107787837   14.426826024
    1.161936561    2.105899705   14.127346718   14.447634843
    1.169115192    2.106480086   14.147091949   14.468646150
    1.176293823    2.107064724   14.167025094   14.489861746
    1.183472454    2.107653632   14.187147744   14.511283457
    1.190651085    2.108246825   14.207461511   14.532913140
    1.197829716    2.108844316   14.227968035   14.554752679
    1.205008347    2.109446120   14.248668976   14.576803990
    1.212186978    2.110052251   14.269566024   14.599069019
    1.219365609    2.110662725   14.290660892   14.621549742
    1.226544240    2.111277555   14.311955319   14.644248168
    1.233722871    2.111896757   14.333451072   14.667166337
    1.240901503    2.112520345   14.355149944   14.690306322
    1.248080134    2.113148335   14.377053756   14.713670231
    1.255258765    2.113780742   14.399164358   14.737260204
    1.262437396    2.114417581   14.421483626   14.761078416
    1.269616027    2.115058869   14.444013469   14.785127080
    1.276794658    2.115704620   14.466755821   14.809408442
    1.283973289    2.116354850   14.489712651   14.833924786
    1.291151920    2.117009576   14.512885955   14.858678435
    1.298330551    2.117668814   14.536277762   14.883671747
    1.305509182    2.118332579   14.559890134   14.908907123
    1.312687813    2.119000889   14.583725163   14.934387001
    1.319866444    2.119673760   14.607784976   14.960113862
    1.327045075    2.120351209   14.632071733   14.986090226
    1.334223706    2.121033253   14.656587630   15.012318658
    1.341402337    2.121719908   14.681334895   15.038801764
    1.348580968    2.122411192   14.706315796   15.065542196
    1.355759599    2.123107123   14.731532633   15.092542650
    1.362938230    2.123807717   14.756987747   15.119805870
    1.370116861    2.124512993   14.782683516   15.147334643
    1.377295492    2.125222968   14.808622355   15.175131808
    1.384474124    2.125937661   14.834806720   15.203200251
    1.391652755    2.126657090   14.861239107   15.231542909
    1.398831386    2.127381272   14.887922053   15.260162770
    1.406010017    2.128110227   14.914858138   15.289062874
    1.413188648    2.128843973   14.942049983   15.318246315
    1.420367279    2.129582530   14.969500254   15.347716241
    1.427545910    2.130325916   14.997211660   15.377475856
    1.434724541    2.131074150   15.025186959   15.407528421
    1.441903172    2.131827252   15.053428951   15.437877256
    1.449081803    2.132585241   15.081940487   15.468525740
    1.456260434    2.133348137   15.110724463   15.499477313
    1.463439065    2.134115961   15.139783829   15.530735479
    1.470617696    2.134888732   15.169121581   15.562303802
    1.477796327    2.135666470   15.198740770   15.594185915
    1.484974958    2.136449196   15.228644497   15.626385517
    1.492153589    2.137236932   15.258835918   15.658906375
    1.499332220    2.138029696   15.289318245   15.691752324
    1.506510851    2.138827512   15.320094746   15.724927275
    1.513689482    2.139630399   15.351168744   15.758435208
    1.520868114    2.140438380   15.382543623   15.792280180
    1.528046745    2.141251476   15.414222828   15.826466325
    1.535225376    2.142069709   15.446209863   15.860997855
    1.542404007    2.142893101   15.478508296   15.895879064
    1.549582638    2.143721674   15.511121758   15.931114326
    1.556761269    2.144555451   15.544053948   15.966708102
    1.563939900    2.145394455   15.577308630   16.002664939
    1.571118531    2.146238708   15.610889639   16.038989473
    1.578297162    2.147088233   15.644800877   16.075686429
    1.585475793    2.147943054   15.679046320   16.112760629
    1.592654424    2.148803195   15.713630019   16.150216988
    1.599833055    2.149668679   15.748556097   16.188060520
    1.607011686    2.150539530   15.783828758   16.226296339
    1.614190317    2.151415773   15.819452281   16.264929664
    1.621368948    2.152297431   15.855431029   16.303965819
    1.628547579    2.153184530   15.891769446   16.343410235
    1.635726210    2.154077094   15.928472063   16.383268458
    1.642904841    2.154975149   15.965543495   16.423546146
    1.650083472    2.155878720   16.002988449   16.464249074
    1.657262104    2.156787833   16.040811721   16.505383141
    1.664440735    2.157702513   16.079018203   16.546954367
    1.671619366    2.158622786   16.117612880   16.588968900
    1.678797997    2.159548680   16.156600837   16.631433019
    1.685976628    2.160480220   16.195987261   16.674353139
    1.693155259    2.161417433   16.235777439   16.717735811
    1.700333890    2.162360347   16.275976768   16.761587728
    1.707512521    2.163308989   16.316590751   16.805915730
    1.714691152    2.164263387   16.357625004   16.850726807
    1.721869783    2.165223568   16.399085257   16.896028104
    1.729048414    2.166189561   16.440977357   16.941826923
    1.736227045    2.167161394   16.483307274   16.988130731
    1.743405676    2.168139096   16.526081100   17.034947163
    1.750584307    2.169122695   16.569305055   17.082284026
    1.757762938    2.170112222   16.612985489   17.130149307
    1.764941569    2.171107706   16.657128889   17.178551175
    1.772120200    2.172109177   16.701741876   17.227497988
    1.779298831    2.173116664   16.746831216   17.276998300
    1.786477462    2.174130199   16.792403816   17.327060862
    1.793656093    2.175149811   16.838466719   17.377694623
    1.800834725    2.176175532   16.885027089   17.428908720
    1.808013356    2.177207392   16.932092244   17.480712514
    1.815191987    2.178245424   16.979669783   17.533115674
    1.822370618    2.179289660   17.027767479   17.586128099
    1.829549249    2.180340133   17.076393300   17.639759929
    1.836727880    2.181396877   17.125555268   17.694021486
    1.843906511    2.182459923   17.175261554   17.748923332
    1.851085142    2.183529305   17.225520559   17.804476317
    1.858263773    2.184605055   17.276340890   17.860691574
    1.865442404    2.185687208   17.327731353   17.917580508
    1.872621035    2.186775798   17.379700939   17.975154791
    1.879799666    2.187870858   17.432258858   18.033426383
    1.886978297    2.188972426   17.485414599   18.092407594
    1.894156928    2.190080536   17.539177869   18.152111115
    1.901335559    2.191195225   17.593558618   18.212550051
    1.908514190    2.192316528   17.648566980   18.273737787
    1.915692821    2.193444483   17.704213324   18.335687989
    1.922871452    2.194579125   17.760508281   18.398414632
    1.930050083    2.195720492   17.817462753   18.461932115
    1.937228715    2.196868621   17.875087920   18.526255256
    1.944407346    2.198023551   17.933395233   18.591399281
    1.951585977    2.199185320   17.992396411   18.657379813
    1.958764608    2.200353966   18.052103445   18.724212882
    1.965943239    2.201529530   18.112528709   18.791915082
    1.973121870    2.202712050   18.173684950   18.860503547
    1.980300501    2.203901568   18.235585249   18.929995884
    1.987479132    2.205098123   18.298242950   19.000410120
    1.994657763    2.206301757   18.361671692   19.071764746
    2.001836394    2.207512511   18.425885512   19.144078845
    2.009015025    2.208730427   18.490898843   19.217372091
    2.016193656    2.209955547   18.556726512   19.291664757
    2.023372287    2.211187914   18.623383755   19.366977735
    2.030550918    2.212427572   18.690886223   19.443332555
    2.037729549    2.213674564   18.759250003   19.520751415
    2.044908180    2.214928935   18.828491633   19.599257206
    2.052086811    2.216190729   18.898628115   19.678873540
    2.059265442    2.217459992   18.969676936   19.759624780
    2.066444073    2.218736769   19.041656084   19.841536074
    2.073622705    2.220021108   19.114584068   19.924633384
    2.080801336    2.221313054   19.188479936   20.008943522
    2.087979967    2.222612656   19.263363299   20.094494187
    2.095158598    2.223919962   19.339254351   20.181314004
    2.102337229    2.225235019   19.416173890   20.269432564
    2.109515860    2.226557878   19.494143345   20.358880464
    2.116694491    2.227888587   19.573184798   20.449689357
    2.123873122    2.229227198   19.653321013   20.541891995
    2.131051753    2.230573762   19.734575462   20.635522281
    2.138230384    2.231928329   19.816972355   20.730615323
    2.145409015    2.233290952   19.900536669   20.827207488
    2.152587646    2.234661685   19.985294181   20.925336460
    2.159766277    2.236040581   20.071271501   21.025041304
    2.166944908    2.237427694   20.158496105   21.126362525
    2.174123539    2.238823079   20.246996363   21.229342113
    2.181302170    2.240226791   20.336801563   21.334023574
    2.188480801    2.241638887   20.427941979   21.440452092
    2.195659432    2.243059425   20.520449018   21.548674867
    2.202838063    2.244488462   20.614355204   21.658741049
    2.210016694    2.245926057   20.709694108   21.770701519
    2.217195326    2.247372271   20.806500396   21.884608986
    2.224373957    2.248827162   20.904809991   22.000518367
    2.231552588    2.250290792   21.004660125   22.118486894
    2.238731219    2.251763224   21.106089384   22.238574195
    2.245909850    2.253244520   21.209137768   22.360842407
    2.253088481    2.254734744   21.313846757   22.485356307
    2.260267112    2.256233961   21.420259382   22.612183465
    2.267445743    2.257742236   21.528420302   22.741394392
    2.274624374    2.259259637   21.638375884   22.873062715
    2.281803005    2.260786231   21.750174289   23.007265349
    2.288981636    2.262322088   21.863865562   23.144082688
    2.296160267    2.263867277   21.979501718   23.283598781
    2.303338898    2.265421868   22.097136817   23.425901471
    2.310517529    2.266985932   22.216827024   23.571082482
    2.317696160    2.268559544   22.338630873   23.719238109
    2.324874791    2.270142778   22.462609626   23.870470168
    2.332053422    2.271735713   22.588827183   24.024885624
    2.339232053    2.273338427   22.717349859   24.182595933
    2.346410684    2.274950997   22.848246592   24.343717599
    2.353589316    2.276573500   22.981589310   24.508373254
    2.360767947    2.278206018   23.117453432   24.676692320
    2.367946578    2.279848637   23.255918210   24.848811520
    2.375125209    2.281501442   23.397066086   25.024874469
    2.382303840    2.283164519   23.540983004   25.205032280
    2.389482471    2.284837954   23.687758910   25.389444370
    2.396661102    2.286521836   23.837487829   25.578278859
    2.403839733    2.288216258   23.990268380   25.771713512
    2.411018364    2.289921314   24.146204806   25.969937332
    2.418196995    2.291637100   24.305406709   26.173150658
    2.425375626    2.293363714   24.467988286   26.381564646
    2.432554257    2.295101254   24.634068788   26.595402295
    2.439732888    2.296849819   24.803774511   26.814901656
    2.446911519    2.298609507   24.977238985   27.040316689
    2.454090150    2.300380433   25.154602531   27.271917007
    2.461268781    2.302162727   25.336012284   27.509988464
    2.468447412    2.303956500   25.521623440   27.754835884
    2.475626043    2.305761863   25.711600008   28.006784926
    2.482804674    2.307578931   25.906115343   28.266183656
    2.489983306    2.309407828   26.105352757   28.533404420
    2.497161937    2.311248681   26.309506238   28.808846001
    2.504340568    2.313101621   26.518781235   29.092936017
    2.511519199    2.314966774   26.733395504   29.386133578
    2.518697830    2.316844264   26.953580113   29.688932319
    2.525876461    2.318734244   27.179580796   30.001864031
    2.533055092    2.320636898   27.411658945   30.325502294
    2.540233723    2.322552399   27.650092499   30.660466290
