# energy grid [eV]     ieps_x  ieps_y  ieps_z
#
    0.200000000    1.006363971    7.977302883    8.119882205
    0.207178631    1.006362663    7.975649632    8.118143512
    0.214357262    1.006361310    7.973938963    8.116344475
    0.221535893    1.006359912    7.972170965    8.114485193
    0.228714524    1.006358468    7.970345731    8.112565767
    0.235893155    1.006356978    7.968463358    8.110586304
    0.243071786    1.006355444    7.966523944    8.108546912
    0.250250417    1.006353864    7.964527591    8.106447704
    0.257429048    1.006352239    7.962474405    8.104288793
    0.264607679    1.006350569    7.960364492    8.102070299
    0.271786311    1.006348854    7.958197963    8.099792342
    0.278964942    1.006347094    7.955974932    8.097455048
    0.286143573    1.006345290    7.953695515    8.095058544
    0.293322204    1.006343440    7.951359831    8.092602960
    0.300500835    1.006341546    7.948968001    8.090088431
    0.307679466    1.006339607    7.946520150    8.087515092
    0.314858097    1.006337624    7.944016405    8.084883084
    0.322036728    1.006335596    7.941456897    8.082192549
    0.329215359    1.006333524    7.938841759    8.079443633
    0.336393990    1.006331408    7.936171125    8.076636485
    0.343572621    1.006329248    7.933445134    8.073771257
    0.350751252    1.006327043    7.930663926    8.070848102
    0.357929883    1.006324795    7.927827646    8.067867178
    0.365108514    1.006322503    7.924936439    8.064828646
    0.372287145    1.006320166    7.921990455    8.061732668
    0.379465776    1.006317787    7.918989844    8.058579411
    0.386644407    1.006315364    7.915934761    8.055369043
    0.393823038    1.006312897    7.912825361    8.052101735
    0.401001669    1.006310387    7.909661804    8.048777663
    0.408180301    1.006307834    7.906444252    8.045397002
    0.415358932    1.006305237    7.903172868    8.041959933
    0.422537563    1.006302598    7.899847819    8.038466638
    0.429716194    1.006299915    7.896469274    8.034917302
    0.436894825    1.006297190    7.893037404    8.031312112
    0.444073456    1.006294423    7.889552384    8.027651259
    0.451252087    1.006291612    7.886014388    8.023934935
    0.458430718    1.006288760    7.882423595    8.020163336
    0.465609349    1.006285864    7.878780187    8.016336660
    0.472787980    1.006282927    7.875084346    8.012455107
    0.479966611    1.006279948    7.871336258    8.008518880
    0.487145242    1.006276927    7.867536111    8.004528184
    0.494323873    1.006273864    7.863684094    8.000483226
    0.501502504    1.006270759    7.859780400    7.996384218
    0.508681135    1.006267613    7.855825222    7.992231370
    0.515859766    1.006264425    7.851818758    7.988024899
    0.523038397    1.006261196    7.847761205    7.983765020
    0.530217028    1.006257926    7.843652765    7.979451954
    0.537395659    1.006254615    7.839493641    7.975085921
    0.544574290    1.006251263    7.835284037    7.970667146
    0.551752922    1.006247870    7.831024160    7.966195854
    0.558931553    1.006244437    7.826714219    7.961672274
    0.566110184    1.006240964    7.822354426    7.957096636
    0.573288815    1.006237450    7.817944992    7.952469172
    0.580467446    1.006233896    7.813486133    7.947790115
    0.587646077    1.006230301    7.808978066    7.943059704
    0.594824708    1.006226667    7.804421008    7.938278176
    0.602003339    1.006222994    7.799815181    7.933445771
    0.609181970    1.006219281    7.795160807    7.928562733
    0.616360601    1.006215528    7.790458110    7.923629304
    0.623539232    1.006211736    7.785707315    7.918645731
    0.630717863    1.006207905    7.780908651    7.913612263
    0.637896494    1.006204035    7.776062347    7.908529148
    0.645075125    1.006200127    7.771168633    7.903396639
    0.652253756    1.006196180    7.766227742    7.898214989
    0.659432387    1.006192194    7.761239910    7.892984452
    0.666611018    1.006188170    7.756205371    7.887705286
    0.673789649    1.006184108    7.751124363    7.882377749
    0.680968280    1.006180008    7.745997125    7.877002100
    0.688146912    1.006175870    7.740823898    7.871578603
    0.695325543    1.006171695    7.735604924    7.866107519
    0.702504174    1.006167482    7.730340446    7.860589113
    0.709682805    1.006163231    7.725030710    7.855023653
    0.716861436    1.006158944    7.719675962    7.849411405
    0.724040067    1.006154620    7.714276450    7.843752638
    0.731218698    1.006150259    7.708832423    7.838047624
    0.738397329    1.006145861    7.703344131    7.832296634
    0.745575960    1.006141427    7.697811826    7.826499942
    0.752754591    1.006136957    7.692235762    7.820657821
    0.759933222    1.006132450    7.686616193    7.814770549
    0.767111853    1.006127908    7.680953374    7.808838402
    0.774290484    1.006123330    7.675247563    7.802861659
    0.781469115    1.006118716    7.669499016    7.796840599
    0.788647746    1.006114067    7.663707993    7.790775503
    0.795826377    1.006109383    7.657874755    7.784666652
    0.803005008    1.006104664    7.651999563    7.778514331
    0.810183639    1.006099910    7.646082678    7.772318822
    0.817362270    1.006095121    7.640124365    7.766080411
    0.824540902    1.006090298    7.634124887    7.759799384
    0.831719533    1.006085441    7.628084511    7.753476028
    0.838898164    1.006080550    7.622003501    7.747110632
    0.846076795    1.006075624    7.615882126    7.740703483
    0.853255426    1.006070665    7.609720654    7.734254872
    0.860434057    1.006065673    7.603519352    7.727765089
    0.867612688    1.006060647    7.597278493    7.721234426
    0.874791319    1.006055588    7.590998344    7.714663176
    0.881969950    1.006050496    7.584679180    7.708051630
    0.889148581    1.006045371    7.578321270    7.701400084
    0.896327212    1.006040214    7.571924888    7.694708830
    0.903505843    1.006035025    7.565490308    7.687978166
    0.910684474    1.006029803    7.559017804    7.681208385
    0.917863105    1.006024549    7.552507651    7.674399785
    0.925041736    1.006019264    7.545960123    7.667552662
    0.932220367    1.006013946    7.539375498    7.660667315
    0.939398998    1.006008598    7.532754052    7.653744040
    0.946577629    1.006003218    7.526096062    7.646783137
    0.953756260    1.005997808    7.519401805    7.639784904
    0.960934891    1.005992366    7.512671561    7.632749642
    0.968113523    1.005986894    7.505905607    7.625677649
    0.975292154    1.005981391    7.499104222    7.618569226
    0.982470785    1.005975859    7.492267687    7.611424674
    0.989649416    1.005970296    7.485396281    7.604244293
    0.996828047    1.005964703    7.478490284    7.597028385
    1.004006678    1.005959081    7.471549976    7.589777251
    1.011185309    1.005953430    7.464575639    7.582491192
    1.018363940    1.005947749    7.457567554    7.575170511
    1.025542571    1.005942039    7.450526002    7.567815510
    1.032721202    1.005936301    7.443451265    7.560426490
    1.039899833    1.005930533    7.436343625    7.553003755
    1.047078464    1.005924738    7.429203364    7.545547607
    1.054257095    1.005918914    7.422030763    7.538058348
    1.061435726    1.005913062    7.414826106    7.530536281
    1.068614357    1.005907183    7.407589674    7.522981708
    1.075792988    1.005901276    7.400321751    7.515394933
    1.082971619    1.005895341    7.393022619    7.507776258
    1.090150250    1.005889380    7.385692561    7.500125985
    1.097328881    1.005883391    7.378331859    7.492444416
    1.104507513    1.005877376    7.370940796    7.484731855
    1.111686144    1.005871334    7.363519655    7.476988604
    1.118864775    1.005865266    7.356068718    7.469214964
    1.126043406    1.005859171    7.348588268    7.461411239
    1.133222037    1.005853051    7.341078587    7.453577728
    1.140400668    1.005846905    7.333539958    7.445714734
    1.147579299    1.005840733    7.325972664    7.437822559
    1.154757930    1.005834536    7.318376985    7.429901503
    1.161936561    1.005828314    7.310753204    7.421951867
    1.169115192    1.005822067    7.303101602    7.413973952
    1.176293823    1.005815796    7.295422462    7.405968057
    1.183472454    1.005809500    7.287716064    7.397934482
    1.190651085    1.005803179    7.279982690    7.389873528
    1.197829716    1.005796835    7.272222619    7.381785492
    1.205008347    1.005790466    7.264436133    7.373670673
    1.212186978    1.005784074    7.256623512    7.365529369
    1.219365609    1.005777659    7.248785034    7.357361879
    1.226544240    1.005771220    7.240920981    7.349168499
    1.233722871    1.005764758    7.233031630    7.340949526
    1.240901503    1.005758274    7.225117260    7.332705256
    1.248080134    1.005751766    7.217178150    7.324435985
    1.255258765    1.005745237    7.209214576    7.316142007
    1.262437396    1.005738685    7.201226818    7.307823618
    1.269616027    1.005732111    7.193215150    7.299481111
    1.276794658    1.005725515    7.185179851    7.291114779
    1.283973289    1.005718898    7.177121195    7.282724915
    1.291151920    1.005712259    7.169039458    7.274311811
    1.298330551    1.005705599    7.160934914    7.265875758
    1.305509182    1.005698918    7.152807839    7.257417048
    1.312687813    1.005692216    7.144658505    7.248935968
    1.319866444    1.005685494    7.136487186    7.240432810
    1.327045075    1.005678751    7.128294153    7.231907861
    1.334223706    1.005671988    7.120079680    7.223361408
    1.341402337    1.005665206    7.111844037    7.214793740
    1.348580968    1.005658403    7.103587494    7.206205141
    1.355759599    1.005651581    7.095310322    7.197595898
    1.362938230    1.005644740    7.087012790    7.188966294
    1.370116861    1.005637879    7.078695165    7.180316613
    1.377295492    1.005630999    7.070357717    7.171647139
    1.384474124    1.005624101    7.062000712    7.162958152
    1.391652755    1.005617184    7.053624416    7.154249934
    1.398831386    1.005610249    7.045229095    7.145522765
    1.406010017    1.005603296    7.036815013    7.136776924
    1.413188648    1.005596325    7.028382435    7.128012690
    1.420367279    1.005589336    7.019931624    7.119230339
    1.427545910    1.005582329    7.011462842    7.110430149
    1.434724541    1.005575305    7.002976351    7.101612394
    1.441903172    1.005568264    6.994472411    7.092777349
    1.449081803    1.005561207    6.985951282    7.083925287
    1.456260434    1.005554132    6.977413224    7.075056481
    1.463439065    1.005547041    6.968858494    7.066171202
    1.470617696    1.005539933    6.960287350    7.057269721
    1.477796327    1.005532810    6.951700047    7.048352307
    1.484974958    1.005525670    6.943096842    7.039419228
    1.492153589    1.005518515    6.934477989    7.030470751
    1.499332220    1.005511344    6.925843742    7.021507143
    1.506510851    1.005504158    6.917194352    7.012528668
    1.513689482    1.005496956    6.908530072    7.003535591
    1.520868114    1.005489740    6.899851153    6.994528174
    1.528046745    1.005482509    6.891157844    6.985506679
    1.535225376    1.005475263    6.882450395    6.976471367
    1.542404007    1.005468003    6.873729051    6.967422497
    1.549582638    1.005460729    6.864994062    6.958360328
    1.556761269    1.005453441    6.856245672    6.949285116
    1.563939900    1.005446139    6.847484125    6.940197118
    1.571118531    1.005438823    6.838709667    6.931096588
    1.578297162    1.005431494    6.829922539    6.921983780
    1.585475793    1.005424152    6.821122983    6.912858947
    1.592654424    1.005416797    6.812311239    6.903722340
    1.599833055    1.005409429    6.803487548    6.894574209
    1.607011686    1.005402048    6.794652147    6.885414803
    1.614190317    1.005394655    6.785805273    6.876244369
    1.621368948    1.005387249    6.776947164    6.867063153
    1.628547579    1.005379832    6.768078054    6.857871402
    1.635726210    1.005372402    6.759198177    6.848669359
    1.642904841    1.005364961    6.750307767    6.839457266
    1.650083472    1.005357508    6.741407054    6.830235365
    1.657262104    1.005350044    6.732496271    6.821003896
    1.664440735    1.005342569    6.723575645    6.811763099
    1.671619366    1.005335082    6.714645407    6.802513210
    1.678797997    1.005327585    6.705705782    6.793254466
    1.685976628    1.005320077    6.696756998    6.783987102
    1.693155259    1.005312559    6.687799278    6.774711353
    1.700333890    1.005305031    6.678832848    6.765427449
    1.707512521    1.005297492    6.669857930    6.756135624
    1.714691152    1.005289944    6.660874745    6.746836106
    1.721869783    1.005282386    6.651883513    6.737529124
    1.729048414    1.005274818    6.642884455    6.728214905
    1.736227045    1.005267241    6.633877787    6.718893676
    1.743405676    1.005259654    6.624863726    6.709565661
    1.750584307    1.005252059    6.615842489    6.700231084
    1.757762938    1.005244455    6.606814290    6.690890166
    1.764941569    1.005236842    6.597779341    6.681543128
    1.772120200    1.005229221    6.588737854    6.672190189
    1.779298831    1.005221591    6.579690042    6.662831569
    1.786477462    1.005213953    6.570636113    6.653467482
    1.793656093    1.005206308    6.561576275    6.644098145
    1.800834725    1.005198654    6.552510736    6.634723772
    1.808013356    1.005190993    6.543439701    6.625344575
    1.815191987    1.005183324    6.534363376    6.615960765
    1.822370618    1.005175648    6.525281964    6.606572553
    1.829549249    1.005167965    6.516195667    6.597180148
    1.836727880    1.005160275    6.507104686    6.587783756
    1.843906511    1.005152578    6.498009221    6.578383584
    1.851085142    1.005144874    6.488909470    6.568979835
    1.858263773    1.005137164    6.479805632    6.559572714
    1.865442404    1.005129448    6.470697901    6.550162423
    1.872621035    1.005121725    6.461586473    6.540749161
    1.879799666    1.005113997    6.452471542    6.531333128
    1.886978297    1.005106262    6.443353300    6.521914522
    1.894156928    1.005098522    6.434231937    6.512493539
    1.901335559    1.005090777    6.425107645    6.503070374
    1.908514190    1.005083026    6.415980611    6.493645222
    1.915692821    1.005075270    6.406851022    6.484218274
    1.922871452    1.005067509    6.397719066    6.474789722
    1.930050083    1.005059743    6.388584927    6.465359755
    1.937228715    1.005051972    6.379448789    6.455928561
    1.944407346    1.005044197    6.370310834    6.446496328
    1.951585977    1.005036417    6.361171243    6.437063242
    1.958764608    1.005028633    6.352030196    6.427629486
    1.965943239    1.005020845    6.342887872    6.418195243
    1.973121870    1.005013053    6.333744448    6.408760695
    1.980300501    1.005005257    6.324600101    6.399326023
    1.987479132    1.004997458    6.315455005    6.389891405
    1.994657763    1.004989655    6.306309334    6.380457018
    2.001836394    1.004981848    6.297163261    6.371023040
    2.009015025    1.004974039    6.288016956    6.361589644
    2.016193656    1.004966226    6.278870591    6.352157004
    2.023372287    1.004958411    6.269724332    6.342725293
    2.030550918    1.004950592    6.260578348    6.333294680
    2.037729549    1.004942771    6.251432806    6.323865337
    2.044908180    1.004934948    6.242287869    6.314437431
    2.052086811    1.004927122    6.233143702    6.305011128
    2.059265442    1.004919294    6.224000468    6.295586594
    2.066444073    1.004911464    6.214858327    6.286163994
    2.073622705    1.004903632    6.205717440    6.276743490
    2.080801336    1.004895798    6.196577966    6.267325245
    2.087979967    1.004887962    6.187440061    6.257909417
    2.095158598    1.004880125    6.178303883    6.248496166
    2.102337229    1.004872287    6.169169587    6.239085650
    2.109515860    1.004864447    6.160037326    6.229678024
    2.116694491    1.004856606    6.150907253    6.220273445
    2.123873122    1.004848765    6.141779520    6.210872065
    2.131051753    1.004840922    6.132654277    6.201474037
    2.138230384    1.004833079    6.123531673    6.192079512
    2.145409015    1.004825235    6.114411856    6.182688640
    2.152587646    1.004817391    6.105294972    6.173301569
    2.159766277    1.004809546    6.096181167    6.163918447
    2.166944908    1.004801701    6.087070586    6.154539419
    2.174123539    1.004793856    6.077963370    6.145164630
    2.181302170    1.004786011    6.068859663    6.135794225
    2.188480801    1.004778167    6.059759604    6.126428344
    2.195659432    1.004770322    6.050663333    6.117067128
    2.202838063    1.004762479    6.041570988    6.107710718
    2.210016694    1.004754635    6.032482707    6.098359251
    2.217195326    1.004746793    6.023398625    6.089012866
    2.224373957    1.004738951    6.014318877    6.079671696
    2.231552588    1.004731110    6.005243597    6.070335878
    2.238731219    1.004723270    5.996172917    6.061005544
    2.245909850    1.004715431    5.987106967    6.051680827
    2.253088481    1.004707594    5.978045879    6.042361858
    2.260267112    1.004699758    5.968989781    6.033048766
    2.267445743    1.004691923    5.959938801    6.023741679
    2.274624374    1.004684090    5.950893065    6.014440725
    2.281803005    1.004676259    5.941852699    6.005146031
    2.288981636    1.004668430    5.932817827    5.995857720
    2.296160267    1.004660603    5.923788572    5.986575916
    2.303338898    1.004652778    5.914765057    5.977300743
    2.310517529    1.004644955    5.905747402    5.968032320
    2.317696160    1.004637134    5.896735726    5.958770769
    2.324874791    1.004629316    5.887730149    5.949516207
    2.332053422    1.004621500    5.878730788    5.940268754
    2.339232053    1.004613687    5.869737760    5.931028524
    2.346410684    1.004605876    5.860751179    5.921795634
    2.353589316    1.004598069    5.851771160    5.912570197
    2.360767947    1.004590264    5.842797816    5.903352328
    2.367946578    1.004582463    5.833831259    5.894142137
    2.375125209    1.004574665    5.824871599    5.884939735
    2.382303840    1.004566870    5.815918948    5.875745232
    2.389482471    1.004559078    5.806973412    5.866558736
    2.396661102    1.004551290    5.798035101    5.857380355
    2.403839733    1.004543505    5.789104120    5.848210195
    2.411018364    1.004535724    5.780180575    5.839048361
    2.418196995    1.004527947    5.771264571    5.829894957
    2.425375626    1.004520174    5.762356210    5.820750085
    2.432554257    1.004512405    5.753455595    5.811613848
    2.439732888    1.004504640    5.744562828    5.802486346
    2.446911519    1.004496878    5.735678008    5.793367679
    2.454090150    1.004489122    5.726801236    5.784257945
    2.461268781    1.004481369    5.717932608    5.775157241
    2.468447412    1.004473621    5.709072221    5.766065664
    2.475626043    1.004465878    5.700220173    5.756983310
    2.482804674    1.004458139    5.691376558    5.747910272
    2.489983306    1.004450405    5.682541471    5.738846643
    2.497161937    1.004442676    5.673715003    5.729792515
    2.504340568    1.004434951    5.664897247    5.720747980
    2.511519199    1.004427232    5.656088295    5.711713128
    2.518697830    1.004419518    5.647288236    5.702688047
    2.525876461    1.004411809    5.638497159    5.693672825
    2.533055092    1.004404105    5.629715153    5.684667550
    2.540233723    1.004396406    5.620942304    5.675672306
