# energy grid [eV]     ieps_x  ieps_y  ieps_z
#
    0.200000000    2.195633068    7.958394244    7.398779245
    0.207178631    2.195401736    7.956883914    7.397272821
    0.214357262    2.195162345    7.955321051    7.395714085
    0.221535893    2.194914906    7.953705732    7.394103121
    0.228714524    2.194659429    7.952038032    7.392440014
    0.235893155    2.194395925    7.950318031    7.390724853
    0.243071786    2.194124405    7.948545811    7.388957729
    0.250250417    2.193844880    7.946721455    7.387138735
    0.257429048    2.193557362    7.944845052    7.385267969
    0.264607679    2.193261864    7.942916690    7.383345529
    0.271786311    2.192958398    7.940936460    7.381371516
    0.278964942    2.192646977    7.938904456    7.379346036
    0.286143573    2.192327613    7.936820775    7.377269194
    0.293322204    2.192000321    7.934685514    7.375141101
    0.300500835    2.191665113    7.932498775    7.372961868
    0.307679466    2.191322004    7.930260661    7.370731611
    0.314858097    2.190971009    7.927971278    7.368450446
    0.322036728    2.190612142    7.925630732    7.366118492
    0.329215359    2.190245418    7.923239135    7.363735873
    0.336393990    2.189870853    7.920796599    7.361302712
    0.343572621    2.189488461    7.918303238    7.358819136
    0.350751252    2.189098260    7.915759169    7.356285276
    0.357929883    2.188700265    7.913164511    7.353701263
    0.365108514    2.188294493    7.910519386    7.351067232
    0.372287145    2.187880961    7.907823917    7.348383318
    0.379465776    2.187459685    7.905078229    7.345649663
    0.386644407    2.187030684    7.902282451    7.342866406
    0.393823038    2.186593975    7.899436713    7.340033692
    0.401001669    2.186149577    7.896541146    7.337151668
    0.408180301    2.185697507    7.893595885    7.334220481
    0.415358932    2.185237784    7.890601066    7.331240282
    0.422537563    2.184770428    7.887556829    7.328211224
    0.429716194    2.184295457    7.884463312    7.325133463
    0.436894825    2.183812891    7.881320660    7.322007156
    0.444073456    2.183322749    7.878129016    7.318832462
    0.451252087    2.182825053    7.874888528    7.315609544
    0.458430718    2.182319822    7.871599344    7.312338565
    0.465609349    2.181807077    7.868261614    7.309019692
    0.472787980    2.181286839    7.864875492    7.305653093
    0.479966611    2.180759129    7.861441131    7.302238938
    0.487145242    2.180223969    7.857958689    7.298777400
    0.494323873    2.179681380    7.854428325    7.295268652
    0.501502504    2.179131384    7.850850197    7.291712872
    0.508681135    2.178574004    7.847224469    7.288110238
    0.515859766    2.178009262    7.843551305    7.284460930
    0.523038397    2.177437181    7.839830870    7.280765130
    0.530217028    2.176857784    7.836063333    7.277023024
    0.537395659    2.176271095    7.832248863    7.273234797
    0.544574290    2.175677136    7.828387631    7.269400637
    0.551752922    2.175075933    7.824479811    7.265520734
    0.558931553    2.174467508    7.820525577    7.261595280
    0.566110184    2.173851887    7.816525107    7.257624469
    0.573288815    2.173229093    7.812478578    7.253608495
    0.580467446    2.172599152    7.808386170    7.249547557
    0.587646077    2.171962088    7.804248066    7.245441853
    0.594824708    2.171317928    7.800064448    7.241291583
    0.602003339    2.170666696    7.795835502    7.237096949
    0.609181970    2.170008418    7.791561414    7.232858157
    0.616360601    2.169343120    7.787242373    7.228575410
    0.623539232    2.168670829    7.782878568    7.224248917
    0.630717863    2.167991571    7.778470190    7.219878887
    0.637896494    2.167305372    7.774017432    7.215465528
    0.645075125    2.166612260    7.769520489    7.211009054
    0.652253756    2.165912261    7.764979557    7.206509677
    0.659432387    2.165205403    7.760394832    7.201967613
    0.666611018    2.164491714    7.755766514    7.197383078
    0.673789649    2.163771220    7.751094803    7.192756289
    0.680968280    2.163043950    7.746379899    7.188087466
    0.688146912    2.162309933    7.741622007    7.183376828
    0.695325543    2.161569196    7.736821331    7.178624599
    0.702504174    2.160821768    7.731978075    7.173831001
    0.709682805    2.160067678    7.727092448    7.168996259
    0.716861436    2.159306955    7.722164657    7.164120598
    0.724040067    2.158539627    7.717194912    7.159204246
    0.731218698    2.157765725    7.712183424    7.154247430
    0.738397329    2.156985277    7.707130404    7.149250381
    0.745575960    2.156198314    7.702036066    7.144213328
    0.752754591    2.155404864    7.696900624    7.139136505
    0.759933222    2.154604959    7.691724294    7.134020142
    0.767111853    2.153798628    7.686507293    7.128864475
    0.774290484    2.152985902    7.681249838    7.123669739
    0.781469115    2.152166811    7.675952149    7.118436170
    0.788647746    2.151341386    7.670614444    7.113164004
    0.795826377    2.150509657    7.665236946    7.107853480
    0.803005008    2.149671657    7.659819877    7.102504838
    0.810183639    2.148827416    7.654363459    7.097118316
    0.817362270    2.147976965    7.648867917    7.091694157
    0.824540902    2.147120335    7.643333475    7.086232601
    0.831719533    2.146257560    7.637760361    7.080733892
    0.838898164    2.145388669    7.632148799    7.075198273
    0.846076795    2.144513696    7.626499020    7.069625989
    0.853255426    2.143632672    7.620811251    7.064017284
    0.860434057    2.142745629    7.615085721    7.058372405
    0.867612688    2.141852601    7.609322662    7.052691598
    0.874791319    2.140953618    7.603522304    7.046975111
    0.881969950    2.140048714    7.597684880    7.041223191
    0.889148581    2.139137922    7.591810621    7.035436088
    0.896327212    2.138221274    7.585899763    7.029614050
    0.903505843    2.137298804    7.579952539    7.023757328
    0.910684474    2.136370544    7.573969184    7.017866172
    0.917863105    2.135436528    7.567949934    7.011940833
    0.925041736    2.134496788    7.561895025    7.005981564
    0.932220367    2.133551359    7.555804694    6.999988615
    0.939398998    2.132600274    7.549679178    6.993962240
    0.946577629    2.131643567    7.543518717    6.987902692
    0.953756260    2.130681270    7.537323548    6.981810225
    0.960934891    2.129713419    7.531093911    6.975685092
    0.968113523    2.128740047    7.524830046    6.969527548
    0.975292154    2.127761188    7.518532194    6.963337848
    0.982470785    2.126776876    7.512200595    6.957116246
    0.989649416    2.125787145    7.505835490    6.950862998
    0.996828047    2.124792030    7.499437122    6.944578360
    1.004006678    2.123791565    7.493005732    6.938262589
    1.011185309    2.122785785    7.486541564    6.931915939
    1.018363940    2.121774723    7.480044860    6.925538668
    1.025542571    2.120758415    7.473515865    6.919131032
    1.032721202    2.119736895    7.466954820    6.912693288
    1.039899833    2.118710198    7.460361972    6.906225693
    1.047078464    2.117678359    7.453737564    6.899728505
    1.054257095    2.116641412    7.447081841    6.893201981
    1.061435726    2.115599393    7.440395048    6.886646378
    1.068614357    2.114552336    7.433677430    6.880061954
    1.075792988    2.113500277    7.426929233    6.873448965
    1.082971619    2.112443251    7.420150703    6.866807671
    1.090150250    2.111381292    7.413342085    6.860138328
    1.097328881    2.110314437    7.406503625    6.853441194
    1.104507513    2.109242719    7.399635570    6.846716526
    1.111686144    2.108166175    7.392738166    6.839964583
    1.118864775    2.107084840    7.385811660    6.833185621
    1.126043406    2.105998749    7.378856298    6.826379898
    1.133222037    2.104907937    7.371872327    6.819547671
    1.140400668    2.103812440    7.364859994    6.812689197
    1.147579299    2.102712294    7.357819545    6.805804734
    1.154757930    2.101607533    7.350751227    6.798894537
    1.161936561    2.100498194    7.343655288    6.791958864
    1.169115192    2.099384312    7.336531973    6.784997971
    1.176293823    2.098265922    7.329381530    6.778012114
    1.183472454    2.097143061    7.322204205    6.771001549
    1.190651085    2.096015763    7.315000245    6.763966532
    1.197829716    2.094884064    7.307769898    6.756907318
    1.205008347    2.093747999    7.300513408    6.749824163
    1.212186978    2.092607605    7.293231023    6.742717320
    1.219365609    2.091462918    7.285922989    6.735587045
    1.226544240    2.090313971    7.278589551    6.728433591
    1.233722871    2.089160802    7.271230957    6.721257212
    1.240901503    2.088003446    7.263847451    6.714058162
    1.248080134    2.086841939    7.256439280    6.706836693
    1.255258765    2.085676315    7.249006688    6.699593058
    1.262437396    2.084506611    7.241549921    6.692327510
    1.269616027    2.083332862    7.234069223    6.685040298
    1.276794658    2.082155105    7.226564840    6.677731676
    1.283973289    2.080973373    7.219037015    6.670401893
    1.291151920    2.079787704    7.211485993    6.663051199
    1.298330551    2.078598132    7.203912018    6.655679845
    1.305509182    2.077404693    7.196315332    6.648288078
    1.312687813    2.076207422    7.188696178    6.640876149
    1.319866444    2.075006356    7.181054801    6.633444304
    1.327045075    2.073801529    7.173391441    6.625992791
    1.334223706    2.072592976    7.165706342    6.618521858
    1.341402337    2.071380734    7.157999743    6.611031749
    1.348580968    2.070164838    7.150271888    6.603522711
    1.355759599    2.068945322    7.142523016    6.595994990
    1.362938230    2.067722222    7.134753367    6.588448828
    1.370116861    2.066495573    7.126963183    6.580884469
    1.377295492    2.065265411    7.119152701    6.573302158
    1.384474124    2.064031771    7.111322161    6.565702135
    1.391652755    2.062794687    7.103471802    6.558084643
    1.398831386    2.061554195    7.095601860    6.550449923
    1.406010017    2.060310330    7.087712575    6.542798214
    1.413188648    2.059063126    7.079804181    6.535129756
    1.420367279    2.057812619    7.071876917    6.527444788
    1.427545910    2.056558844    7.063931017    6.519743547
    1.434724541    2.055301834    7.055966718    6.512026271
    1.441903172    2.054041626    7.047984252    6.504293196
    1.449081803    2.052778253    7.039983855    6.496544558
    1.456260434    2.051511751    7.031965760    6.488780592
    1.463439065    2.050242153    7.023930200    6.481001530
    1.470617696    2.048969495    7.015877407    6.473207607
    1.477796327    2.047693810    7.007807612    6.465399055
    1.484974958    2.046415133    6.999721046    6.457576105
    1.492153589    2.045133498    6.991617941    6.449738987
    1.499332220    2.043848940    6.983498524    6.441887932
    1.506510851    2.042561493    6.975363025    6.434023169
    1.513689482    2.041271190    6.967211673    6.426144924
    1.520868114    2.039978065    6.959044695    6.418253426
    1.528046745    2.038682153    6.950862317    6.410348900
    1.535225376    2.037383488    6.942664766    6.402431572
    1.542404007    2.036082103    6.934452268    6.394501666
    1.549582638    2.034778031    6.926225045    6.386559405
    1.556761269    2.033471306    6.917983324    6.378605012
    1.563939900    2.032161963    6.909727326    6.370638708
    1.571118531    2.030850033    6.901457274    6.362660714
    1.578297162    2.029535551    6.893173389    6.354671249
    1.585475793    2.028218550    6.884875893    6.346670533
    1.592654424    2.026899062    6.876565005    6.338658782
    1.599833055    2.025577121    6.868240944    6.330636213
    1.607011686    2.024252760    6.859903930    6.322603043
    1.614190317    2.022926012    6.851554179    6.314559485
    1.621368948    2.021596909    6.843191907    6.306505753
    1.628547579    2.020265484    6.834817332    6.298442061
    1.635726210    2.018931770    6.826430668    6.290368619
    1.642904841    2.017595798    6.818032129    6.282285639
    1.650083472    2.016257602    6.809621929    6.274193329
    1.657262104    2.014917214    6.801200280    6.266091899
    1.664440735    2.013574666    6.792767393    6.257981556
    1.671619366    2.012229989    6.784323480    6.249862506
    1.678797997    2.010883216    6.775868750    6.241734955
    1.685976628    2.009534378    6.767403412    6.233599108
    1.693155259    2.008183508    6.758927675    6.225455167
    1.700333890    2.006830637    6.750441745    6.217303335
    1.707512521    2.005475797    6.741945829    6.209143813
    1.714691152    2.004119018    6.733440132    6.200976802
    1.721869783    2.002760332    6.724924858    6.192802499
    1.729048414    2.001399770    6.716400211    6.184621104
    1.736227045    2.000037364    6.707866393    6.176432813
    1.743405676    1.998673144    6.699323607    6.168237822
    1.750584307    1.997307141    6.690772052    6.160036325
    1.757762938    1.995939385    6.682211929    6.151828517
    1.764941569    1.994569908    6.673643436    6.143614589
    1.772120200    1.993198740    6.665066772    6.135394733
    1.779298831    1.991825911    6.656482132    6.127169140
    1.786477462    1.990451451    6.647889713    6.118937999
    1.793656093    1.989075391    6.639289709    6.110701497
    1.800834725    1.987697760    6.630682316    6.102459822
    1.808013356    1.986318588    6.622067725    6.094213159
    1.815191987    1.984937906    6.613446128    6.085961694
    1.822370618    1.983555742    6.604817717    6.077705610
    1.829549249    1.982172126    6.596182682    6.069445089
    1.836727880    1.980787087    6.587541212    6.061180313
    1.843906511    1.979400655    6.578893494    6.052911462
    1.851085142    1.978012860    6.570239715    6.044638715
    1.858263773    1.976623728    6.561580063    6.036362250
    1.865442404    1.975233291    6.552914720    6.028082245
    1.872621035    1.973841575    6.544243873    6.019798875
    1.879799666    1.972448611    6.535567703    6.011512314
    1.886978297    1.971054426    6.526886393    6.003222736
    1.894156928    1.969659049    6.518200123    5.994930313
    1.901335559    1.968262507    6.509509073    5.986635217
    1.908514190    1.966864830    6.500813423    5.978337617
    1.915692821    1.965466044    6.492113350    5.970037684
    1.922871452    1.964066178    6.483409031    5.961735583
    1.930050083    1.962665260    6.474700641    5.953431483
    1.937228715    1.961263316    6.465988356    5.945125549
    1.944407346    1.959860374    6.457272350    5.936817944
    1.951585977    1.958456462    6.448552794    5.928508834
    1.958764608    1.957051606    6.439829862    5.920198378
    1.965943239    1.955645834    6.431103722    5.911886739
    1.973121870    1.954239173    6.422374546    5.903574077
    1.980300501    1.952831648    6.413642501    5.895260550
    1.987479132    1.951423288    6.404907754    5.886946316
    1.994657763    1.950014117    6.396170474    5.878631531
    2.001836394    1.948604163    6.387430824    5.870316351
    2.009015025    1.947193452    6.378688970    5.862000930
    2.016193656    1.945782009    6.369945074    5.853685420
    2.023372287    1.944369860    6.361199299    5.845369975
    2.030550918    1.942957032    6.352451806    5.837054745
    2.037729549    1.941543550    6.343702756    5.828739879
    2.044908180    1.940129438    6.334952307    5.820425527
    2.052086811    1.938714724    6.326200618    5.812111835
    2.059265442    1.937299431    6.317447845    5.803798950
    2.066444073    1.935883585    6.308694146    5.795487017
    2.073622705    1.934467211    6.299939674    5.787176181
    2.080801336    1.933050333    6.291184583    5.778866584
    2.087979967    1.931632977    6.282429027    5.770558369
    2.095158598    1.930215166    6.273673157    5.762251676
    2.102337229    1.928796925    6.264917125    5.753946644
    2.109515860    1.927378278    6.256161079    5.745643413
    2.116694491    1.925959249    6.247405169    5.737342119
    2.123873122    1.924539862    6.238649542    5.729042900
    2.131051753    1.923120141    6.229894345    5.720745890
    2.138230384    1.921700109    6.221139723    5.712451224
    2.145409015    1.920279791    6.212385821    5.704159034
    2.152587646    1.918859208    6.203632783    5.695869453
    2.159766277    1.917438385    6.194880750    5.687582612
    2.166944908    1.916017345    6.186129865    5.679298640
    2.174123539    1.914596110    6.177380267    5.671017666
    2.181302170    1.913174703    6.168632096    5.662739817
    2.188480801    1.911753147    6.159885491    5.654465221
    2.195659432    1.910331464    6.151140588    5.646194003
    2.202838063    1.908909677    6.142397523    5.637926287
    2.210016694    1.907487808    6.133656433    5.629662196
    2.217195326    1.906065878    6.124917451    5.621401853
    2.224373957    1.904643911    6.116180711    5.613145379
    2.231552588    1.903221927    6.107446344    5.604892895
    2.238731219    1.901799948    6.098714481    5.596644518
    2.245909850    1.900377996    6.089985254    5.588400368
    2.253088481    1.898956092    6.081258790    5.580160562
    2.260267112    1.897534257    6.072535218    5.571925214
    2.267445743    1.896112513    6.063814665    5.563694441
    2.274624374    1.894690880    6.055097257    5.555468356
    2.281803005    1.893269379    6.046383119    5.547247071
    2.288981636    1.891848030    6.037672375    5.539030700
    2.296160267    1.890426855    6.028965148    5.530819352
    2.303338898    1.889005873    6.020261560    5.522613137
    2.310517529    1.887585105    6.011561732    5.514412164
    2.317696160    1.886164570    6.002865785    5.506216541
    2.324874791    1.884744290    5.994173836    5.498026374
    2.332053422    1.883324282    5.985486005    5.489841770
    2.339232053    1.881904569    5.976802408    5.481662832
    2.346410684    1.880485167    5.968123161    5.473489665
    2.353589316    1.879066098    5.959448380    5.465322371
    2.360767947    1.877647380    5.950778178    5.457161052
    2.367946578    1.876229033    5.942112668    5.449005808
    2.375125209    1.874811074    5.933451964    5.440856740
    2.382303840    1.873393524    5.924796175    5.432713946
    2.389482471    1.871976401    5.916145413    5.424577525
    2.396661102    1.870559723    5.907499786    5.416447571
    2.403839733    1.869143509    5.898859402    5.408324183
    2.411018364    1.867727777    5.890224370    5.400207454
    2.418196995    1.866312545    5.881594795    5.392097478
    2.425375626    1.864897831    5.872970782    5.383994349
    2.432554257    1.863483653    5.864352437    5.375898158
    2.439732888    1.862070029    5.855739863    5.367808997
    2.446911519    1.860656976    5.847133162    5.359726955
    2.454090150    1.859244512    5.838532436    5.351652123
    2.461268781    1.857832654    5.829937786    5.343584587
    2.468447412    1.856421419    5.821349311    5.335524436
    2.475626043    1.855010824    5.812767110    5.327471755
    2.482804674    1.853600886    5.804191282    5.319426631
    2.489983306    1.852191622    5.795621923    5.311389148
    2.497161937    1.850783049    5.787059129    5.303359390
    2.504340568    1.849375183    5.778502995    5.295337439
    2.511519199    1.847968040    5.769953616    5.287323377
    2.518697830    1.846561637    5.761411086    5.279317286
    2.525876461    1.845155990    5.752875495    5.271319245
    2.533055092    1.843751114    5.744346937    5.263329333
    2.540233723    1.842347025    5.735825502    5.255347630
