# energy grid [eV]     ieps_x  ieps_y  ieps_z
#
    0.200000000    2.778510253    4.613096623    5.123531382
    0.207178631    2.778034076    4.612186406    5.122657254
    0.214357262    2.777541435    4.611244745    5.121752845
    0.221535893    2.777032364    4.610271706    5.120818211
    0.228714524    2.776506895    4.609267355    5.119853407
    0.235893155    2.775965066    4.608231764    5.118858492
    0.243071786    2.775406912    4.607165003    5.117833525
    0.250250417    2.774832470    4.606067147    5.116778568
    0.257429048    2.774241780    4.604938271    5.115693683
    0.264607679    2.773634880    4.603778452    5.114578934
    0.271786311    2.773011811    4.602587770    5.113434388
    0.278964942    2.772372615    4.601366306    5.112260112
    0.286143573    2.771717333    4.600114142    5.111056173
    0.293322204    2.771046010    4.598831364    5.109822643
    0.300500835    2.770358689    4.597518056    5.108559592
    0.307679466    2.769655415    4.596174308    5.107267095
    0.314858097    2.768936236    4.594800209    5.105945224
    0.322036728    2.768201197    4.593395851    5.104594056
    0.329215359    2.767450347    4.591961325    5.103213667
    0.336393990    2.766683735    4.590496728    5.101804137
    0.343572621    2.765901411    4.589002154    5.100365543
    0.350751252    2.765103424    4.587477701    5.098897967
    0.357929883    2.764289828    4.585923469    5.097401492
    0.365108514    2.763460673    4.584339558    5.095876199
    0.372287145    2.762616014    4.582726069    5.094322174
    0.379465776    2.761755904    4.581083108    5.092739501
    0.386644407    2.760880398    4.579410778    5.091128268
    0.393823038    2.759989552    4.577709185    5.089488563
    0.401001669    2.759083422    4.575978438    5.087820473
    0.408180301    2.758162065    4.574218645    5.086124090
    0.415358932    2.757225541    4.572429917    5.084399504
    0.422537563    2.756273906    4.570612364    5.082646807
    0.429716194    2.755307222    4.568766100    5.080866092
    0.436894825    2.754325548    4.566891239    5.079057453
    0.444073456    2.753328945    4.564987896    5.077220985
    0.451252087    2.752317475    4.563056188    5.075356784
    0.458430718    2.751291200    4.561096231    5.073464947
    0.465609349    2.750250184    4.559108144    5.071545572
    0.472787980    2.749194491    4.557092048    5.069598757
    0.479966611    2.748124184    4.555048063    5.067624602
    0.487145242    2.747039329    4.552976311    5.065623208
    0.494323873    2.745939993    4.550876915    5.063594675
    0.501502504    2.744826241    4.548749998    5.061539105
    0.508681135    2.743698140    4.546595687    5.059456603
    0.515859766    2.742555759    4.544414106    5.057347271
    0.523038397    2.741399165    4.542205383    5.055211213
    0.530217028    2.740228428    4.539969646    5.053048535
    0.537395659    2.739043616    4.537707022    5.050859344
    0.544574290    2.737844801    4.535417642    5.048643745
    0.551752922    2.736632052    4.533101637    5.046401846
    0.558931553    2.735405441    4.530759137    5.044133756
    0.566110184    2.734165040    4.528390275    5.041839582
    0.573288815    2.732910921    4.525995183    5.039519434
    0.580467446    2.731643156    4.523573995    5.037173424
    0.587646077    2.730361819    4.521126847    5.034801660
    0.594824708    2.729066985    4.518653872    5.032404255
    0.602003339    2.727758726    4.516155208    5.029981321
    0.609181970    2.726437117    4.513630990    5.027532970
    0.616360601    2.725102235    4.511081356    5.025059316
    0.623539232    2.723754154    4.508506445    5.022560471
    0.630717863    2.722392951    4.505906394    5.020036552
    0.637896494    2.721018702    4.503281344    5.017487671
    0.645075125    2.719631485    4.500631434    5.014913946
    0.652253756    2.718231376    4.497956805    5.012315491
    0.659432387    2.716818453    4.495257598    5.009692424
    0.666611018    2.715392795    4.492533955    5.007044860
    0.673789649    2.713954480    4.489786018    5.004372919
    0.680968280    2.712503587    4.487013930    5.001676717
    0.688146912    2.711040195    4.484217835    4.998956373
    0.695325543    2.709564383    4.481397876    4.996212007
    0.702504174    2.708076233    4.478554198    4.993443736
    0.709682805    2.706575823    4.475686946    4.990651682
    0.716861436    2.705063236    4.472796265    4.987835965
    0.724040067    2.703538551    4.469882301    4.984996704
    0.731218698    2.702001849    4.466945200    4.982134022
    0.738397329    2.700453213    4.463985110    4.979248039
    0.745575960    2.698892724    4.461002176    4.976338878
    0.752754591    2.697320464    4.457996547    4.973406661
    0.759933222    2.695736516    4.454968371    4.970451510
    0.767111853    2.694140961    4.451917796    4.967473549
    0.774290484    2.692533884    4.448844970    4.964472900
    0.781469115    2.690915366    4.445750042    4.961449689
    0.788647746    2.689285491    4.442633162    4.958404038
    0.795826377    2.687644343    4.439494480    4.955336073
    0.803005008    2.685992005    4.436334144    4.952245917
    0.810183639    2.684328561    4.433152307    4.949133697
    0.817362270    2.682654095    4.429949117    4.945999537
    0.824540902    2.680968691    4.426724726    4.942843563
    0.831719533    2.679272435    4.423479284    4.939665902
    0.838898164    2.677565409    4.420212944    4.936466679
    0.846076795    2.675847700    4.416925856    4.933246021
    0.853255426    2.674119391    4.413618173    4.930004055
    0.860434057    2.672380568    4.410290045    4.926740909
    0.867612688    2.670631317    4.406941626    4.923456709
    0.874791319    2.668871721    4.403573067    4.920151582
    0.881969950    2.667101866    4.400184521    4.916825658
    0.889148581    2.665321839    4.396776141    4.913479064
    0.896327212    2.663531724    4.393348079    4.910111929
    0.903505843    2.661731606    4.389900488    4.906724380
    0.910684474    2.659921573    4.386433522    4.903316548
    0.917863105    2.658101708    4.382947332    4.899888560
    0.925041736    2.656272099    4.379442074    4.896440546
    0.932220367    2.654432831    4.375917899    4.892972635
    0.939398998    2.652583989    4.372374961    4.889484958
    0.946577629    2.650725660    4.368813414    4.885977643
    0.953756260    2.648857930    4.365233411    4.882450821
    0.960934891    2.646980884    4.361635106    4.878904621
    0.968113523    2.645094608    4.358018652    4.875339175
    0.975292154    2.643199189    4.354384203    4.871754611
    0.982470785    2.641294712    4.350731913    4.868151062
    0.989649416    2.639381264    4.347061935    4.864528657
    0.996828047    2.637458929    4.343374423    4.860887528
    1.004006678    2.635527795    4.339669530    4.857227804
    1.011185309    2.633587946    4.335947410    4.853549618
    1.018363940    2.631639470    4.332208217    4.849853101
    1.025542571    2.629682450    4.328452104    4.846138383
    1.032721202    2.627716974    4.324679224    4.842405596
    1.039899833    2.625743126    4.320889731    4.838654872
    1.047078464    2.623760993    4.317083778    4.834886341
    1.054257095    2.621770659    4.313261518    4.831100136
    1.061435726    2.619772210    4.309423104    4.827296388
    1.068614357    2.617765732    4.305568690    4.823475229
    1.075792988    2.615751309    4.301698428    4.819636790
    1.082971619    2.613729027    4.297812470    4.815781204
    1.090150250    2.611698971    4.293910970    4.811908602
    1.097328881    2.609661225    4.289994080    4.808019116
    1.104507513    2.607615875    4.286061952    4.804112878
    1.111686144    2.605563004    4.282114738    4.800190020
    1.118864775    2.603502698    4.278152591    4.796250674
    1.126043406    2.601435040    4.274175661    4.792294971
    1.133222037    2.599360116    4.270184101    4.788323044
    1.140400668    2.597278008    4.266178061    4.784335024
    1.147579299    2.595188801    4.262157693    4.780331044
    1.154757930    2.593092578    4.258123149    4.776311235
    1.161936561    2.590989424    4.254074577    4.772275729
    1.169115192    2.588879420    4.250012130    4.768224657
    1.176293823    2.586762652    4.245935957    4.764158153
    1.183472454    2.584639200    4.241846208    4.760076347
    1.190651085    2.582509149    4.237743032    4.755979370
    1.197829716    2.580372581    4.233626580    4.751867355
    1.205008347    2.578229579    4.229497000    4.747740434
    1.212186978    2.576080223    4.225354441    4.743598736
    1.219365609    2.573924597    4.221199052    4.739442394
    1.226544240    2.571762783    4.217030981    4.735271540
    1.233722871    2.569594860    4.212850375    4.731086304
    1.240901503    2.567420912    4.208657383    4.726886816
    1.248080134    2.565241019    4.204452151    4.722673209
    1.255258765    2.563055262    4.200234827    4.718445614
    1.262437396    2.560863721    4.196005556    4.714204159
    1.269616027    2.558666477    4.191764486    4.709948977
    1.276794658    2.556463610    4.187511763    4.705680198
    1.283973289    2.554255199    4.183247530    4.701397952
    1.291151920    2.552041325    4.178971935    4.697102369
    1.298330551    2.549822066    4.174685121    4.692793579
    1.305509182    2.547597502    4.170387233    4.688471712
    1.312687813    2.545367711    4.166078414    4.684136898
    1.319866444    2.543132772    4.161758809    4.679789266
    1.327045075    2.540892762    4.157428560    4.675428946
    1.334223706    2.538647761    4.153087810    4.671056066
    1.341402337    2.536397845    4.148736701    4.666670756
    1.348580968    2.534143092    4.144375376    4.662273143
    1.355759599    2.531883579    4.140003975    4.657863358
    1.362938230    2.529619383    4.135622640    4.653441528
    1.370116861    2.527350579    4.131231512    4.649007781
    1.377295492    2.525077245    4.126830729    4.644562245
    1.384474124    2.522799456    4.122420432    4.640105048
    1.391652755    2.520517287    4.118000760    4.635636318
    1.398831386    2.518230814    4.113571852    4.631156180
    1.406010017    2.515940111    4.109133845    4.626664764
    1.413188648    2.513645254    4.104686878    4.622162194
    1.420367279    2.511346316    4.100231087    4.617648598
    1.427545910    2.509043371    4.095766610    4.613124101
    1.434724541    2.506736493    4.091293582    4.608588830
    1.441903172    2.504425755    4.086812140    4.604042911
    1.449081803    2.502111229    4.082322418    4.599486468
    1.456260434    2.499792990    4.077824551    4.594919626
    1.463439065    2.497471108    4.073318674    4.590342512
    1.470617696    2.495145655    4.068804919    4.585755248
    1.477796327    2.492816704    4.064283420    4.581157960
    1.484974958    2.490484324    4.059754310    4.576550771
    1.492153589    2.488148588    4.055217720    4.571933805
    1.499332220    2.485809565    4.050673782    4.567307184
    1.506510851    2.483467326    4.046122626    4.562671033
    1.513689482    2.481121940    4.041564384    4.558025474
    1.520868114    2.478773477    4.036999185    4.553370628
    1.528046745    2.476422006    4.032427158    4.548706619
    1.535225376    2.474067595    4.027848431    4.544033568
    1.542404007    2.471710313    4.023263134    4.539351595
    1.549582638    2.469350228    4.018671393    4.534660822
    1.556761269    2.466987407    4.014073335    4.529961370
    1.563939900    2.464621917    4.009469087    4.525253359
    1.571118531    2.462253826    4.004858774    4.520536909
    1.578297162    2.459883199    4.000242521    4.515812138
    1.585475793    2.457510104    3.995620453    4.511079168
    1.592654424    2.455134604    3.990992695    4.506338115
    1.599833055    2.452756767    3.986359369    4.501589100
    1.607011686    2.450376656    3.981720597    4.496832239
    1.614190317    2.447994336    3.977076503    4.492067650
    1.621368948    2.445609872    3.972427208    4.487295452
    1.628547579    2.443223327    3.967772833    4.482515759
    1.635726210    2.440834765    3.963113497    4.477728690
    1.642904841    2.438444249    3.958449321    4.472934360
    1.650083472    2.436051841    3.953780424    4.468132885
    1.657262104    2.433657603    3.949106924    4.463324379
    1.664440735    2.431261598    3.944428938    4.458508959
    1.671619366    2.428863887    3.939746585    4.453686738
    1.678797997    2.426464531    3.935059981    4.448857831
    1.685976628    2.424063590    3.930369241    4.444022350
    1.693155259    2.421661125    3.925674480    4.439180410
    1.700333890    2.419257197    3.920975815    4.434332122
    1.707512521    2.416851863    3.916273357    4.429477600
    1.714691152    2.414445184    3.911567222    4.424616955
    1.721869783    2.412037219    3.906857521    4.419750299
    1.729048414    2.409628025    3.902144366    4.414877742
    1.736227045    2.407217660    3.897427869    4.409999395
    1.743405676    2.404806183    3.892708141    4.405115369
    1.750584307    2.402393650    3.887985292    4.400225772
    1.757762938    2.399980118    3.883259431    4.395330715
    1.764941569    2.397565643    3.878530667    4.390430305
    1.772120200    2.395150281    3.873799109    4.385524652
    1.779298831    2.392734088    3.869064863    4.380613862
    1.786477462    2.390317120    3.864328036    4.375698044
    1.793656093    2.387899430    3.859588736    4.370777304
    1.800834725    2.385481074    3.854847066    4.365851749
    1.808013356    2.383062104    3.850103132    4.360921484
    1.815191987    2.380642576    3.845357039    4.355986616
    1.822370618    2.378222542    3.840608890    4.351047249
    1.829549249    2.375802054    3.835858787    4.346103487
    1.836727880    2.373381166    3.831106833    4.341155435
    1.843906511    2.370959929    3.826353129    4.336203196
    1.851085142    2.368538395    3.821597777    4.331246874
    1.858263773    2.366116615    3.816840876    4.326286571
    1.865442404    2.363694640    3.812082527    4.321322388
    1.872621035    2.361272520    3.807322827    4.316354429
    1.879799666    2.358850306    3.802561875    4.311382793
    1.886978297    2.356428047    3.797799769    4.306407581
    1.894156928    2.354005793    3.793036606    4.301428894
    1.901335559    2.351583592    3.788272481    4.296446831
    1.908514190    2.349161492    3.783507491    4.291461492
    1.915692821    2.346739543    3.778741730    4.286472974
    1.922871452    2.344317791    3.773975292    4.281481376
    1.930050083    2.341896284    3.769208272    4.276486796
    1.937228715    2.339475068    3.764440761    4.271489331
    1.944407346    2.337054192    3.759672853    4.266489077
    1.951585977    2.334633699    3.754904638    4.261486130
    1.958764608    2.332213638    3.750136208    4.256480587
    1.965943239    2.329794051    3.745367653    4.251472542
    1.973121870    2.327374986    3.740599062    4.246462089
    1.980300501    2.324956486    3.735830525    4.241449323
    1.987479132    2.322538596    3.731062129    4.236434337
    1.994657763    2.320121359    3.726293963    4.231417225
    2.001836394    2.317704819    3.721526112    4.226398078
    2.009015025    2.315289020    3.716758665    4.221376989
    2.016193656    2.312874003    3.711991705    4.216354049
    2.023372287    2.310459811    3.707225318    4.211329350
    2.030550918    2.308046487    3.702459589    4.206302981
    2.037729549    2.305634071    3.697694600    4.201275032
    2.044908180    2.303222606    3.692930436    4.196245593
    2.052086811    2.300812131    3.688167178    4.191214753
    2.059265442    2.298402688    3.683404908    4.186182600
    2.066444073    2.295994316    3.678643707    4.181149222
    2.073622705    2.293587055    3.673883655    4.176114706
    2.080801336    2.291180946    3.669124833    4.171079139
    2.087979967    2.288776025    3.664367319    4.166042607
    2.095158598    2.286372334    3.659611192    4.161005196
    2.102337229    2.283969908    3.654856529    4.155966991
    2.109515860    2.281568788    3.650103408    4.150928077
    2.116694491    2.279169009    3.645351906    4.145888537
    2.123873122    2.276770610    3.640602097    4.140848456
    2.131051753    2.274373627    3.635854059    4.135807917
    2.138230384    2.271978096    3.631107864    4.130767001
    2.145409015    2.269584055    3.626363587    4.125725792
    2.152587646    2.267191538    3.621621302    4.120684370
    2.159766277    2.264800581    3.616881081    4.115642817
    2.166944908    2.262411219    3.612142996    4.110601213
    2.174123539    2.260023487    3.607407119    4.105559638
    2.181302170    2.257637420    3.602673521    4.100518172
    2.188480801    2.255253050    3.597942271    4.095476892
    2.195659432    2.252870413    3.593213440    4.090435879
    2.202838063    2.250489541    3.588487097    4.085395208
    2.210016694    2.248110467    3.583763309    4.080354958
    2.217195326    2.245733225    3.579042144    4.075315206
    2.224373957    2.243357846    3.574323671    4.070276028
    2.231552588    2.240984362    3.569607954    4.065237499
    2.238731219    2.238612805    3.564895061    4.060199694
    2.245909850    2.236243207    3.560185056    4.055162689
    2.253088481    2.233875598    3.555478004    4.050126558
    2.260267112    2.231510008    3.550773969    4.045091374
    2.267445743    2.229146470    3.546073016    4.040057209
    2.274624374    2.226785011    3.541375206    4.035024138
    2.281803005    2.224425663    3.536680602    4.029992231
    2.288981636    2.222068454    3.531989265    4.024961561
    2.296160267    2.219713414    3.527301258    4.019932199
    2.303338898    2.217360571    3.522616640    4.014904214
    2.310517529    2.215009953    3.517935471    4.009877678
    2.317696160    2.212661589    3.513257812    4.004852658
    2.324874791    2.210315506    3.508583719    3.999829226
    2.332053422    2.207971732    3.503913253    3.994807448
    2.339232053    2.205630294    3.499246470    3.989787393
    2.346410684    2.203291219    3.494583427    3.984769128
    2.353589316    2.200954533    3.489924181    3.979752720
    2.360767947    2.198620263    3.485268788    3.974738236
    2.367946578    2.196288434    3.480617304    3.969725741
    2.375125209    2.193959072    3.475969782    3.964715301
    2.382303840    2.191632203    3.471326278    3.959706981
    2.389482471    2.189307850    3.466686845    3.954700845
    2.396661102    2.186986040    3.462051535    3.949696956
    2.403839733    2.184666796    3.457420403    3.944695379
    2.411018364    2.182350143    3.452793499    3.939696176
    2.418196995    2.180036104    3.448170875    3.934699410
    2.425375626    2.177724703    3.443552582    3.929705142
    2.432554257    2.175415963    3.438938670    3.924713433
    2.439732888    2.173109908    3.434329190    3.919724345
    2.446911519    2.170806558    3.429724190    3.914737938
    2.454090150    2.168505938    3.425123720    3.909754272
    2.461268781    2.166208069    3.420527827    3.904773406
    2.468447412    2.163912973    3.415936559    3.899795398
    2.475626043    2.161620672    3.411349964    3.894820309
    2.482804674    2.159331186    3.406768088    3.889848194
    2.489983306    2.157044538    3.402190976    3.884879112
    2.497161937    2.154760746    3.397618676    3.879913120
    2.504340568    2.152479833    3.393051232    3.874950273
    2.511519199    2.150201817    3.388488688    3.869990629
    2.518697830    2.147926720    3.383931089    3.865034242
    2.525876461    2.145654560    3.379378477    3.860081168
    2.533055092    2.143385357    3.374830897    3.855131460
    2.540233723    2.141119130    3.370288391    3.850185173
