# energy grid [eV]     epsr_x  epsr_y  epsr_z
#
    0.200000000   15.846073638   15.715869162   14.245803676
    0.207178631   15.850252985   15.720402040   14.249452541
    0.214357262   15.854584739   15.725103171   14.253233946
    0.221535893   15.859069459   15.729973524   14.257148319
    0.228714524   15.863707732   15.735014118   14.261196107
    0.235893155   15.868500170   15.740226026   14.265377774
    0.243071786   15.873447415   15.745610377   14.269693807
    0.250250417   15.878550134   15.751168356   14.274144712
    0.257429048   15.883809027   15.756901214   14.278731018
    0.264607679   15.889224824   15.762810261   14.283453274
    0.271786311   15.894798286   15.768896880   14.288312055
    0.278964942   15.900530208   15.775162522   14.293307957
    0.286143573   15.906421422   15.781608716   14.298441602
    0.293322204   15.912472792   15.788237071   14.303713639
    0.300500835   15.918685226   15.795049280   14.309124742
    0.307679466   15.925059665   15.802047127   14.314675614
    0.314858097   15.931597098   15.809232490   14.320366986
    0.322036728   15.938298555   15.816607350   14.326199620
    0.329215359   15.945165113   15.824173798   14.332174312
    0.336393990   15.952197896   15.831934039   14.338291890
    0.343572621   15.959398082   15.839890401   14.344553215
    0.350751252   15.966766903   15.848045348   14.350959190
    0.357929883   15.974305648   15.856401482   14.357510752
    0.365108514   15.982015666   15.864961560   14.364208884
    0.372287145   15.989898374   15.873728504   14.371054609
    0.379465776   15.997955256   15.882705412   14.378048999
    0.386644407   16.006187870   15.891895573   14.385193174
    0.393823038   16.014597855   15.901302483   14.392488305
    0.401001669   16.023186932   15.910929861   14.399935622
    0.408180301   16.031956913   15.920781672   14.407536412
    0.415358932   16.040909711   15.930862142   14.415292027
    0.422537563   16.050047340   15.941175788   14.423203886
    0.429716194   16.059371930   15.951727438   14.431273484
    0.436894825   16.068885732   15.962522266   14.439502394
    0.444073456   16.078591134   15.973565824   14.447892275
    0.451252087   16.088490666   15.984864077   14.456444877
    0.458430718   16.098587016   15.996423445   14.465162053
    0.465609349   16.108883048   16.008250853   14.474045764
    0.472787980   16.119381812   16.020353781   14.483098093
    0.479966611   16.130086569   16.032740328   14.492321250
    0.487145242   16.141000806   16.045419278   14.501717592
    0.494323873   16.152128268   16.058400181   14.511289632
    0.501502504   16.163472977   16.071693440   14.521040059
    0.508681135   16.175039270   16.085310419   14.530971753
    0.515859766   16.186831830   16.099263557   14.541087811
    0.523038397   16.198855731   16.113566509   14.551391569
    0.530217028   16.211116487   16.128234306   14.561886630
    0.537395659   16.223620102   16.143283538   14.572576899
    0.544574290   16.236373141   16.158732574   14.583466621
    0.551752922   16.249382803   16.174601817   14.594560424
    0.558931553   16.262657011   16.190914005   14.605863376
    0.566110184   16.276204515   16.207694566   14.617381041
    0.573288815   16.290035024   16.224972046   14.629119559
    0.580467446   16.304159347   16.242778615   14.641085732
    0.587646077   16.318589579   16.261150678   14.653287127
    0.594824708   16.333339316   16.280129620   14.665732207
    0.602003339   16.348423914   16.299762701   14.678430483
    0.609181970   16.363860818   16.320104164   14.691392703
    0.616360601   16.379669954   16.341216601   14.704631085
    0.623539232   16.395874219   16.363172642   14.718159604
    0.630717863   16.412500100   16.386057084   14.731994351
    0.637896494   16.429578450   16.409969568   14.746153985
    0.645075125   16.447145467   16.435028000   14.760660311
    0.652253756   16.465243970   16.461372947   14.775539017
    0.659432387   16.483925036   16.489173346   14.790820632
    0.666611018   16.503250159   16.518634005   14.806541778
    0.673789649   16.523294102   16.550005555   14.822746839
    0.680968280   16.544148736   16.583597824   14.839490185
    0.688146912   16.565928243   16.619798004   14.856839203
    0.695325543   16.588776267   16.659095660   14.874878452
    0.702504174   16.612875868   16.702117509   14.893715446
    0.709682805   16.638463471   16.749676280   14.913488761
    0.716861436   16.665848574   16.802839685   14.934379476
    0.724040067   16.695441378   16.863027254   14.956627220
    0.731218698   16.727790457   16.932142318   14.980552042
    0.738397329   16.763629262   17.012734990   15.006581411
    0.745575960   16.803914596   17.108136745   15.035272570
    0.752754591   16.849776365   17.222282972   15.067283439
    0.759933222   16.902045716   17.358053301   15.103099019
    0.767111853   16.959025898   17.509434789   15.141738665
    0.774290484   17.007429251   17.629663664   15.175500020
    0.781469115   16.993750522   17.530600471   15.173356852
    0.788647746   16.813889630   16.846250635   15.074940890
    0.795826377   16.555255379   15.883748932   14.930952406
    0.803005008   16.461304843   15.498709136   14.882594892
    0.810183639   16.488833257   15.539097770   14.904821750
    0.817362270   16.547852104   15.688389754   14.945456414
    0.824540902   16.608139154   15.840083029   14.986987406
    0.831719533   16.663700118   15.972805838   15.025956189
    0.838898164   16.714534510   16.086385053   15.062373074
    0.846076795   16.761379661   16.184094881   15.096628407
    0.853255426   16.803253500   16.266839530   15.127909433
    0.860434057   16.833822452   16.327739688   15.151681727
    0.867612688   16.845262261   16.357423880   15.162392171
    0.874791319   16.856249595   16.382381252   15.173067043
    0.881969950   16.884195489   16.427102568   15.195860798
    0.889148581   16.920533480   16.480373081   15.224745386
    0.896327212   16.958624020   16.533454475   15.255049902
    0.903505843   16.996804351   16.584281059   15.285594388
    0.910684474   17.035045750   16.632905308   15.316347132
    0.917863105   17.073725696   16.679821730   15.347563409
    0.925041736   17.113334105   16.725555875   15.379578507
    0.932220367   17.154432014   16.770587904   15.412777600
    0.939398998   17.197671163   16.815355735   15.447608537
    0.946577629   17.243803002   16.860272808   15.484588831
    0.953756260   17.293559860   16.905736687   15.524230352
    0.960934891   17.346977558   16.952088626   15.566602624
    0.968113523   17.400471018   16.999376573   15.609440763
    0.975292154   17.436107048   17.046434936   15.641198037
    0.982470785   17.401628305   17.089156489   15.628106452
    0.989649416   17.276725560   17.126359799   15.557131824
    0.996828047   17.202941274   17.171264827   15.520167034
    1.004006678   17.224036806   17.228709796   15.545792067
    1.011185309   17.280826834   17.294729252   15.595932785
    1.018363940   17.344282739   17.368136639   15.652084354
    1.025542571   17.407525749   17.448984096   15.709916564
    1.032721202   17.469633209   17.533392482   15.767866197
    1.039899833   17.529339787   17.598433443   15.819514306
    1.047078464   17.580283025   17.564145326   15.841388380
    1.054257095   17.614865736   17.339008192   15.806538965
    1.061435726   17.652286296   17.127362176   15.777275369
    1.068614357   17.706459011   17.112276231   15.809485198
    1.075792988   17.754717266   17.193518921   15.873482542
    1.082971619   17.772251878   17.294579212   15.946835866
    1.090150250   17.793188052   17.400240838   16.027143352
    1.097328881   17.857283720   17.513393884   16.117534582
    1.104507513   17.947221035   17.632306224   16.216941619
    1.111686144   18.041469124   17.746308240   16.314236221
    1.118864775   18.103664155   17.807031440   16.357914779
    1.126043406   18.040819304   17.675111866   16.200491884
    1.133222037   17.822753739   17.304608681   15.793038843
    1.140400668   17.700603211   17.074335622   15.534412706
    1.147579299   17.745139838   17.090092359   15.535790517
    1.154757930   17.853901459   17.195471697   15.632044312
    1.161936561   17.978442791   17.315594882   15.744058602
    1.169115192   18.107360699   17.432508232   15.852963682
    1.176293823   18.234521249   17.541814078   15.955131648
    1.183472454   18.334764025   17.632317834   16.043134283
    1.190651085   18.341857764   17.673368665   16.094841021
    1.197829716   18.260092397   17.668482837   16.108325862
    1.205008347   18.215904188   17.681107835   16.110420513
    1.212186978   18.131902938   17.677744876   16.043038024
    1.219365609   18.030495153   17.666132836   15.945722381
    1.226544240   18.082531180   17.720585103   15.949945858
    1.233722871   18.230444661   17.812040486   16.020263667
    1.240901503   18.357794087   17.876865421   16.093758976
    1.248080134   18.304383818   17.829962831   16.125164237
    1.255258765   17.931400775   17.679406244   16.105897419
    1.262437396   17.554140514   17.607485939   16.105176771
    1.269616027   17.496779271   17.650125304   16.153584906
    1.276794658   17.611373455   17.735645373   16.223309895
    1.283973289   17.762437955   17.826881039   16.296595393
    1.291151920   17.911200700   17.914891902   16.369288916
    1.298330551   18.052397225   17.999195112   16.441618532
    1.305509182   18.188835700   18.081187870   16.514860965
    1.312687813   18.324471360   18.162459490   16.590374984
    1.319866444   18.461097205   18.244077469   16.668684467
    1.327045075   18.590288877   18.324887857   16.746251438
    1.334223706   18.665816480   18.395385345   16.803807600
    1.341402337   18.564728898   18.426331094   16.785797177
    1.348580968   18.288954498   18.406534524   16.674992311
    1.355759599   18.162239355   18.415204955   16.621018802
    1.362938230   18.206807696   18.469270129   16.662155636
    1.370116861   18.253051912   18.512846668   16.726679810
    1.377295492   18.248954164   18.530613072   16.785379013
    1.384474124   18.291331158   18.577908771   16.857336170
    1.391652755   18.390828669   18.661127765   16.945362373
    1.398831386   18.506856207   18.758597207   17.041287828
    1.406010017   18.623635946   18.861988787   17.143061350
    1.413188648   18.737421275   18.968666884   17.250917307
    1.420367279   18.841530875   19.070316251   17.360973106
    1.427545910   18.911958660   19.137473096   17.454635216
    1.434724541   18.927523399   19.145115239   17.511797213
    1.441903172   18.950565856   19.173225912   17.562181745
    1.449081803   18.996056212   19.251971767   17.540640711
    1.456260434   18.988176142   19.303189325   17.256437465
    1.463439065   18.963959041   19.318731269   16.889366849
    1.470617696   19.017742297   19.274086418   16.772774356
    1.477796327   19.118941200   19.047753744   16.774674681
    1.484974958   19.234861411   18.863890485   16.826999980
    1.492153589   19.351680711   18.899880657   16.936459224
    1.499332220   19.437081779   19.002426012   17.051730625
    1.506510851   19.415810054   19.005117395   17.119544757
    1.513689482   19.287577550   18.875904809   17.126005979
    1.520868114   19.248747042   18.816884184   17.140740204
    1.528046745   19.325190773   18.880335792   17.200959628
    1.535225376   19.441075781   18.996966691   17.291613795
    1.542404007   19.564418644   19.121899402   17.389984900
    1.549582638   19.688761523   19.242046252   17.487885564
    1.556761269   19.814616888   19.356151903   17.584505862
    1.563939900   19.943102734   19.465453542   17.680473166
    1.571118531   20.070964013   19.570235652   17.774366289
    1.578297162   20.179021030   19.666241495   17.856502920
    1.585475793   20.231482982   19.744531214   17.907804888
    1.592654424   20.270417239   19.817760951   17.944367391
    1.599833055   20.373323533   19.909797214   17.988125259
    1.607011686   20.498261459   20.013956436   17.993231213
    1.614190317   20.605078289   20.119960937   17.987081677
    1.621368948   20.611593886   20.211956165   18.033794878
    1.628547579   20.326607894   20.254587649   18.092400892
    1.635726210   19.951126670   20.258478763   18.141682463
    1.642904841   19.873033252   20.302073176   18.211721002
    1.650083472   20.009953154   20.408178533   18.310954715
    1.657262104   20.214953125   20.547232771   18.425461556
    1.664440735   20.433487400   20.696164995   18.546020694
    1.671619366   20.648796405   20.828448887   18.664980983
    1.678797997   20.829279169   20.871056647   18.760725201
    1.685976628   20.865053856   20.739899321   18.805725967
    1.693155259   20.583603239   20.530503387   18.815485407
    1.700333890   20.209964204   20.409889275   18.791025721
    1.707512521   20.125221534   20.453316639   18.716371960
    1.714691152   20.226209129   20.576961161   18.683182517
    1.721869783   20.355871512   20.704091601   18.694005730
    1.729048414   20.463939434   20.813308616   18.689717645
    1.736227045   20.595954209   20.936585458   18.748416568
    1.743405676   20.753551060   21.075775527   18.865487643
    1.750584307   20.911381597   21.206529691   18.967398486
    1.757762938   21.058578107   21.313171120   19.008695070
    1.764941569   21.205804258   21.427435227   19.059115942
    1.772120200   21.362168286   21.572900229   19.171690331
    1.779298831   21.521517845   21.729543221   19.304195961
    1.786477462   21.671993646   21.864815294   19.410317199
    1.793656093   21.802909135   21.934315930   19.476999022
    1.800834725   21.911756150   21.914295141   19.521534657
    1.808013356   22.028348679   21.924031445   19.558305816
    1.815191987   22.195016498   22.043906148   19.630343183
    1.822370618   22.385448607   22.169318756   19.676777370
    1.829549249   22.563292396   22.177048806   19.668200459
    1.836727880   22.718944665   22.128131907   19.723972234
    1.843906511   22.746929434   22.175303718   19.843802810
    1.851085142   22.445513666   22.249885659   19.948452807
    1.858263773   22.072835590   22.339834369   20.026776465
    1.865442404   22.016284449   22.496172520   20.105474535
    1.872621035   22.147882361   22.662091630   20.187425066
    1.879799666   22.305046116   22.774878992   20.272979893
    1.886978297   22.377318999   22.839012779   20.343551384
    1.894156928   22.287587144   22.922885312   20.425961814
    1.901335559   22.171404078   23.040004726   20.518179229
    1.908514190   22.214349616   23.151998044   20.619563385
    1.915692821   22.351844723   23.219356574   20.753119368
    1.922871452   22.484302720   23.216800248   20.918099650
    1.930050083   22.650114250   23.292583146   21.123951697
    1.937228715   22.884936252   23.521825235   21.357307428
    1.944407346   23.151809276   23.772548375   21.552261143
    1.951585977   23.419611331   23.801425844   21.533360187
    1.958764608   23.672826028   23.405235785   21.136302834
    1.965943239   23.934420785   23.028492612   20.778507465
    1.973121870   24.233480862   23.062957022   20.803726439
    1.980300501   24.524626777   23.281907786   21.022567871
    1.987479132   24.701241660   23.457153000   21.255891314
    1.994657763   24.712012863   23.620365834   21.453485169
    2.001836394   24.456646193   23.797142673   21.557622682
    2.009015025   23.858723902   23.878456473   21.526249571
    2.016193656   23.420280542   23.880334042   21.468385537
    2.023372287   23.370704641   23.875887554   21.429087899
    2.030550918   23.558455102   23.896460185   21.471989084
    2.037729549   23.802987186   23.998689350   21.608364340
    2.044908180   23.919037132   24.205798235   21.764505390
    2.052086811   23.992843095   24.440554889   21.869076154
    2.059265442   24.233150853   24.716535728   21.980933759
    2.066444073   24.540028180   25.021441160   22.129200836
    2.073622705   24.827379253   25.314135479   22.320545396
    2.080801336   25.111022907   25.547741970   22.520236070
    2.087979967   25.387416918   25.645360586   22.658368604
    2.095158598   25.628241471   25.521393056   22.705288520
    2.102337229   25.942479447   25.426421663   22.779410014
    2.109515860   26.333209034   25.543353113   22.970411112
    2.116694491   26.446190034   25.582443752   23.104087275
    2.123873122   26.002198981   25.455200228   23.082217165
    2.131051753   25.582055158   25.450974869   23.144318900
    2.138230384   25.218504717   25.681631860   23.398463081
    2.145409015   24.333313070   25.977621074   23.708904244
    2.152587646   23.752677000   26.271966131   23.961716853
    2.159766277   23.722746901   26.528674138   24.025376459
    2.166944908   23.761778035   26.763945692   23.923399360
    2.174123539   23.995803003   26.982026638   23.848585730
    2.181302170   24.305751753   27.104721314   23.807885537
    2.188480801   24.420657161   27.175436315   23.772765999
    2.195659432   24.459241302   27.325521621   23.877613742
    2.202838063   24.688427226   27.572425806   24.141901269
    2.210016694   25.003862465   27.594586063   24.339815227
    2.217195326   25.251234969   27.305311691   24.370975076
    2.224373957   25.467936049   27.242574865   24.461431087
    2.231552588   25.666183825   27.499213800   24.672415707
    2.238731219   25.929893838   27.924564076   24.951819252
    2.245909850   26.271737747   28.425103963   25.290985087
    2.253088481   26.553545443   28.853958581   25.571392735
    2.260267112   26.709819858   28.963885358   25.667957946
    2.267445743   26.795237065   28.693458496   25.543014018
    2.274624374   26.911072227   28.500687699   25.377699586
    2.281803005   27.135169648   28.596485112   25.349865959
    2.288981636   27.474101882   28.920337362   25.491509459
    2.296160267   27.845780408   29.361521209   25.780171622
    2.303338898   28.190849739   29.777246424   26.160657567
    2.310517529   28.412870015   30.030405095   26.524726479
    2.317696160   28.391881025   30.176235940   26.782315396
    2.324874791   28.314881749   30.256452766   26.792110533
    2.332053422   28.498010475   30.299651807   26.591221339
    2.339232053   28.800567691   30.360469599   26.490670506
    2.346410684   29.136960347   30.413389250   26.486247024
    2.353589316   29.516136245   30.405535142   26.498996194
    2.360767947   29.915239940   30.588845193   26.684453373
    2.367946578   30.371276879   31.007553507   27.059051202
    2.375125209   30.840061000   31.384990126   27.388063032
    2.382303840   31.129811686   31.391594348   27.494295372
    2.389482471   31.091777098   30.860256448   27.306494667
    2.396661102   30.936562076   30.371470262   27.195579301
    2.403839733   30.625364417   30.024141964   26.862151234
    2.411018364   30.242136886   29.946697268   26.211584861
    2.418196995   29.899288403   30.244171353   26.068406548
    2.425375626   29.305416031   30.596747094   26.313609990
    2.432554257   28.937662231   30.959077310   26.647060176
    2.439732888   29.126725344   31.517116579   27.160647103
    2.446911519   29.481075371   32.147972683   27.771238726
    2.454090150   29.805916948   32.773911732   28.382343102
    2.461268781   30.231255490   33.457460388   28.996366217
    2.468447412   30.775184915   34.147795828   29.552894228
    2.475626043   31.260480706   34.660639533   29.973797766
    2.482804674   31.704765489   35.032494077   30.374502897
    2.489983306   32.198096079   35.506381774   30.866109899
    2.497161937   32.639845843   35.952803388   31.327450462
    2.504340568   33.057047132   36.264024143   31.419655808
    2.511519199   33.452546870   36.292598501   30.723710177
    2.518697830   33.756081947   36.295437088   29.900659279
    2.525876461   33.986631974   36.657069063   29.781669924
    2.533055092   34.057932924   37.130284548   30.201418186
    2.540233723   34.028373213   37.588933478   30.956622720
