# energy grid [eV]     epsr_x  epsr_y  epsr_z
#
    0.200000000   17.617304464   14.862581147   17.379487148
    0.207178631   17.621546069   14.865920158   17.383552866
    0.214357262   17.625939660   14.869378711   17.387764179
    0.221535893   17.630485490   14.872956997   17.392121321
    0.228714524   17.635183823   14.876655212   17.396624535
    0.235893155   17.640034932   14.880473558   17.401274072
    0.243071786   17.645039098   14.884412246   17.406070192
    0.250250417   17.650196612   14.888471492   17.411013163
    0.257429048   17.655507774   14.892651521   17.416103261
    0.264607679   17.660972894   14.896952561   17.421340771
    0.271786311   17.666592290   14.901374852   17.426725987
    0.278964942   17.672366290   14.905918636   17.432259211
    0.286143573   17.678295231   14.910584166   17.437940753
    0.293322204   17.684379461   14.915371700   17.443770935
    0.300500835   17.690619336   14.920281503   17.449750083
    0.307679466   17.697015222   14.925313848   17.455878534
    0.314858097   17.703567495   14.930469014   17.462156635
    0.322036728   17.710276539   14.935747289   17.468584741
    0.329215359   17.717142751   14.941148966   17.475163215
    0.336393990   17.724166535   14.946674346   17.481892429
    0.343572621   17.731348305   14.952323739   17.488772767
    0.350751252   17.738688488   14.958097461   17.495804618
    0.357929883   17.746187517   14.963995835   17.502988383
    0.365108514   17.753845837   14.970019192   17.510324472
    0.372287145   17.761663904   14.976167871   17.517813302
    0.379465776   17.769642183   14.982442217   17.525455301
    0.386644407   17.777781149   14.988842584   17.533250908
    0.393823038   17.786081288   14.995369334   17.541200570
    0.401001669   17.794543097   15.002022836   17.549304741
    0.408180301   17.803167083   15.008803466   17.557563890
    0.415358932   17.811953763   15.015711609   17.565978491
    0.422537563   17.820903665   15.022747658   17.574549030
    0.429716194   17.830017330   15.029912013   17.583276002
    0.436894825   17.839295305   15.037205083   17.592159914
    0.444073456   17.848738153   15.044627284   17.601201280
    0.451252087   17.858346446   15.052179042   17.610400625
    0.458430718   17.868120766   15.059860789   17.619758485
    0.465609349   17.878061708   15.067672966   17.629275407
    0.472787980   17.888169878   15.075616024   17.638951946
    0.479966611   17.898445892   15.083690420   17.648788669
    0.487145242   17.908890380   15.091896621   17.658786152
    0.494323873   17.919503982   15.100235102   17.668944985
    0.501502504   17.930287350   15.108706347   17.679265764
    0.508681135   17.941241148   15.117310848   17.689749100
    0.515859766   17.952366051   15.126049106   17.700395612
    0.523038397   17.963662749   15.134921632   17.711205931
    0.530217028   17.975131940   15.143928945   17.722180700
    0.537395659   17.986774339   15.153071573   17.733320572
    0.544574290   17.998590669   15.162350053   17.744626212
    0.551752922   18.010581668   15.171764932   17.756098295
    0.558931553   18.022748088   15.181316766   17.767737509
    0.566110184   18.035090690   15.191006119   17.779544553
    0.573288815   18.047610250   15.200833567   17.791520139
    0.580467446   18.060307559   15.210799693   17.803664988
    0.587646077   18.073183419   15.220905092   17.815979837
    0.594824708   18.086238644   15.231150367   17.828465431
    0.602003339   18.099474065   15.241536133   17.841122530
    0.609181970   18.112890524   15.252063011   17.853951905
    0.616360601   18.126488879   15.262731637   17.866954342
    0.623539232   18.140269999   15.273542654   17.880130635
    0.630717863   18.154234770   15.284496716   17.893481596
    0.637896494   18.168384091   15.295594487   17.907008046
    0.645075125   18.182718874   15.306836643   17.920710823
    0.652253756   18.197240050   15.318223869   17.934590774
    0.659432387   18.211948559   15.329756861   17.948648760
    0.666611018   18.226845360   15.341436328   17.962885649
    0.673789649   18.241931426   15.353262986   17.977302292
    0.680968280   18.257207745   15.365237566   17.991899507
    0.688146912   18.272675321   15.377360808   18.006678229
    0.695325543   18.288335173   15.389633464   18.021639609
    0.702504174   18.304188336   15.402056297   18.036784596
    0.709682805   18.320235861   15.414630083   18.052114066
    0.716861436   18.336478816   15.427355609   18.067628959
    0.724040067   18.352918284   15.440233672   18.083330254
    0.731218698   18.369555366   15.453265085   18.099218955
    0.738397329   18.386391179   15.466450669   18.115296081
    0.745575960   18.403426858   15.479791261   18.131562665
    0.752754591   18.420663554   15.493287708   18.148019758
    0.759933222   18.438102437   15.506940870   18.164668424
    0.767111853   18.455744692   15.520751622   18.181509744
    0.774290484   18.473591525   15.534720848   18.198544815
    0.781469115   18.491644159   15.548849449   18.215774750
    0.788647746   18.509903835   15.563138337   18.233200678
    0.795826377   18.528371813   15.577588439   18.250823745
    0.803005008   18.547049372   15.592200693   18.268645115
    0.810183639   18.565937810   15.606976054   18.286665967
    0.817362270   18.585038445   15.621915489   18.304887499
    0.824540902   18.604352614   15.637019979   18.323310920
    0.831719533   18.623881674   15.652290522   18.341937442
    0.838898164   18.643627002   15.667728126   18.360768262
    0.846076795   18.663589998   15.683333819   18.379804632
    0.853255426   18.683772078   15.699108639   18.399047985
    0.860434057   18.704174683   15.715053643   18.418499665
    0.867612688   18.724799272   15.731169901   18.438160933
    0.874791319   18.745647320   15.747458498   18.458033105
    0.881969950   18.766720327   15.763920538   18.478117538
    0.889148581   18.788019839   15.780557137   18.498415612
    0.896327212   18.809547416   15.797369433   18.518928732
    0.903505843   18.831304622   15.814358574   18.539658321
    0.910684474   18.853293048   15.831525727   18.560605822
    0.917863105   18.875514313   15.848872078   18.581772702
    0.925041736   18.897970060   15.866398827   18.603160445
    0.932220367   18.920661958   15.884107194   18.624770560
    0.939398998   18.943591700   15.901998414   18.646604574
    0.946577629   18.966761003   15.920073742   18.668664039
    0.953756260   18.990171612   15.938334451   18.690950529
    0.960934891   19.013825296   15.956781832   18.713465640
    0.968113523   19.037723850   15.975417195   18.736210991
    0.975292154   19.061869096   15.994241867   18.759188224
    0.982470785   19.086262879   16.013257191   18.782399006
    0.989649416   19.110907057   16.032464517   18.805845027
    0.996828047   19.135803513   16.051865211   18.829528002
    1.004006678   19.160954211   16.071460708   18.853449669
    1.011185309   19.186361164   16.091252490   18.877611792
    1.018363940   19.212026356   16.111241997   18.902016148
    1.025542571   19.237951786   16.131430676   18.926664544
    1.032721202   19.264139495   16.151820005   18.951558855
    1.039899833   19.290591561   16.172411491   18.976700967
    1.047078464   19.317310099   16.193206675   19.002092764
    1.054257095   19.344297255   16.214207122   19.027736160
    1.061435726   19.371555206   16.235414410   19.053633106
    1.068614357   19.399086160   16.256830137   19.079785581
    1.075792988   19.426892361   16.278455930   19.106195596
    1.082971619   19.454976085   16.300293438   19.132865190
    1.090150250   19.483339644   16.322344336   19.159796434
    1.097328881   19.511985384   16.344610323   19.186991428
    1.104507513   19.540915686   16.367093124   19.214452301
    1.111686144   19.570132969   16.389794488   19.242181215
    1.118864775   19.599639688   16.412716190   19.270180362
    1.126043406   19.629438335   16.435860032   19.298451969
    1.133222037   19.659531440   16.459227843   19.326998290
    1.140400668   19.689921572   16.482821479   19.355821614
    1.147579299   19.720611340   16.506642822   19.384924274
    1.154757930   19.751603393   16.530693784   19.414308640
    1.161936561   19.782900420   16.554976305   19.443977105
    1.169115192   19.814505153   16.579492353   19.473932098
    1.176293823   19.846420364   16.604243928   19.504176082
    1.183472454   19.878648869   16.629233059   19.534711554
    1.190651085   19.911193523   16.654461803   19.565541039
    1.197829716   19.944057233   16.679932252   19.596667121
    1.205008347   19.977242955   16.705646528   19.628092461
    1.212186978   20.010753679   16.731606785   19.659819731
    1.219365609   20.044592429   16.757815211   19.691851612
    1.226544240   20.078762312   16.784274025   19.724190834
    1.233722871   20.113266503   16.810985481   19.756840178
    1.240901503   20.148108183   16.837951870   19.789802467
    1.248080134   20.183290580   16.865175515   19.823080570
    1.255258765   20.218816983   16.892658775   19.856677398
    1.262437396   20.254690735   16.920404043   19.890595909
    1.269616027   20.290915237   16.948413744   19.924839105
    1.276794658   20.327493941   16.976690357   19.959410033
    1.283973289   20.364430358   17.005236408   19.994311790
    1.291151920   20.401728053   17.034054444   20.029547516
    1.298330551   20.439390651   17.063147048   20.065120398
    1.305509182   20.477421834   17.092516848   20.101033684
    1.312687813   20.515825345   17.122166514   20.137290679
    1.319866444   20.554604989   17.152098759   20.173894728
    1.327045075   20.593764634   17.182316342   20.210849223
    1.334223706   20.633308209   17.212822062   20.248157615
    1.341402337   20.673239710   17.243618765   20.285823408
    1.348580968   20.713563201   17.274709343   20.323850165
    1.355759599   20.754282810   17.306096731   20.362241505
    1.362938230   20.795402737   17.337783917   20.401001105
    1.370116861   20.836927252   17.369773932   20.440132701
    1.377295492   20.878860695   17.402069860   20.479640088
    1.384474124   20.921207483   17.434674833   20.519527125
    1.391652755   20.963972104   17.467592035   20.559797731
    1.398831386   21.007159125   17.500824702   20.600455890
    1.406010017   21.050773190   17.534376125   20.641505651
    1.413188648   21.094819024   17.568249647   20.682951128
    1.420367279   21.139301433   17.602448668   20.724796504
    1.427545910   21.184225304   17.636976644   20.767046032
    1.434724541   21.229595613   17.671837090   20.809704034
    1.441903172   21.275417419   17.707033578   20.852774902
    1.449081803   21.321695871   17.742569741   20.896263104
    1.456260434   21.368436209   17.778449275   20.940173181
    1.463439065   21.415643765   17.814675938   20.984509753
    1.470617696   21.463323966   17.851253550   21.029277518
    1.477796327   21.511482336   17.888186000   21.074481249
    1.484974958   21.560124496   17.925477241   21.120125803
    1.492153589   21.609256169   17.963131297   21.166216121
    1.499332220   21.658883182   18.001152259   21.212757230
    1.506510851   21.709011468   18.039544291   21.259754237
    1.513689482   21.759647064   18.078311630   21.307212342
    1.520868114   21.810796123   18.117458584   21.355136834
    1.528046745   21.862464905   18.156989525   21.403533094
    1.535225376   21.914659786   18.196908877   21.452406597
    1.542404007   21.967387260   18.237221152   21.501762915
    1.549582638   22.020653955   18.277931085   21.551607720
    1.556761269   22.074466616   18.319043444   21.601946781
    1.563939900   22.128832109   18.360562972   21.652785970
    1.571118531   22.183757428   18.402494519   21.704131264
    1.578297162   22.239249705   18.444843046   21.755988749
    1.585475793   22.295316205   18.487613611   21.808364618
    1.592654424   22.351964334   18.530811367   21.861265179
    1.599833055   22.409201643   18.574441562   21.914696852
    1.607011686   22.467035824   18.618509541   21.968666176
    1.614190317   22.525474724   18.663020748   22.023179809
    1.621368948   22.584526340   18.707980732   22.078244532
    1.628547579   22.644198827   18.753395143   22.133867252
    1.635726210   22.704500502   18.799269739   22.190055005
    1.642904841   22.765439847   18.845610388   22.246814956
    1.650083472   22.827025514   18.892423070   22.304154409
    1.657262104   22.889266328   18.939713879   22.362080802
    1.664440735   22.952171295   18.987489030   22.420601717
    1.671619366   23.015749602   19.035754855   22.479724880
    1.678797997   23.080010627   19.084517812   22.539458165
    1.685976628   23.144963941   19.133784485   22.599809601
    1.693155259   23.210619314   19.183561589   22.660787371
    1.700333890   23.276986716   19.233855972   22.722399817
    1.707512521   23.344076304   19.284674614   22.784655434
    1.714691152   23.411898350   19.336024615   22.847562843
    1.721869783   23.480463007   19.387913154   22.911130691
    1.729048414   23.549780235   19.440347473   22.975367611
    1.736227045   23.619861687   19.493335258   23.040283002
    1.743405676   23.690720646   19.546884634   23.105886939
    1.750584307   23.762368448   19.601003444   23.172188831
    1.757762938   23.834816241   19.655699577   23.239198505
    1.764941569   23.908075857   19.710981187   23.306926054
    1.772120200   23.982159461   19.766856638   23.375381438
    1.779298831   24.057079526   19.823334468   23.444574892
    1.786477462   24.132848849   19.880423403   23.514516947
    1.793656093   24.209480722   19.938132418   23.585218314
    1.800834725   24.286988676   19.996470664   23.656689801
    1.808013356   24.365386403   20.055447438   23.728942693
    1.815191987   24.444688026   20.115072266   23.801989089
    1.822370618   24.524907937   20.175354861   23.875840816
    1.829549249   24.606060822   20.236305149   23.950509635
    1.836727880   24.688161752   20.297933331   24.026007732
    1.843906511   24.771226163   20.360249846   24.102347649
    1.851085142   24.855269840   20.423265331   24.179542187
    1.858263773   24.940308883   20.486990636   24.257604404
    1.865442404   25.026359597   20.551436836   24.336547573
    1.872621035   25.113438330   20.616615156   24.416385054
    1.879799666   25.201561795   20.682536711   24.497130400
    1.886978297   25.290748013   20.749212253   24.578797898
    1.894156928   25.381016118   20.816654234   24.661402662
    1.901335559   25.472385575   20.884878028   24.744960299
    1.908514190   25.564875475   20.953896673   24.829486100
    1.915692821   25.658505603   21.023722127   24.914995745
    1.922871452   25.753296261   21.094367301   25.001505330
    1.930050083   25.849267450   21.165845724   25.089030886
    1.937228715   25.946439865   21.238171397   25.177588950
    1.944407346   26.044835067   21.311358718   25.267196638
    1.951585977   26.144475278   21.385422431   25.357871501
    1.958764608   26.245383325   21.460377648   25.449631524
    1.965943239   26.347582637   21.536239862   25.542495133
    1.973121870   26.451097265   21.613024956   25.636481202
    1.980300501   26.555951896   21.690749222   25.731609065
    1.987479132   26.662171874   21.769429365   25.827898537
    1.994657763   26.769783202   21.849082528   25.925369922
    2.001836394   26.878812568   21.929726294   26.024044025
    2.009015025   26.989287297   22.011378705   26.123942161
    2.016193656   27.101235446   22.094058277   26.225086167
    2.023372287   27.214686333   22.177784057   26.327498491
    2.030550918   27.329670042   22.262575600   26.431202222
    2.037729549   27.446217583   22.348452920   26.536221010
    2.044908180   27.564360288   22.435436351   26.642578964
    2.052086811   27.684130284   22.523546541   26.750300655
    2.059265442   27.805560866   22.612805022   26.859411433
    2.066444073   27.928686709   22.703234764   26.969937682
    2.073622705   28.053543700   22.794859144   27.081906470
    2.080801336   28.180168432   22.887701963   27.195345554
    2.087979967   28.308598484   22.981787572   27.310283428
    2.095158598   28.438872686   23.077141445   27.426749511
    2.102337229   28.571031152   23.173789955   27.544774095
    2.109515860   28.705115038   23.271759394   27.664387876
    2.116694491   28.841166699   23.371076532   27.785622241
    2.123873122   28.979229879   23.471769338   27.908509607
    2.131051753   29.119349677   23.573866805   28.033083302
    2.138230384   29.261572854   23.677398893   28.159377834
    2.145409015   29.405947964   23.782396538   28.287428972
    2.152587646   29.552525136   23.888891648   28.417273469
    2.159766277   29.701355819   23.996917067   28.548948726
    2.166944908   29.852493142   24.106506581   28.682493586
    2.174123539   30.005992210   24.217694959   28.817948274
    2.181302170   30.161909978   24.330517998   28.955353051
    2.188480801   30.320305259   24.445012756   29.094749091
    2.195659432   30.481239209   24.561219119   29.236183098
    2.202838063   30.644775095   24.679177768   29.379702268
    2.210016694   30.810978210   24.798929314   29.525351811
    2.217195326   30.979916250   24.920516008   29.673178898
    2.224373957   31.151659430   25.043981884   29.823232971
    2.231552588   31.326280579   25.169372626   29.975565323
    2.238731219   31.503855248   25.296735562   30.130229003
    2.245909850   31.684461818   25.426119732   30.287278832
    2.253088481   31.868181627   25.557575987   30.446771475
    2.260267112   32.055099102   25.691156992   30.608765524
    2.267445743   32.245302095   25.826917410   30.773321593
    2.274624374   32.438882074   25.964914038   30.940502413
    2.281803005   32.635933975   26.105205763   31.110372919
    2.288981636   32.836556508   26.247853723   31.283000351
    2.296160267   33.040852459   26.392921462   31.458454369
    2.303338898   33.248928834   26.540475015   31.636807150
    2.310517529   33.460897027   26.690582951   31.818133466
    2.317696160   33.676872824   26.843316235   32.002510669
    2.324874791   33.896976727   26.998748464   32.190018823
    2.332053422   34.121335784   27.156957847   32.380741599
    2.339232053   34.350082878   27.318026179   32.574765675
    2.346410684   34.583356472   27.482038186   32.772181502
    2.353589316   34.821301351   27.649082230   32.973084410
    2.360767947   35.064067879   27.819249571   33.177571606
    2.367946578   35.311813352   27.992635493   33.385743700
    2.375125209   35.564702961   28.169339818   33.597706184
    2.382303840   35.822909583   28.349466829   33.813568626
    2.389482471   36.086615009   28.533126858   34.033446205
    2.396661102   36.356010429   28.720436203   34.257459882
    2.403839733   36.631295738   28.911515007   34.485733898
    2.411018364   36.912680824   29.106489022   34.718397705
    2.418196995   37.200386545   29.305490622   34.955586982
    2.425375626   37.494645354   29.508659003   35.197443706
    2.432554257   37.795702069   29.716140545   35.444116431
    2.439732888   38.103814664   29.928089243   35.695760601
    2.446911519   38.419255191   30.144667205   35.952538930
    2.454090150   38.742310860   30.366045242   36.214622001
    2.461268781   39.073285091   30.592403489   36.482188699
    2.468447412   39.412498736   30.823932008   36.755426749
    2.475626043   39.760291332   31.060831554   37.034533099
    2.482804674   40.117022591   31.303314894   37.319714719
    2.489983306   40.483073997   31.551607471   37.611189377
    2.497161937   40.858850445   31.805947648   37.909186245
    2.504340568   41.244782145   32.066588261   38.213946753
    2.511519199   41.641326624   32.333797980   38.525725487
    2.518697830   42.048970990   32.607862537   38.844791116
    2.525876461   42.468235107   32.889086135   39.171427443
    2.533055092   42.899674312   33.177792966   39.505934339
    2.540233723   43.343881044   33.474328819   39.848628606
