# energy grid [eV]     ieps_x  ieps_y  ieps_z
#
    0.200000000    7.067363928    1.759987645    7.224032727
    0.207178631    7.066074139    1.759819764    7.222574070
    0.214357262    7.064739472    1.759646043    7.221064768
    0.221535893    7.063359989    1.759466492    7.219504902
    0.228714524    7.061935754    1.759281118    7.217894556
    0.235893155    7.060466834    1.759089931    7.216233817
    0.243071786    7.058953295    1.758892939    7.214522772
    0.250250417    7.057395209    1.758690152    7.212761515
    0.257429048    7.055792647    1.758481579    7.210950139
    0.264607679    7.054145683    1.758267231    7.209088741
    0.271786311    7.052454393    1.758047118    7.207177421
    0.278964942    7.050718856    1.757821249    7.205216280
    0.286143573    7.048939151    1.757589636    7.203205423
    0.293322204    7.047115360    1.757352290    7.201144956
    0.300500835    7.045247567    1.757109222    7.199034990
    0.307679466    7.043335858    1.756860444    7.196875636
    0.314858097    7.041380321    1.756605966    7.194667008
    0.322036728    7.039381045    1.756345801    7.192409224
    0.329215359    7.037338121    1.756079962    7.190102403
    0.336393990    7.035251644    1.755808460    7.187746667
    0.343572621    7.033121708    1.755531310    7.185342139
    0.350751252    7.030948411    1.755248522    7.182888946
    0.357929883    7.028731852    1.754960112    7.180387218
    0.365108514    7.026472131    1.754666091    7.177837084
    0.372287145    7.024169352    1.754366475    7.175238680
    0.379465776    7.021823619    1.754061277    7.172592141
    0.386644407    7.019435038    1.753750511    7.169897605
    0.393823038    7.017003718    1.753434191    7.167155212
    0.401001669    7.014529768    1.753112333    7.164365106
    0.408180301    7.012013301    1.752784952    7.161527431
    0.415358932    7.009454429    1.752452062    7.158642334
    0.422537563    7.006853269    1.752113678    7.155709965
    0.429716194    7.004209936    1.751769818    7.152730476
    0.436894825    7.001524550    1.751420495    7.149704019
    0.444073456    6.998797232    1.751065727    7.146630752
    0.451252087    6.996028102    1.750705530    7.143510831
    0.458430718    6.993217286    1.750339921    7.140344417
    0.465609349    6.990364908    1.749968915    7.137131672
    0.472787980    6.987471097    1.749592531    7.133872761
    0.479966611    6.984535979    1.749210785    7.130567848
    0.487145242    6.981559687    1.748823695    7.127217104
    0.494323873    6.978542351    1.748431278    7.123820697
    0.501502504    6.975484106    1.748033552    7.120378800
    0.508681135    6.972385086    1.747630536    7.116891587
    0.515859766    6.969245429    1.747222247    7.113359234
    0.523038397    6.966065273    1.746808704    7.109781918
    0.530217028    6.962844757    1.746389926    7.106159821
    0.537395659    6.959584023    1.745965932    7.102493122
    0.544574290    6.956283214    1.745536740    7.098782006
    0.551752922    6.952942474    1.745102370    7.095026658
    0.558931553    6.949561949    1.744662842    7.091227265
    0.566110184    6.946141786    1.744218175    7.087384015
    0.573288815    6.942682134    1.743768389    7.083497099
    0.580467446    6.939183143    1.743313504    7.079566709
    0.587646077    6.935644964    1.742853540    7.075593039
    0.594824708    6.932067751    1.742388518    7.071576284
    0.602003339    6.928451658    1.741918459    7.067516642
    0.609181970    6.924796841    1.741443382    7.063414312
    0.616360601    6.921103456    1.740963310    7.059269492
    0.623539232    6.917371662    1.740478262    7.055082387
    0.630717863    6.913601618    1.739988262    7.050853197
    0.637896494    6.909793486    1.739493329    7.046582130
    0.645075125    6.905947427    1.738993486    7.042269390
    0.652253756    6.902063606    1.738488755    7.037915186
    0.659432387    6.898142187    1.737979157    7.033519727
    0.666611018    6.894183336    1.737464715    7.029083224
    0.673789649    6.890187219    1.736945451    7.024605888
    0.680968280    6.886154006    1.736421387    7.020087934
    0.688146912    6.882083866    1.735892546    7.015529575
    0.695325543    6.877976969    1.735358951    7.010931027
    0.702504174    6.873833488    1.734820625    7.006292509
    0.709682805    6.869653595    1.734277591    7.001614237
    0.716861436    6.865437464    1.733729872    6.996896433
    0.724040067    6.861185270    1.733177492    6.992139317
    0.731218698    6.856897191    1.732620473    6.987343111
    0.738397329    6.852573402    1.732058840    6.982508039
    0.745575960    6.848214082    1.731492616    6.977634324
    0.752754591    6.843819410    1.730921826    6.972722193
    0.759933222    6.839389567    1.730346493    6.967771871
    0.767111853    6.834924734    1.729766642    6.962783587
    0.774290484    6.830425093    1.729182296    6.957757568
    0.781469115    6.825890827    1.728593481    6.952694045
    0.788647746    6.821322121    1.728000221    6.947593248
    0.795826377    6.816719159    1.727402540    6.942455409
    0.803005008    6.812082127    1.726800463    6.937280760
    0.810183639    6.807411212    1.726194016    6.932069534
    0.817362270    6.802706601    1.725583222    6.926821966
    0.824540902    6.797968483    1.724968108    6.921538291
    0.831719533    6.793197048    1.724348699    6.916218743
    0.838898164    6.788392485    1.723725020    6.910863561
    0.846076795    6.783554985    1.723097095    6.905472982
    0.853255426    6.778684740    1.722464952    6.900047242
    0.860434057    6.773781942    1.721828615    6.894586583
    0.867612688    6.768846784    1.721188111    6.889091242
    0.874791319    6.763879460    1.720543464    6.883561461
    0.881969950    6.758880164    1.719894702    6.877997480
    0.889148581    6.753849092    1.719241849    6.872399540
    0.896327212    6.748786439    1.718584933    6.866767884
    0.903505843    6.743692402    1.717923979    6.861102754
    0.910684474    6.738567178    1.717259013    6.855404394
    0.917863105    6.733410965    1.716590062    6.849673047
    0.925041736    6.728223960    1.715917152    6.843908958
    0.932220367    6.723006363    1.715240310    6.838112371
    0.939398998    6.717758373    1.714559563    6.832283531
    0.946577629    6.712480190    1.713874936    6.826422684
    0.953756260    6.707172015    1.713186457    6.820530076
    0.960934891    6.701834048    1.712494152    6.814605953
    0.968113523    6.696466491    1.711798048    6.808650562
    0.975292154    6.691069545    1.711098172    6.802664150
    0.982470785    6.685643414    1.710394551    6.796646965
    0.989649416    6.680188299    1.709687212    6.790599253
    0.996828047    6.674704404    1.708976183    6.784521263
    1.004006678    6.669191933    1.708261489    6.778413244
    1.011185309    6.663651090    1.707543158    6.772275442
    1.018363940    6.658082078    1.706821218    6.766108108
    1.025542571    6.652485103    1.706095695    6.759911490
    1.032721202    6.646860369    1.705366617    6.753685836
    1.039899833    6.641208082    1.704634012    6.747431396
    1.047078464    6.635528448    1.703897905    6.741148419
    1.054257095    6.629821672    1.703158326    6.734837154
    1.061435726    6.624087960    1.702415301    6.728497850
    1.068614357    6.618327520    1.701668858    6.722130757
    1.075792988    6.612540557    1.700919024    6.715736125
    1.082971619    6.606727278    1.700165827    6.709314201
    1.090150250    6.600887891    1.699409294    6.702865237
    1.097328881    6.595022602    1.698649453    6.696389482
    1.104507513    6.589131619    1.697886331    6.689887183
    1.111686144    6.583215150    1.697119956    6.683358592
    1.118864775    6.577273403    1.696350355    6.676803957
    1.126043406    6.571306584    1.695577557    6.670223526
    1.133222037    6.565314902    1.694801588    6.663617550
    1.140400668    6.559298566    1.694022477    6.656986276
    1.147579299    6.553257782    1.693240250    6.650329953
    1.154757930    6.547192760    1.692454936    6.643648829
    1.161936561    6.541103707    1.691666563    6.636943154
    1.169115192    6.534990831    1.690875157    6.630213174
    1.176293823    6.528854341    1.690080747    6.623459137
    1.183472454    6.522694446    1.689283360    6.616681291
    1.190651085    6.516511352    1.688483023    6.609879883
    1.197829716    6.510305269    1.687679765    6.603055159
    1.205008347    6.504076405    1.686873613    6.596207367
    1.212186978    6.497824967    1.686064595    6.589336752
    1.219365609    6.491551163    1.685252738    6.582443561
    1.226544240    6.485255202    1.684438069    6.575528038
    1.233722871    6.478937291    1.683620617    6.568590429
    1.240901503    6.472597639    1.682800409    6.561630979
    1.248080134    6.466236451    1.681977472    6.554649931
    1.255258765    6.459853937    1.681151833    6.547647531
    1.262437396    6.453450303    1.680323521    6.540624020
    1.269616027    6.447025756    1.679492563    6.533579642
    1.276794658    6.440580503    1.678658986    6.526514640
    1.283973289    6.434114752    1.677822818    6.519429256
    1.291151920    6.427628707    1.676984085    6.512323730
    1.298330551    6.421122577    1.676142815    6.505198304
    1.305509182    6.414596566    1.675299036    6.498053219
    1.312687813    6.408050881    1.674452775    6.490888713
    1.319866444    6.401485727    1.673604059    6.483705027
    1.327045075    6.394901309    1.672752914    6.476502399
    1.334223706    6.388297832    1.671899369    6.469281067
    1.341402337    6.381675502    1.671043451    6.462041268
    1.348580968    6.375034522    1.670185185    6.454783240
    1.355759599    6.368375097    1.669324600    6.447507219
    1.362938230    6.361697430    1.668461722    6.440213440
    1.370116861    6.355001724    1.667596579    6.432902139
    1.377295492    6.348288183    1.666729196    6.425573548
    1.384474124    6.341557010    1.665859601    6.418227903
    1.391652755    6.334808406    1.664987821    6.410865436
    1.398831386    6.328042574    1.664113882    6.403486379
    1.406010017    6.321259714    1.663237810    6.396090964
    1.413188648    6.314460029    1.662359633    6.388679420
    1.420367279    6.307643719    1.661479377    6.381251979
    1.427545910    6.300810983    1.660597069    6.373808869
    1.434724541    6.293962023    1.659712734    6.366350319
    1.441903172    6.287097037    1.658826399    6.358876557
    1.449081803    6.280216224    1.657938090    6.351387809
    1.456260434    6.273319782    1.657047834    6.343884301
    1.463439065    6.266407910    1.656155656    6.336366260
    1.470617696    6.259480804    1.655261583    6.328833908
    1.477796327    6.252538663    1.654365641    6.321287470
    1.484974958    6.245581681    1.653467855    6.313727169
    1.492153589    6.238610056    1.652568251    6.306153227
    1.499332220    6.231623983    1.651666856    6.298565864
    1.506510851    6.224623655    1.650763694    6.290965301
    1.513689482    6.217609269    1.649858791    6.283351757
    1.520868114    6.210581017    1.648952174    6.275725451
    1.528046745    6.203539092    1.648043867    6.268086601
    1.535225376    6.196483688    1.647133895    6.260435423
    1.542404007    6.189414996    1.646222285    6.252772132
    1.549582638    6.182333207    1.645309060    6.245096944
    1.556761269    6.175238513    1.644394247    6.237410073
    1.563939900    6.168131103    1.643477870    6.229711731
    1.571118531    6.161011168    1.642559955    6.222002132
    1.578297162    6.153878896    1.641640525    6.214281485
    1.585475793    6.146734476    1.640719607    6.206550001
    1.592654424    6.139578095    1.639797224    6.198807890
    1.599833055    6.132409941    1.638873401    6.191055360
    1.607011686    6.125230199    1.637948162    6.183292617
    1.614190317    6.118039057    1.637021533    6.175519869
    1.621368948    6.110836697    1.636093538    6.167737321
    1.628547579    6.103623307    1.635164199    6.159945176
    1.635726210    6.096399068    1.634233543    6.152143639
    1.642904841    6.089164164    1.633301592    6.144332912
    1.650083472    6.081918777    1.632368371    6.136513197
    1.657262104    6.074663089    1.631433904    6.128684692
    1.664440735    6.067397282    1.630498214    6.120847599
    1.671619366    6.060121535    1.629561324    6.113002115
    1.678797997    6.052836027    1.628623260    6.105148438
    1.685976628    6.045540938    1.627684043    6.097286764
    1.693155259    6.038236446    1.626743697    6.089417288
    1.700333890    6.030922729    1.625802246    6.081540204
    1.707512521    6.023599962    1.624859713    6.073655706
    1.714691152    6.016268321    1.623916120    6.065763985
    1.721869783    6.008927982    1.622971491    6.057865234
    1.729048414    6.001579120    1.622025848    6.049959641
    1.736227045    5.994221907    1.621079214    6.042047397
    1.743405676    5.986856517    1.620131612    6.034128688
    1.750584307    5.979483121    1.619183065    6.026203702
    1.757762938    5.972101892    1.618233594    6.018272624
    1.764941569    5.964712999    1.617283222    6.010335640
    1.772120200    5.957316612    1.616331971    6.002392933
    1.779298831    5.949912901    1.615379864    5.994444685
    1.786477462    5.942502033    1.614426921    5.986491078
    1.793656093    5.935084175    1.613473166    5.978532293
    1.800834725    5.927659495    1.612518620    5.970568509
    1.808013356    5.920228159    1.611563304    5.962599904
    1.815191987    5.912790330    1.610607240    5.954626655
    1.822370618    5.905346174    1.609650450    5.946648939
    1.829549249    5.897895853    1.608692954    5.938666931
    1.836727880    5.890439530    1.607734775    5.930680805
    1.843906511    5.882977367    1.606775932    5.922690732
    1.851085142    5.875509525    1.605816447    5.914696887
    1.858263773    5.868036164    1.604856342    5.906699438
    1.865442404    5.860557443    1.603895635    5.898698555
    1.872621035    5.853073520    1.602934349    5.890694408
    1.879799666    5.845584553    1.601972504    5.882687163
    1.886978297    5.838090699    1.601010120    5.874676987
    1.894156928    5.830592113    1.600047217    5.866664046
    1.901335559    5.823088951    1.599083816    5.858648502
    1.908514190    5.815581367    1.598119936    5.850630519
    1.915692821    5.808069514    1.597155598    5.842610260
    1.922871452    5.800553545    1.596190822    5.834587885
    1.930050083    5.793033611    1.595225626    5.826563554
    1.937228715    5.785509863    1.594260031    5.818537425
    1.944407346    5.777982451    1.593294057    5.810509656
    1.951585977    5.770451525    1.592327722    5.802480404
    1.958764608    5.762917232    1.591361045    5.794449823
    1.965943239    5.755379719    1.590394047    5.786418069
    1.973121870    5.747839134    1.589426745    5.778385294
    1.980300501    5.740295622    1.588459159    5.770351651
    1.987479132    5.732749327    1.587491307    5.762317290
    1.994657763    5.725200394    1.586523209    5.754282361
    2.001836394    5.717648966    1.585554882    5.746247014
    2.009015025    5.710095185    1.584586346    5.738211396
    2.016193656    5.702539191    1.583617618    5.730175654
    2.023372287    5.694981127    1.582648716    5.722139933
    2.030550918    5.687421130    1.581679659    5.714104377
    2.037729549    5.679859341    1.580710465    5.706069131
    2.044908180    5.672295896    1.579741151    5.698034336
    2.052086811    5.664730933    1.578771734    5.690000135
    2.059265442    5.657164587    1.577802234    5.681966666
    2.066444073    5.649596995    1.576832667    5.673934069
    2.073622705    5.642028290    1.575863050    5.665902482
    2.080801336    5.634458606    1.574893401    5.657872042
    2.087979967    5.626888075    1.573923736    5.649842885
    2.095158598    5.619316830    1.572954074    5.641815146
    2.102337229    5.611745000    1.571984430    5.633788959
    2.109515860    5.604172716    1.571014821    5.625764455
    2.116694491    5.596600108    1.570045264    5.617741768
    2.123873122    5.589027303    1.569075776    5.609721027
    2.131051753    5.581454429    1.568106373    5.601702361
    2.138230384    5.573881612    1.567137071    5.593685901
    2.145409015    5.566308977    1.566167887    5.585671772
    2.152587646    5.558736651    1.565198835    5.577660101
    2.159766277    5.551164756    1.564229934    5.569651013
    2.166944908    5.543593415    1.563261197    5.561644634
    2.174123539    5.536022751    1.562292641    5.553641086
    2.181302170    5.528452885    1.561324281    5.545640490
    2.188480801    5.520883938    1.560356134    5.537642970
    2.195659432    5.513316028    1.559388213    5.529648643
    2.202838063    5.505749275    1.558420535    5.521657631
    2.210016694    5.498183796    1.557453114    5.513670050
    2.217195326    5.490619709    1.556485966    5.505686018
    2.224373957    5.483057129    1.555519105    5.497705651
    2.231552588    5.475496172    1.554552546    5.489729064
    2.238731219    5.467936952    1.553586304    5.481756371
    2.245909850    5.460379583    1.552620394    5.473787685
    2.253088481    5.452824177    1.551654829    5.465823118
    2.260267112    5.445270846    1.550689623    5.457862781
    2.267445743    5.437719701    1.549724792    5.449906785
    2.274624374    5.430170852    1.548760350    5.441955237
    2.281803005    5.422624409    1.547796309    5.434008246
    2.288981636    5.415080479    1.546832684    5.426065919
    2.296160267    5.407539171    1.545869489    5.418128363
    2.303338898    5.400000591    1.544906738    5.410195682
    2.310517529    5.392464845    1.543944443    5.402267981
    2.317696160    5.384932038    1.542982618    5.394345362
    2.324874791    5.377402274    1.542021276    5.386427927
    2.332053422    5.369875656    1.541060432    5.378515779
    2.339232053    5.362352288    1.540100096    5.370609017
    2.346410684    5.354832270    1.539140284    5.362707741
    2.353589316    5.347315705    1.538181006    5.354812048
    2.360767947    5.339802690    1.537222277    5.346922037
    2.367946578    5.332293327    1.536264108    5.339037803
    2.375125209    5.324787713    1.535306513    5.331159442
    2.382303840    5.317285945    1.534349503    5.323287050
    2.389482471    5.309788122    1.533393091    5.315420719
    2.396661102    5.302294337    1.532437289    5.307560542
    2.403839733    5.294804687    1.531482108    5.299706610
    2.411018364    5.287319266    1.530527562    5.291859016
    2.418196995    5.279838168    1.529573661    5.284017849
    2.425375626    5.272361484    1.528620418    5.276183197
    2.432554257    5.264889307    1.527667843    5.268355150
    2.439732888    5.257421728    1.526715950    5.260533793
    2.446911519    5.249958837    1.525764748    5.252719214
    2.454090150    5.242500724    1.524814250    5.244911499
    2.461268781    5.235047478    1.523864466    5.237110731
    2.468447412    5.227599185    1.522915407    5.229316994
    2.475626043    5.220155934    1.521967085    5.221530371
    2.482804674    5.212717811    1.521019510    5.213750945
    2.489983306    5.205284900    1.520072693    5.205978795
    2.497161937    5.197857288    1.519126645    5.198214003
    2.504340568    5.190435057    1.518181377    5.190456647
    2.511519199    5.183018291    1.517236898    5.182706806
    2.518697830    5.175607073    1.516293219    5.174964558
    2.525876461    5.168201484    1.515350351    5.167229980
    2.533055092    5.160801605    1.514408303    5.159503146
    2.540233723    5.153407516    1.513467085    5.151784134
