# energy grid [eV]     epsr_x  epsr_y  epsr_z
#
    0.200000000   13.884873395   13.482847799   14.297838074
    0.207178631   13.887891957   13.485746312   14.300792368
    0.214357262   13.891018537   13.488748533   14.303852284
    0.221535893   13.894253299   13.491854622   14.307017974
    0.228714524   13.897596417   13.495064740   14.310289596
    0.235893155   13.901048066   13.498379058   14.313667314
    0.243071786   13.904608432   13.501797749   14.317151295
    0.250250417   13.908277702   13.505320995   14.320741713
    0.257429048   13.912056074   13.508948981   14.324438747
    0.264607679   13.915943747   13.512681899   14.328242583
    0.271786311   13.919940930   13.516519946   14.332153411
    0.278964942   13.924047837   13.520463327   14.336171426
    0.286143573   13.928264686   13.524512250   14.340296830
    0.293322204   13.932591704   13.528666930   14.344529831
    0.300500835   13.937029123   13.532927588   14.348870640
    0.307679466   13.941577180   13.537294451   14.353319476
    0.314858097   13.946236121   13.541767751   14.357876564
    0.322036728   13.951006195   13.546347727   14.362542132
    0.329215359   13.955887660   13.551034623   14.367316417
    0.336393990   13.960880779   13.555828691   14.372199659
    0.343572621   13.965985822   13.560730186   14.377192106
    0.350751252   13.971203065   13.565739372   14.382294010
    0.357929883   13.976532790   13.570856518   14.387505631
    0.365108514   13.981975286   13.576081899   14.392827232
    0.372287145   13.987530850   13.581415796   14.398259085
    0.379465776   13.993199782   13.586858496   14.403801465
    0.386644407   13.998982392   13.592410294   14.409454657
    0.393823038   14.004878995   13.598071490   14.415218947
    0.401001669   14.010889914   13.603842390   14.421094632
    0.408180301   14.017015477   13.609723308   14.427082011
    0.415358932   14.023256020   13.615714562   14.433181392
    0.422537563   14.029611886   13.621816480   14.439393089
    0.429716194   14.036083423   13.628029393   14.445717420
    0.436894825   14.042670989   13.634353641   14.452154711
    0.444073456   14.049374948   13.640789570   14.458705296
    0.451252087   14.056195668   13.647337533   14.465369511
    0.458430718   14.063133529   13.653997888   14.472147703
    0.465609349   14.070188914   13.660771002   14.479040222
    0.472787980   14.077362217   13.667657248   14.486047427
    0.479966611   14.084653836   13.674657006   14.493169682
    0.487145242   14.092064179   13.681770664   14.500407359
    0.494323873   14.099593658   13.688998614   14.507760835
    0.501502504   14.107242697   13.696341259   14.515230496
    0.508681135   14.115011723   13.703799007   14.522816732
    0.515859766   14.122901174   13.711372273   14.530519942
    0.523038397   14.130911495   13.719061480   14.538340531
    0.530217028   14.139043137   13.726867058   14.546278911
    0.537395659   14.147296561   13.734789445   14.554335502
    0.544574290   14.155672234   13.742829087   14.562510730
    0.551752922   14.164170633   13.750986435   14.570805028
    0.558931553   14.172792240   13.759261951   14.579218837
    0.566110184   14.181537549   13.767656101   14.587752605
    0.573288815   14.190407059   13.776169363   14.596406786
    0.580467446   14.199401279   13.784802219   14.605181845
    0.587646077   14.208520726   13.793555161   14.614078250
    0.594824708   14.217765924   13.802428689   14.623096479
    0.602003339   14.227137408   13.811423311   14.632237019
    0.609181970   14.236635720   13.820539542   14.641500361
    0.616360601   14.246261411   13.829777905   14.650887006
    0.623539232   14.256015040   13.839138935   14.660397463
    0.630717863   14.265897177   13.848623170   14.670032247
    0.637896494   14.275908398   13.858231161   14.679791885
    0.645075125   14.286049291   13.867963466   14.689676907
    0.652253756   14.296320451   13.877820650   14.699687855
    0.659432387   14.306722484   13.887803289   14.709825276
    0.666611018   14.317256002   13.897911968   14.720089729
    0.673789649   14.327921631   13.908147279   14.730481779
    0.680968280   14.338720004   13.918509824   14.741001999
    0.688146912   14.349651763   13.929000215   14.751650972
    0.695325543   14.360717561   13.939619072   14.762429289
    0.702504174   14.371918061   13.950367025   14.773337549
    0.709682805   14.383253935   13.961244714   14.784376362
    0.716861436   14.394725866   13.972252786   14.795546346
    0.724040067   14.406334547   13.983391901   14.806848125
    0.731218698   14.418080680   13.994662727   14.818282337
    0.738397329   14.429964979   14.006065943   14.829849627
    0.745575960   14.441988169   14.017602236   14.841550647
    0.752754591   14.454150984   14.029272304   14.853386063
    0.759933222   14.466454170   14.041076857   14.865356547
    0.767111853   14.478898483   14.053016613   14.877462782
    0.774290484   14.491484690   14.065092302   14.889705461
    0.781469115   14.504213572   14.077304664   14.902085286
    0.788647746   14.517085917   14.089654449   14.914602970
    0.795826377   14.530102527   14.102142419   14.927259235
    0.803005008   14.543264216   14.114769347   14.940054815
    0.810183639   14.556571809   14.127536017   14.952990454
    0.817362270   14.570026143   14.140443224   14.966066904
    0.824540902   14.583628065   14.153491774   14.979284932
    0.831719533   14.597378439   14.166682486   14.992645314
    0.838898164   14.611278137   14.180016189   15.006148833
    0.846076795   14.625328046   14.193493725   15.019796279
    0.853255426   14.639529064   14.207115946   15.033588424
    0.860434057   14.653882101   14.220883719   15.047525993
    0.867612688   14.668388084   14.234797919   15.061609820
    0.874791319   14.683047951   14.248859444   15.075840992
    0.881969950   14.697862653   14.263069195   15.090220370
    0.889148581   14.712833154   14.277428086   15.104748673
    0.896327212   14.727960430   14.291937047   15.119426650
    0.903505843   14.743245476   14.306597019   15.134255283
    0.910684474   14.758689302   14.321408961   15.149235664
    0.917863105   14.774292928   14.336373842   15.164368656
    0.925041736   14.790057388   14.351492643   15.179655111
    0.932220367   14.805983732   14.366766361   15.195095948
    0.939398998   14.822073024   14.382196007   15.210692113
    0.946577629   14.838326345   14.397782607   15.226444572
    0.953756260   14.854744790   14.413527200   15.242354302
    0.960934891   14.871329471   14.429430840   15.258422297
    0.968113523   14.888081513   14.445494598   15.274649562
    0.975292154   14.905002061   14.461719557   15.291037114
    0.982470785   14.922092272   14.478106817   15.307585988
    0.989649416   14.939353323   14.494657494   15.324297229
    0.996828047   14.956786405   14.511372719   15.341171898
    1.004006678   14.974392727   14.528253639   15.358211071
    1.011185309   14.992173517   14.545301418   15.375415837
    1.018363940   15.010130017   14.562517234   15.392787300
    1.025542571   15.028263489   14.579902286   15.410326582
    1.032721202   15.046575213   14.597457786   15.428034817
    1.039899833   15.065066486   14.615184965   15.445913155
    1.047078464   15.083738624   14.633085072   15.463962762
    1.054257095   15.102592962   14.651159373   15.482184822
    1.061435726   15.121630855   14.669409151   15.500580532
    1.068614357   15.140853676   14.687835710   15.519151108
    1.075792988   15.160262817   14.706440370   15.537897780
    1.082971619   15.179859693   14.725224471   15.556821798
    1.090150250   15.199645736   14.744189372   15.575924427
    1.097328881   15.219622401   14.763336452   15.595206950
    1.104507513   15.239791162   14.782667107   15.614670668
    1.111686144   15.260153511   14.802182753   15.634316899
    1.118864775   15.280710953   14.821884815   15.654146980
    1.126043406   15.301465018   14.841774743   15.674162266
    1.133222037   15.322417302   14.861854051   15.694364132
    1.140400668   15.343569408   14.882124258   15.714753970
    1.147579299   15.364922928   14.902586873   15.735333193
    1.154757930   15.386479485   14.923243433   15.756103232
    1.161936561   15.408240731   14.944095503   15.777065539
    1.169115192   15.430208344   14.965144673   15.798221586
    1.176293823   15.452384026   14.986392554   15.819572866
    1.183472454   15.474769497   15.007840776   15.841120892
    1.190651085   15.497366490   15.029490980   15.862867198
    1.197829716   15.520176794   15.051344860   15.884813341
    1.205008347   15.543202265   15.073404175   15.906960898
    1.212186978   15.566444733   15.095670660   15.929311468
    1.219365609   15.589906038   15.118146055   15.951866675
    1.226544240   15.613588056   15.140832142   15.974628163
    1.233722871   15.637492705   15.163730731   15.997597601
    1.240901503   15.661621935   15.186843664   16.020776682
    1.248080134   15.685977717   15.210172808   16.044167123
    1.255258765   15.710562051   15.233720057   16.067770662
    1.262437396   15.735376969   15.257487333   16.091589058
    1.269616027   15.760424535   15.281476592   16.115624095
    1.276794658   15.785706843   15.305689819   16.139877595
    1.283973289   15.811226020   15.330129026   16.164351411
    1.291151920   15.836984226   15.354796253   16.189047414
    1.298330551   15.862983651   15.379693574   16.213967504
    1.305509182   15.889226521   15.404823092   16.239113598
    1.312687813   15.915715093   15.430186945   16.264487643
    1.319866444   15.942451661   15.455787300   16.290091615
    1.327045075   15.969438554   15.481626361   16.315927521
    1.334223706   15.996678136   15.507706363   16.341997399
    1.341402337   16.024172809   15.534029578   16.368303315
    1.348580968   16.051925012   15.560598311   16.394847366
    1.355759599   16.079937220   15.587414904   16.421631679
    1.362938230   16.108211950   15.614481733   16.448658413
    1.370116861   16.136751756   15.641801215   16.475929759
    1.377295492   16.165559234   15.669375802   16.503447939
    1.384474124   16.194637018   15.697207984   16.531215210
    1.391652755   16.223987787   15.725300293   16.559233862
    1.398831386   16.253614262   15.753655298   16.587506217
    1.406010017   16.283519204   15.782275611   16.616034634
    1.413188648   16.313705423   15.811163883   16.644821508
    1.420367279   16.344175771   15.840322811   16.673869267
    1.427545910   16.374933146   15.869755130   16.703180379
    1.434724541   16.405980495   15.899463625   16.732757347
    1.441903172   16.437320811   15.929451120   16.762602713
    1.449081803   16.468957135   15.959720490   16.792719059
    1.456260434   16.500892559   15.990274652   16.823109003
    1.463439065   16.533130226   16.021116573   16.853775206
    1.470617696   16.565673331   16.052249269   16.884720368
    1.477796327   16.598525119   16.083675804   16.915947225
    1.484974958   16.631688892   16.115399293   16.947458547
    1.492153589   16.665168005   16.147422903   16.979257162
    1.499332220   16.698965871   16.179749853   17.011345984
    1.506510851   16.733085959   16.212383418   17.043727935
    1.513689482   16.767531796   16.245326924   17.076405962
    1.520868114   16.802306968   16.278583755   17.109383067
    1.528046745   16.837415126   16.312157351   17.142662306
    1.535225376   16.872859978   16.346051212   17.176246785
    1.542404007   16.908645298   16.380268897   17.210139657
    1.549582638   16.944774926   16.414814025   17.244344121
    1.556761269   16.981252766   16.449690277   17.278863422
    1.563939900   17.018082792   16.484901399   17.313700885
    1.571118531   17.055269046   16.520451201   17.348859897
    1.578297162   17.092815640   16.556343559   17.384343866
    1.585475793   17.130726759   16.592582418   17.420156257
    1.592654424   17.169006664   16.629171790   17.456300596
    1.599833055   17.207659687   16.666115757   17.492780470
    1.607011686   17.246690237   16.703418465   17.529599525
    1.614190317   17.286102792   16.741084108   17.566761466
    1.621368948   17.325901899   16.779116927   17.604270058
    1.628547579   17.366092231   16.817521375   17.642129136
    1.635726210   17.406678571   16.856302052   17.680342598
    1.642904841   17.447665745   16.895463458   17.718914404
    1.650083472   17.489058656   16.935010159   17.757848579
    1.657262104   17.530862278   16.974946852   17.797149217
    1.664440735   17.573081648   17.015278318   17.836820480
    1.671619366   17.615721901   17.056009413   17.876866594
    1.678797997   17.658788460   17.097145162   17.917291868
    1.685976628   17.702286815   17.138690671   17.958100704
    1.693155259   17.746222388   17.180651077   17.999297565
    1.700333890   17.790600728   17.223031619   18.040886976
    1.707512521   17.835427519   17.265837651   18.082873540
    1.714691152   17.880708567   17.309074632   18.125261951
    1.721869783   17.926449792   17.352748127   18.168057008
    1.729048414   17.972657227   17.396863807   18.211263573
    1.736227045   18.019337024   17.441427452   18.254886588
    1.743405676   18.066495455   17.486444954   18.298931088
    1.750584307   18.114138914   17.531922323   18.343402200
    1.757762938   18.162273922   17.577865682   18.388305143
    1.764941569   18.210907130   17.624281277   18.433645232
    1.772120200   18.260045320   17.671175480   18.479427879
    1.779298831   18.309695414   17.718554786   18.525658593
    1.786477462   18.359864470   17.766425823   18.572342984
    1.793656093   18.410559690   17.814795352   18.619486768
    1.800834725   18.461788426   17.863670271   18.667095765
    1.808013356   18.513558178   17.913057619   18.715175904
    1.815191987   18.565876603   17.962964579   18.763733224
    1.822370618   18.618751516   18.013398482   18.812773879
    1.829549249   18.672190898   18.064366813   18.862304139
    1.836727880   18.726202896   18.115877212   18.912330394
    1.843906511   18.780795829   18.167937478   18.962859153
    1.851085142   18.835978193   18.220555575   19.013897052
    1.858263773   18.891758661   18.273739630   19.065450846
    1.865442404   18.948146098   18.327497951   19.117527431
    1.872621035   19.005149586   18.381839047   19.170133860
    1.879799666   19.062778384   18.436771592   19.223277306
    1.886978297   19.121041950   18.492304441   19.276965064
    1.894156928   19.179949975   18.548446653   19.331204552
    1.901335559   19.239512342   18.605207480   19.386003286
    1.908514190   19.299739115   18.662596376   19.441368994
    1.915692821   19.360640451   18.720623012   19.497309759
    1.922871452   19.422226388   18.779297215   19.553833650
    1.930050083   19.484507477   18.838629038   19.610948764
    1.937228715   19.547495689   18.898628886   19.668663609
    1.944407346   19.611202355   18.959307238   19.726986731
    1.951585977   19.675639607   19.020674878   19.785926956
    1.958764608   19.740819434   19.082742366   19.845493102
    1.965943239   19.806753378   19.145521093   19.905694126
    1.973121870   19.873453618   19.209023373   19.966539578
    1.980300501   19.940932855   19.273261085   20.028039129
    1.987479132   20.009204481   19.338247258   20.090202602
    1.994657763   20.078281787   19.403994131   20.153039829
    2.001836394   20.148178268   19.470513919   20.216560829
    2.009015025   20.218907864   19.537819506   20.280775919
    2.016193656   20.290484910   19.605924244   20.345695679
    2.023372287   20.362924112   19.674841854   20.411330924
    2.030550918   20.436240551   19.744586378   20.477692705
    2.037729549   20.510449685   19.815172140   20.544792318
    2.044908180   20.585567313   19.886613858   20.612641299
    2.052086811   20.661609488   19.958926997   20.681251489
    2.059265442   20.738592728   20.032127277   20.750634973
    2.066444073   20.816534703   20.106230528   20.820804244
    2.073622705   20.895453326   20.181253084   20.891772021
    2.080801336   20.975366404   20.257211749   20.963551177
    2.087979967   21.056292307   20.334123774   21.036154919
    2.095158598   21.138250027   20.412006884   21.109596805
    2.102337229   21.221259110   20.490879290   21.183890719
    2.109515860   21.305339648   20.570759703   21.259050882
    2.116694491   21.390512266   20.651667342   21.335091845
    2.123873122   21.476798077   20.733621953   21.412028483
    2.131051753   21.564218571   20.816643803   21.489875970
    2.138230384   21.652796043   20.900753753   21.568649908
    2.145409015   21.742554491   20.985973373   21.648366599
    2.152587646   21.833517951   21.072324652   21.729042533
    2.159766277   21.925710376   21.159829854   21.810694339
    2.166944908   22.019156650   21.248512143   21.893339204
    2.174123539   22.113882885   21.338396598   21.976995090
    2.181302170   22.209915860   21.429508515   22.061680219
    2.188480801   22.307282861   21.521873155   22.147413101
    2.195659432   22.406012342   21.615516481   22.234212848
    2.202838063   22.506133616   21.710465358   22.322099118
    2.210016694   22.607676715   21.806747740   22.411092041
    2.217195326   22.710673006   21.904392848   22.501212288
    2.224373957   22.815154723   22.003430628   22.592481090
    2.231552588   22.921154803   22.103891533   22.684920220
    2.238731219   23.028707255   22.205806813   22.778551925
    2.245909850   23.137847202   22.309208862   22.873399035
    2.253088481   23.248610891   22.414132301   22.969485478
    2.260267112   23.361035723   22.520612562   23.066835736
    2.267445743   23.475161188   22.628685484   23.165474897
    2.274624374   23.591028476   22.738388288   23.265428984
    2.281803005   23.708679328   22.849759581   23.366724451
    2.288981636   23.828156462   22.962839190   23.469388277
    2.296160267   23.949504473   23.077668115   23.573448264
    2.303338898   24.072769608   23.194289210   23.678933273
    2.310517529   24.197999997   23.312747621   23.785873492
    2.317696160   24.325245388   23.433089280   23.894299661
    2.324874791   24.454557241   23.555361624   24.004243204
    2.332053422   24.585989028   23.679614153   24.115736615
    2.339232053   24.719596187   23.805897995   24.228813429
    2.346410684   24.855436335   23.934266219   24.343508184
    2.353589316   24.993569565   24.064774124   24.459856412
    2.360767947   25.134058111   24.197479308   24.577894967
    2.367946578   25.276966530   24.332442106   24.697662223
    2.375125209   25.422362149   24.469724593   24.819197573
    2.382303840   25.570315434   24.609391129   24.942541955
    2.389482471   25.720899387   24.751508954   25.067737323
    2.396661102   25.874190229   24.896148530   25.194826960
    2.403839733   26.030267249   25.043383021   25.323855624
    2.411018364   26.189213022   25.193288532   25.454869193
    2.418196995   26.351113819   25.345944548   25.587913574
    2.425375626   26.516059781   25.501434100   25.723034011
    2.432554257   26.684145104   25.659843939   25.860280607
    2.439732888   26.855468274   25.821264789   25.999709281
    2.446911519   27.030132306   25.985791636   26.141386429
    2.454090150   27.208245115   26.153523836   26.285374474
    2.461268781   27.389920094   26.324565387   26.431726413
    2.468447412   27.575275841   26.499025291   26.580500046
    2.475626043   27.764436575   26.677017843   26.731758411
    2.482804674   27.957532805   26.858662960   26.885567917
    2.489983306   28.154701710   27.044086870   27.041997783
    2.497161937   28.356087528   27.233422426   27.201119980
    2.504340568   28.561842046   27.426809081   27.363009351
    2.511519199   28.772125321   27.624393837   27.527743857
    2.518697830   28.987106150   27.826331637   27.695404784
    2.525876461   29.206962489   28.032785861   27.866076774
    2.533055092   29.431882163   28.243928967   28.039847834
    2.540233723   29.662063677   28.459943188   28.216809614
