# energy grid [eV]     ieps_x  ieps_y  ieps_z
#
    0.200000000    8.848078362    8.561777269    9.068572724
    0.207178631    8.846213113    8.559991249    9.066759249
    0.214357262    8.844283074    8.558143183    9.064882724
    0.221535893    8.842288345    8.556233168    9.062943242
    0.228714524    8.840229029    8.554261302    9.060940897
    0.235893155    8.838105234    8.552227688    9.058875788
    0.243071786    8.835917071    8.550132430    9.056748016
    0.250250417    8.833664654    8.547975638    9.054557686
    0.257429048    8.831348100    8.545757422    9.052304903
    0.264607679    8.828967530    8.543477897    9.049989779
    0.271786311    8.826523066    8.541137181    9.047612427
    0.278964942    8.824014835    8.538735394    9.045172963
    0.286143573    8.821442969    8.536272659    9.042671505
    0.293322204    8.818807599    8.533749104    9.040108175
    0.300500835    8.816108861    8.531164858    9.037483098
    0.307679466    8.813346896    8.528520052    9.034796402
    0.314858097    8.810521845    8.525814824    9.032048216
    0.322036728    8.807633854    8.523049310    9.029238675
    0.329215359    8.804683072    8.520223653    9.026367914
    0.336393990    8.801669650    8.517337997    9.023436072
    0.343572621    8.798593742    8.514392488    9.020443291
    0.350751252    8.795455507    8.511387277    9.017389715
    0.357929883    8.792255104    8.508322516    9.014275491
    0.365108514    8.788992698    8.505198360    9.011100769
    0.372287145    8.785668455    8.502014969    9.007865702
    0.379465776    8.782282544    8.498772504    9.004570445
    0.386644407    8.778835138    8.495471127    9.001215156
    0.393823038    8.775326410    8.492111006    8.997799996
    0.401001669    8.771756541    8.488692310    8.994325127
    0.408180301    8.768125710    8.485215211    8.990790716
    0.415358932    8.764434101    8.481679884    8.987196932
    0.422537563    8.760681900    8.478086506    8.983543944
    0.429716194    8.756869296    8.474435257    8.979831928
    0.436894825    8.752996482    8.470726320    8.976061058
    0.444073456    8.749063651    8.466959879    8.972231514
    0.451252087    8.745071002    8.463136122    8.968343476
    0.458430718    8.741018733    8.459255240    8.964397129
    0.465609349    8.736907048    8.455317425    8.960392659
    0.472787980    8.732736151    8.451322872    8.956330253
    0.479966611    8.728506251    8.447271779    8.952210103
    0.487145242    8.724217557    8.443164346    8.948032401
    0.494323873    8.719870282    8.439000775    8.943797345
    0.501502504    8.715464641    8.434781271    8.939505131
    0.508681135    8.711000853    8.430506042    8.935155959
    0.515859766    8.706479136    8.426175297    8.930750033
    0.523038397    8.701899715    8.421789247    8.926287557
    0.530217028    8.697262813    8.417348107    8.921768739
    0.537395659    8.692568659    8.412852094    8.917193786
    0.544574290    8.687817481    8.408301425    8.912562912
    0.551752922    8.683009512    8.403696322    8.907876329
    0.558931553    8.678144986    8.399037007    8.903134254
    0.566110184    8.673224140    8.394323705    8.898336904
    0.573288815    8.668247211    8.389556644    8.893484499
    0.580467446    8.663214442    8.384736054    8.888577261
    0.587646077    8.658126074    8.379862164    8.883615415
    0.594824708    8.652982354    8.374935209    8.878599186
    0.602003339    8.647783528    8.369955425    8.873528803
    0.609181970    8.642529847    8.364923048    8.868404495
    0.616360601    8.637221560    8.359838318    8.863226496
    0.623539232    8.631858922    8.354701475    8.857995037
    0.630717863    8.626442189    8.349512765    8.852710357
    0.637896494    8.620971616    8.344272430    8.847372691
    0.645075125    8.615447465    8.338980718    8.841982280
    0.652253756    8.609869995    8.333637878    8.836539365
    0.659432387    8.604239470    8.328244161    8.831044189
    0.666611018    8.598556155    8.322799817    8.825496998
    0.673789649    8.592820316    8.317305102    8.819898036
    0.680968280    8.587032222    8.311760271    8.814247554
    0.688146912    8.581192143    8.306165581    8.808545801
    0.695325543    8.575300351    8.300521291    8.802793028
    0.702504174    8.569357120    8.294827662    8.796989489
    0.709682805    8.563362724    8.289084955    8.791135439
    0.716861436    8.557317441    8.283293435    8.785231134
    0.724040067    8.551221549    8.277453366    8.779276832
    0.731218698    8.545075328    8.271565016    8.773272792
    0.738397329    8.538879059    8.265628652    8.767219277
    0.745575960    8.532633026    8.259644544    8.761116547
    0.752754591    8.526337512    8.253612962    8.754964867
    0.759933222    8.519992805    8.247534180    8.748764502
    0.767111853    8.513599191    8.241408471    8.742515720
    0.774290484    8.507156958    8.235236109    8.736218787
    0.781469115    8.500666398    8.229017372    8.729873973
    0.788647746    8.494127800    8.222752537    8.723481549
    0.795826377    8.487541459    8.216441881    8.717041787
    0.803005008    8.480907667    8.210085687    8.710554959
    0.810183639    8.474226720    8.203684233    8.704021341
    0.817362270    8.467498913    8.197237804    8.697441208
    0.824540902    8.460724546    8.190746682    8.690814836
    0.831719533    8.453903915    8.184211151    8.684142504
    0.838898164    8.447037320    8.177631498    8.677424489
    0.846076795    8.440125063    8.171008009    8.670661073
    0.853255426    8.433167445    8.164340970    8.663852537
    0.860434057    8.426164769    8.157630672    8.656999162
    0.867612688    8.419117338    8.150877402    8.650101232
    0.874791319    8.412025457    8.144081452    8.643159030
    0.881969950    8.404889431    8.137243113    8.636172842
    0.889148581    8.397709568    8.130362677    8.629142953
    0.896327212    8.390486174    8.123440436    8.622069651
    0.903505843    8.383219557    8.116476685    8.614953223
    0.910684474    8.375910026    8.109471717    8.607793957
    0.917863105    8.368557892    8.102425829    8.600592144
    0.925041736    8.361163463    8.095339315    8.593348072
    0.932220367    8.353727053    8.088212473    8.586062033
    0.939398998    8.346248971    8.081045600    8.578734319
    0.946577629    8.338729531    8.073838993    8.571365221
    0.953756260    8.331169045    8.066592951    8.563955032
    0.960934891    8.323567827    8.059307773    8.556504047
    0.968113523    8.315926192    8.051983759    8.549012560
    0.975292154    8.308244453    8.044621208    8.541480865
    0.982470785    8.300522927    8.037220421    8.533909257
    0.989649416    8.292761928    8.029781699    8.526298033
    0.996828047    8.284961774    8.022305344    8.518647489
    1.004006678    8.277122779    8.014791657    8.510957921
    1.011185309    8.269245261    8.007240941    8.503229629
    1.018363940    8.261329538    7.999653498    8.495462908
    1.025542571    8.253375927    7.992029631    8.487658058
    1.032721202    8.245384745    7.984369643    8.479815377
    1.039899833    8.237356312    7.976673838    8.471935164
    1.047078464    8.229290944    7.968942519    8.464017719
    1.054257095    8.221188961    7.961175991    8.456063341
    1.061435726    8.213050682    7.953374557    8.448072330
    1.068614357    8.204876426    7.945538521    8.440044986
    1.075792988    8.196666511    7.937668189    8.431981611
    1.082971619    8.188421256    7.929763865    8.423882504
    1.090150250    8.180140982    7.921825853    8.415747966
    1.097328881    8.171826007    7.913854458    8.407578299
    1.104507513    8.163476650    7.905849985    8.399373804
    1.111686144    8.155093232    7.897812738    8.391134782
    1.118864775    8.146676071    7.889743023    8.382861534
    1.126043406    8.138225487    7.881641144    8.374554363
    1.133222037    8.129741799    7.873507405    8.366213569
    1.140400668    8.121225325    7.865342113    8.357839454
    1.147579299    8.112676386    7.857145570    8.349432320
    1.154757930    8.104095300    7.848918081    8.340992469
    1.161936561    8.095482385    7.840659951    8.332520201
    1.169115192    8.086837961    7.832371484    8.324015819
    1.176293823    8.078162345    7.824052983    8.315479624
    1.183472454    8.069455855    7.815704753    8.306911917
    1.190651085    8.060718810    7.807327096    8.298312999
    1.197829716    8.051951527    7.798920316    8.289683172
    1.205008347    8.043154323    7.790484716    8.281022736
    1.212186978    8.034327515    7.782020598    8.272331992
    1.219365609    8.025471419    7.773528265    8.263611240
    1.226544240    8.016586353    7.765008018    8.254860781
    1.233722871    8.007672630    7.756460160    8.246080915
    1.240901503    7.998730567    7.747884991    8.237271941
    1.248080134    7.989760479    7.739282812    8.228434159
    1.255258765    7.980762680    7.730653924    8.219567867
    1.262437396    7.971737485    7.721998626    8.210673365
    1.269616027    7.962685205    7.713317218    8.201750952
    1.276794658    7.953606155    7.704609999    8.192800924
    1.283973289    7.944500647    7.695877267    8.183823580
    1.291151920    7.935368993    7.687119320    8.174819218
    1.298330551    7.926211504    7.678336456    8.165788133
    1.305509182    7.917028490    7.669528972    8.156730622
    1.312687813    7.907820262    7.660697163    8.147646982
    1.319866444    7.898587129    7.651841326    8.138537507
    1.327045075    7.889329400    7.642961755    8.129402493
    1.334223706    7.880047382    7.634058745    8.120242234
    1.341402337    7.870741384    7.625132589    8.111057023
    1.348580968    7.861411711    7.616183581    8.101847155
    1.355759599    7.852058670    7.607212014    8.092612922
    1.362938230    7.842682566    7.598218178    8.083354615
    1.370116861    7.833283703    7.589202365    8.074072528
    1.377295492    7.823862385    7.580164865    8.064766950
    1.384474124    7.814418914    7.571105967    8.055438172
    1.391652755    7.804953593    7.562025961    8.046086483
    1.398831386    7.795466723    7.552925134    8.036712173
    1.406010017    7.785958604    7.543803773    8.027315529
    1.413188648    7.776429535    7.534662165    8.017896840
    1.420367279    7.766879816    7.525500596    8.008456393
    1.427545910    7.757309743    7.516319349    7.998994473
    1.434724541    7.747719614    7.507118709    7.989511365
    1.441903172    7.738109723    7.497898958    7.980007355
    1.449081803    7.728480367    7.488660380    7.970482726
    1.456260434    7.718831840    7.479403254    7.960937762
    1.463439065    7.709164433    7.470127861    7.951372745
    1.470617696    7.699478439    7.460834481    7.941787955
    1.477796327    7.689774149    7.451523392    7.932183674
    1.484974958    7.680051853    7.442194871    7.922560182
    1.492153589    7.670311840    7.432849194    7.912917757
    1.499332220    7.660554398    7.423486638    7.903256678
    1.506510851    7.650779813    7.414107477    7.893577222
    1.513689482    7.640988372    7.404711984    7.883879664
    1.520868114    7.631180358    7.395300431    7.874164281
    1.528046745    7.621356057    7.385873091    7.864431347
    1.535225376    7.611515750    7.376430233    7.854681135
    1.542404007    7.601659719    7.366972127    7.844913917
    1.549582638    7.591788243    7.357499042    7.835129967
    1.556761269    7.581901603    7.348011244    7.825329553
    1.563939900    7.572000076    7.338508999    7.815512947
    1.571118531    7.562083939    7.328992574    7.805680416
    1.578297162    7.552153468    7.319462231    7.795832228
    1.585475793    7.542208938    7.309918234    7.785968650
    1.592654424    7.532250621    7.300360845    7.776089948
    1.599833055    7.522278790    7.290790324    7.766196386
    1.607011686    7.512293716    7.281206930    7.756288228
    1.614190317    7.502295668    7.271610922    7.746365736
    1.621368948    7.492284916    7.262002557    7.736429173
    1.628547579    7.482261726    7.252382092    7.726478797
    1.635726210    7.472226365    7.242749780    7.716514870
    1.642904841    7.462179097    7.233105876    7.706537648
    1.650083472    7.452120185    7.223450633    7.696547389
    1.657262104    7.442049893    7.213784301    7.686544350
    1.664440735    7.431968482    7.204107130    7.676528785
    1.671619366    7.421876210    7.194419371    7.666500948
    1.678797997    7.411773337    7.184721269    7.656461091
    1.685976628    7.401660119    7.175013072    7.646409467
    1.693155259    7.391536813    7.165295026    7.636346326
    1.700333890    7.381403673    7.155567373    7.626271916
    1.707512521    7.371260953    7.145830357    7.616186487
    1.714691152    7.361108904    7.136084219    7.606090286
    1.721869783    7.350947777    7.126329199    7.595983557
    1.729048414    7.340777821    7.116565537    7.585866545
    1.736227045    7.330599285    7.106793471    7.575739495
    1.743405676    7.320412414    7.097013235    7.565602648
    1.750584307    7.310217455    7.087225067    7.555456246
    1.757762938    7.300014651    7.077429200    7.545300528
    1.764941569    7.289804244    7.067625866    7.535135732
    1.772120200    7.279586477    7.057815296    7.524962097
    1.779298831    7.269361588    7.047997722    7.514779859
    1.786477462    7.259129816    7.038173371    7.504589252
    1.793656093    7.248891399    7.028342471    7.494390511
    1.800834725    7.238646572    7.018505248    7.484183868
    1.808013356    7.228395570    7.008661927    7.473969553
    1.815191987    7.218138625    6.998812731    7.463747799
    1.822370618    7.207875969    6.988957883    7.453518832
    1.829549249    7.197607833    6.979097603    7.443282881
    1.836727880    7.187334444    6.969232112    7.433040172
    1.843906511    7.177056031    6.959361627    7.422790931
    1.851085142    7.166772820    6.949486365    7.412535380
    1.858263773    7.156485035    6.939606542    7.402273743
    1.865442404    7.146192899    6.929722372    7.392006240
    1.872621035    7.135896634    6.919834068    7.381733093
    1.879799666    7.125596461    6.909941841    7.371454518
    1.886978297    7.115292599    6.900045903    7.361170735
    1.894156928    7.104985264    6.890146460    7.350881959
    1.901335559    7.094674674    6.880243722    7.340588405
    1.908514190    7.084361044    6.870337895    7.330290287
    1.915692821    7.074044585    6.860429183    7.319987816
    1.922871452    7.063725511    6.850517789    7.309681205
    1.930050083    7.053404032    6.840603917    7.299370663
    1.937228715    7.043080357    6.830687766    7.289056397
    1.944407346    7.032754693    6.820769537    7.278738616
    1.951585977    7.022427248    6.810849427    7.268417525
    1.958764608    7.012098225    6.800927633    7.258093329
    1.965943239    7.001767828    6.791004351    7.247766232
    1.973121870    6.991436260    6.781079774    7.237436434
    1.980300501    6.981103720    6.771154096    7.227104137
    1.987479132    6.970770408    6.761227508    7.216769540
    1.994657763    6.960436522    6.751300200    7.206432841
    2.001836394    6.950102258    6.741372360    7.196094237
    2.009015025    6.939767811    6.731444176    7.185753923
    2.016193656    6.929433375    6.721515834    7.175412094
    2.023372287    6.919099141    6.711587518    7.165068943
    2.030550918    6.908765300    6.701659413    7.154724660
    2.037729549    6.898432041    6.691731699    7.144379436
    2.044908180    6.888099553    6.681804557    7.134033461
    2.052086811    6.877768022    6.671878167    7.123686921
    2.059265442    6.867437633    6.661952707    7.113340004
    2.066444073    6.857108569    6.652028353    7.102992893
    2.073622705    6.846781012    6.642105280    7.092645774
    2.080801336    6.836455144    6.632183663    7.082298827
    2.087979967    6.826131144    6.622263673    7.071952236
    2.095158598    6.815809190    6.612345483    7.061606178
    2.102337229    6.805489459    6.602429262    7.051260833
    2.109515860    6.795172125    6.592515178    7.040916378
    2.116694491    6.784857363    6.582603399    7.030572989
    2.123873122    6.774545344    6.572694091    7.020230841
    2.131051753    6.764236241    6.562787419    7.009890107
    2.138230384    6.753930222    6.552883545    6.999550958
    2.145409015    6.743627457    6.542982632    6.989213566
    2.152587646    6.733328111    6.533084840    6.978878101
    2.159766277    6.723032351    6.523190329    6.968544730
    2.166944908    6.712740341    6.513299257    6.958213620
    2.174123539    6.702452243    6.503411780    6.947884937
    2.181302170    6.692168218    6.493528054    6.937558846
    2.188480801    6.681888428    6.483648234    6.927235508
    2.195659432    6.671613030    6.473772471    6.916915087
    2.202838063    6.661342182    6.463900917    6.906597743
    2.210016694    6.651076041    6.454033723    6.896283634
    2.217195326    6.640814759    6.444171038    6.885972920
    2.224373957    6.630558492    6.434313008    6.875665755
    2.231552588    6.620307390    6.424459782    6.865362297
    2.238731219    6.610061605    6.414611503    6.855062699
    2.245909850    6.599821286    6.404768316    6.844767114
    2.253088481    6.589586580    6.394930363    6.834475694
    2.260267112    6.579357635    6.385097786    6.824188589
    2.267445743    6.569134595    6.375270724    6.813905948
    2.274624374    6.558917605    6.365449317    6.803627919
    2.281803005    6.548706807    6.355633702    6.793354650
    2.288981636    6.538502343    6.345824014    6.783086284
    2.296160267    6.528304353    6.336020390    6.772822968
    2.303338898    6.518112975    6.326222964    6.762564842
    2.310517529    6.507928348    6.316431866    6.752312051
    2.317696160    6.497750606    6.306647230    6.742064732
    2.324874791    6.487579885    6.296869185    6.731823027
    2.332053422    6.477416320    6.287097859    6.721587073
    2.339232053    6.467260041    6.277333381    6.711357007
    2.346410684    6.457111180    6.267575878    6.701132965
    2.353589316    6.446969868    6.257825473    6.690915080
    2.360767947    6.436836232    6.248082292    6.680703487
    2.367946578    6.426710399    6.238346458    6.670498318
    2.375125209    6.416592497    6.228618091    6.660299702
    2.382303840    6.406482649    6.218897312    6.650107771
    2.389482471    6.396380979    6.209184241    6.639922651
    2.396661102    6.386287610    6.199478995    6.629744471
    2.403839733    6.376202662    6.189781692    6.619573357
    2.411018364    6.366126255    6.180092447    6.609409434
    2.418196995    6.356058509    6.170411375    6.599252825
    2.425375626    6.345999540    6.160738589    6.589103652
    2.432554257    6.335949465    6.151074202    6.578962039
    2.439732888    6.325908399    6.141418324    6.568828103
    2.446911519    6.315876455    6.131771066    6.558701966
    2.454090150    6.305853746    6.122132537    6.548583745
    2.461268781    6.295840384    6.112502843    6.538473555
    2.468447412    6.285836478    6.102882092    6.528371515
    2.475626043    6.275842139    6.093270388    6.518277737
    2.482804674    6.265857474    6.083667837    6.508192335
    2.489983306    6.255882589    6.074074542    6.498115422
    2.497161937    6.245917590    6.064490604    6.488047109
    2.504340568    6.235962582    6.054916125    6.477987505
    2.511519199    6.226017667    6.045351204    6.467936721
    2.518697830    6.216082949    6.035795940    6.457894863
    2.525876461    6.206158528    6.026250431    6.447862038
    2.533055092    6.196244503    6.016714774    6.437838353
    2.540233723    6.186340974    6.007189063    6.427823911
