# energy grid [eV]     ieps_x  ieps_y  ieps_z
#
    0.200000000    8.355180117   11.075182583   11.420409722
    0.207178631    8.353454482   11.072621752   11.417744275
    0.214357262    8.351668900   11.069972070   11.414986356
    0.221535893    8.349823465   11.067233684   11.412136118
    0.228714524    8.347918271   11.064406749   11.409193725
    0.235893155    8.345953419   11.061491423   11.406159341
    0.243071786    8.343929009   11.058487869   11.403033137
    0.250250417    8.341845147   11.055396255   11.399815290
    0.257429048    8.339701940   11.052216753   11.396505979
    0.264607679    8.337499498   11.048949542   11.393105391
    0.271786311    8.335237937   11.045594803   11.389613716
    0.278964942    8.332917371   11.042152724   11.386031150
    0.286143573    8.330537922   11.038623495   11.382357894
    0.293322204    8.328099711   11.035007312   11.378594152
    0.300500835    8.325602863   11.031304377   11.374740134
    0.307679466    8.323047507   11.027514895   11.370796056
    0.314858097    8.320433773   11.023639074   11.366762136
    0.322036728    8.317761796   11.019677130   11.362638600
    0.329215359    8.315031713   11.015629281   11.358425676
    0.336393990    8.312243662   11.011495750   11.354123597
    0.343572621    8.309397786   11.007276765   11.349732602
    0.350751252    8.306494229   11.002972558   11.345252933
    0.357929883    8.303533141   10.998583365   11.340684838
    0.365108514    8.300514670   10.994109425   11.336028568
    0.372287145    8.297438971   10.989550986   11.331284380
    0.379465776    8.294306198   10.984908294   11.326452535
    0.386644407    8.291116511   10.980181604   11.321533297
    0.393823038    8.287870071   10.975371173   11.316526935
    0.401001669    8.284567041   10.970477262   11.311433724
    0.408180301    8.281207587   10.965500138   11.306253942
    0.415358932    8.277791880   10.960440069   11.300987871
    0.422537563    8.274320089   10.955297331   11.295635797
    0.429716194    8.270792389   10.950072199   11.290198011
    0.436894825    8.267208957   10.944764956   11.284674808
    0.444073456    8.263569971   10.939375888   11.279066486
    0.451252087    8.259875613   10.933905284   11.273373349
    0.458430718    8.256126067   10.928353437   11.267595703
    0.465609349    8.252321519   10.922720644   11.261733859
    0.472787980    8.248462158   10.917007206   11.255788133
    0.479966611    8.244548175   10.911213427   11.249758842
    0.487145242    8.240579763   10.905339617   11.243646309
    0.494323873    8.236557118   10.899386086   11.237450860
    0.501502504    8.232480439   10.893353149   11.231172826
    0.508681135    8.228349924   10.887241126   11.224812539
    0.515859766    8.224165778   10.881050340   11.218370338
    0.523038397    8.219928204   10.874781115   11.211846563
    0.530217028    8.215637409   10.868433782   11.205241560
    0.537395659    8.211293604   10.862008673   11.198555675
    0.544574290    8.206896998   10.855506123   11.191789260
    0.551752922    8.202447806   10.848926473   11.184942671
    0.558931553    8.197946243   10.842270064   11.178016265
    0.566110184    8.193392526   10.835537242   11.171010405
    0.573288815    8.188786875   10.828728357   11.163925455
    0.580467446    8.184129512   10.821843760   11.156761784
    0.587646077    8.179420660   10.814883805   11.149519762
    0.594824708    8.174660546   10.807848852   11.142199765
    0.602003339    8.169849395   10.800739261   11.134802169
    0.609181970    8.164987438   10.793555396   11.127327356
    0.616360601    8.160074906   10.786297623   11.119775710
    0.623539232    8.155112033   10.778966312   11.112147616
    0.630717863    8.150099052   10.771561836   11.104443465
    0.637896494    8.145036201   10.764084570   11.096663649
    0.645075125    8.139923719   10.756534892   11.088808562
    0.652253756    8.134761846   10.748913181   11.080878604
    0.659432387    8.129550823   10.741219822   11.072874174
    0.666611018    8.124290894   10.733455199   11.064795676
    0.673789649    8.118982305   10.725619700   11.056643515
    0.680968280    8.113625303   10.717713717   11.048418101
    0.688146912    8.108220136   10.709737642   11.040119844
    0.695325543    8.102767054   10.701691871   11.031749158
    0.702504174    8.097266309   10.693576801   11.023306458
    0.709682805    8.091718155   10.685392832   11.014792163
    0.716861436    8.086122845   10.677140366   11.006206693
    0.724040067    8.080480637   10.668819808   10.997550471
    0.731218698    8.074791787   10.660431563   10.988823921
    0.738397329    8.069056554   10.651976041   10.980027472
    0.745575960    8.063275200   10.643453651   10.971161553
    0.752754591    8.057447986   10.634864807   10.962226593
    0.759933222    8.051575174   10.626209923   10.953223028
    0.767111853    8.045657029   10.617489415   10.944151292
    0.774290484    8.039693817   10.608703701   10.935011823
    0.781469115    8.033685805   10.599853202   10.925805059
    0.788647746    8.027633260   10.590938338   10.916531442
    0.795826377    8.021536452   10.581959533   10.907191413
    0.803005008    8.015395651   10.572917213   10.897785418
    0.810183639    8.009211128   10.563811804   10.888313902
    0.817362270    8.002983157   10.554643734   10.878777314
    0.824540902    7.996712010   10.545413433   10.869176101
    0.831719533    7.990397963   10.536121331   10.859510715
    0.838898164    7.984041291   10.526767863   10.849781609
    0.846076795    7.977642271   10.517353461   10.839989235
    0.853255426    7.971201180   10.507878560   10.830134049
    0.860434057    7.964718297   10.498343598   10.820216506
    0.867612688    7.958193901   10.488749012   10.810237066
    0.874791319    7.951628273   10.479095241   10.800196185
    0.881969950    7.945021693   10.469382726   10.790094324
    0.889148581    7.938374445   10.459611907   10.779931945
    0.896327212    7.931686809   10.449783226   10.769709509
    0.903505843    7.924959071   10.439897127   10.759427480
    0.910684474    7.918191513   10.429954054   10.749086322
    0.917863105    7.911384422   10.419954452   10.738686499
    0.925041736    7.904538082   10.409898768   10.728228478
    0.932220367    7.897652780   10.399787447   10.717712726
    0.939398998    7.890728802   10.389620937   10.707139711
    0.946577629    7.883766437   10.379399687   10.696509900
    0.953756260    7.876765971   10.369124146   10.685823763
    0.960934891    7.869727695   10.358794764   10.675081770
    0.968113523    7.862651896   10.348411990   10.664284391
    0.975292154    7.855538864   10.337976275   10.653432096
    0.982470785    7.848388889   10.327488071   10.642525358
    0.989649416    7.841202262   10.316947829   10.631564649
    0.996828047    7.833979273   10.306356003   10.620550440
    1.004006678    7.826720215   10.295713043   10.609483205
    1.011185309    7.819425377   10.285019404   10.598363417
    1.018363940    7.812095053   10.274275538   10.587191548
    1.025542571    7.804729534   10.263481899   10.575968074
    1.032721202    7.797329113   10.252638941   10.564693467
    1.039899833    7.789894082   10.241747118   10.553368202
    1.047078464    7.782424735   10.230806884   10.541992753
    1.054257095    7.774921365   10.219818692   10.530567594
    1.061435726    7.767384265   10.208782998   10.519093200
    1.068614357    7.759813728   10.197700255   10.507570045
    1.075792988    7.752210049   10.186570918   10.495998604
    1.082971619    7.744573521   10.175395441   10.484379350
    1.090150250    7.736904438   10.164174278   10.472712757
    1.097328881    7.729203093   10.152907884   10.460999301
    1.104507513    7.721469781   10.141596711   10.449239454
    1.111686144    7.713704795   10.130241213   10.437433691
    1.118864775    7.705908430   10.118841844   10.425582483
    1.126043406    7.698080979   10.107399058   10.413686306
    1.133222037    7.690222736   10.095913306   10.401745630
    1.140400668    7.682333995   10.084385041   10.389760929
    1.147579299    7.674415050   10.072814715   10.377732674
    1.154757930    7.666466193   10.061202780   10.365661337
    1.161936561    7.658487719   10.049549686   10.353547388
    1.169115192    7.650479920   10.037855886   10.341391298
    1.176293823    7.642443090   10.026121828   10.329193537
    1.183472454    7.634377521   10.014347962   10.316954573
    1.190651085    7.626283505   10.002534738   10.304674876
    1.197829716    7.618161336    9.990682603   10.292354913
    1.205008347    7.610011305    9.978792006   10.279995152
    1.212186978    7.601833704    9.966863392   10.267596059
    1.219365609    7.593628823    9.954897210   10.255158099
    1.226544240    7.585396955    9.942893904   10.242681738
    1.233722871    7.577138390    9.930853918   10.230167439
    1.240901503    7.568853418    9.918777697   10.217615665
    1.248080134    7.560542329    9.906665685   10.205026880
    1.255258765    7.552205413    9.894518322   10.192401543
    1.262437396    7.543842958    9.882336051   10.179740116
    1.269616027    7.535455254    9.870119311   10.167043058
    1.276794658    7.527042588    9.857868543   10.154310828
    1.283973289    7.518605247    9.845584184   10.141543881
    1.291151920    7.510143520    9.833266673   10.128742676
    1.298330551    7.501657693    9.820916444   10.115907666
    1.305509182    7.493148051    9.808533934   10.103039306
    1.312687813    7.484614881    9.796119577   10.090138048
    1.319866444    7.476058466    9.783673806   10.077204344
    1.327045075    7.467479092    9.771197052   10.064238644
    1.334223706    7.458877042    9.758689747   10.051241398
    1.341402337    7.450252599    9.746152319   10.038213054
    1.348580968    7.441606045    9.733585198   10.025154057
    1.355759599    7.432937663    9.720988809   10.012064853
    1.362938230    7.424247733    9.708363579    9.998945886
    1.370116861    7.415536535    9.695709933    9.985797598
    1.377295492    7.406804349    9.683028293    9.972620430
    1.384474124    7.398051455    9.670319080    9.959414822
    1.391652755    7.389278129    9.657582717    9.946181213
    1.398831386    7.380484651    9.644819620    9.932920038
    1.406010017    7.371671295    9.632030209    9.919631733
    1.413188648    7.362838338    9.619214898    9.906316732
    1.420367279    7.353986055    9.606374103    9.892975467
    1.427545910    7.345114721    9.593508237    9.879608368
    1.434724541    7.336224608    9.580617712    9.866215864
    1.441903172    7.327315989    9.567702937    9.852798383
    1.449081803    7.318389136    9.554764322    9.839356351
    1.456260434    7.309444319    9.541802273    9.825890191
    1.463439065    7.300481809    9.528817196    9.812400327
    1.470617696    7.291501874    9.515809494    9.798887178
    1.477796327    7.282504783    9.502779571    9.785351164
    1.484974958    7.273490803    9.489727826    9.771792703
    1.492153589    7.264460199    9.476654659    9.758212210
    1.499332220    7.255413238    9.463560467    9.744610098
    1.506510851    7.246350184    9.450445646    9.730986781
    1.513689482    7.237271299    9.437310589    9.717342667
    1.520868114    7.228176847    9.424155689    9.703678167
    1.528046745    7.219067088    9.410981337    9.689993685
    1.535225376    7.209942284    9.397787920    9.676289628
    1.542404007    7.200802693    9.384575827    9.662566398
    1.549582638    7.191648574    9.371345442    9.648824397
    1.556761269    7.182480184    9.358097148    9.635064023
    1.563939900    7.173297780    9.344831329    9.621285674
    1.571118531    7.164101616    9.331548362    9.607489746
    1.578297162    7.154891948    9.318248627    9.593676631
    1.585475793    7.145669027    9.304932499    9.579846722
    1.592654424    7.136433106    9.291600353    9.566000408
    1.599833055    7.127184437    9.278252561    9.552138076
    1.607011686    7.117923268    9.264889494    9.538260114
    1.614190317    7.108649848    9.251511520    9.524366903
    1.621368948    7.099364426    9.238119007    9.510458826
    1.628547579    7.090067247    9.224712318    9.496536263
    1.635726210    7.080758558    9.211291818    9.482599592
    1.642904841    7.071438601    9.197857867    9.468649187
    1.650083472    7.062107621    9.184410825    9.454685424
    1.657262104    7.052765859    9.170951048    9.440708672
    1.664440735    7.043413556    9.157478891    9.426719302
    1.671619366    7.034050951    9.143994709    9.412717682
    1.678797997    7.024678283    9.130498851    9.398704176
    1.685976628    7.015295790    9.116991668    9.384679149
    1.693155259    7.005903707    9.103473507    9.370642960
    1.700333890    6.996502269    9.089944713    9.356595971
    1.707512521    6.987091710    9.076405629    9.342538536
    1.714691152    6.977672262    9.062856597    9.328471012
    1.721869783    6.968244157    9.049297956    9.314393752
    1.729048414    6.958807624    9.035730043    9.300307105
    1.736227045    6.949362893    9.022153193    9.286211421
    1.743405676    6.939910190    9.008567740    9.272107046
    1.750584307    6.930449744    8.994974015    9.257994324
    1.757762938    6.920981777    8.981372347    9.243873597
    1.764941569    6.911506515    8.967763063    9.229745206
    1.772120200    6.902024180    8.954146489    9.215609488
    1.779298831    6.892534994    8.940522946    9.201466780
    1.786477462    6.883039177    8.926892756    9.187317413
    1.793656093    6.873536947    8.913256238    9.173161721
    1.800834725    6.864028522    8.899613708    9.159000031
    1.808013356    6.854514119    8.885965482    9.144832672
    1.815191987    6.844993952    8.872311871    9.130659968
    1.822370618    6.835468236    8.858653187    9.116482241
    1.829549249    6.825937184    8.844989738    9.102299813
    1.836727880    6.816401006    8.831321831    9.088113001
    1.843906511    6.806859912    8.817649769    9.073922121
    1.851085142    6.797314112    8.803973855    9.059727488
    1.858263773    6.787763813    8.790294389    9.045529414
    1.865442404    6.778209221    8.776611669    9.031328207
    1.872621035    6.768650540    8.762925991    9.017124176
    1.879799666    6.759087976    8.749237649    9.002917625
    1.886978297    6.749521729    8.735546935    8.988708858
    1.894156928    6.739952001    8.721854139    8.974498175
    1.901335559    6.730378992    8.708159547    8.960285875
    1.908514190    6.720802900    8.694463447    8.946072254
    1.915692821    6.711223922    8.680766120    8.931857607
    1.922871452    6.701642255    8.667067849    8.917642226
    1.930050083    6.692058093    8.653368913    8.903426401
    1.937228715    6.682471628    8.639669588    8.889210419
    1.944407346    6.672883054    8.625970151    8.874994566
    1.951585977    6.663292561    8.612270874    8.860779125
    1.958764608    6.653700338    8.598572028    8.846564377
    1.965943239    6.644106573    8.584873881    8.832350602
    1.973121870    6.634511454    8.571176702    8.818138077
    1.980300501    6.624915165    8.557480754    8.803927075
    1.987479132    6.615317891    8.543786299    8.789717869
    1.994657763    6.605719815    8.530093600    8.775510730
    2.001836394    6.596121118    8.516402913    8.761305926
    2.009015025    6.586521981    8.502714496    8.747103723
    2.016193656    6.576922583    8.489028603    8.732904384
    2.023372287    6.567323101    8.475345487    8.718708171
    2.030550918    6.557723712    8.461665397    8.704515345
    2.037729549    6.548124592    8.447988581    8.690326161
    2.044908180    6.538525913    8.434315287    8.676140876
    2.052086811    6.528927849    8.420645757    8.661959743
    2.059265442    6.519330571    8.406980235    8.647783012
    2.066444073    6.509734248    8.393318959    8.633610932
    2.073622705    6.500139050    8.379662169    8.619443750
    2.080801336    6.490545145    8.366010101    8.605281711
    2.087979967    6.480952697    8.352362987    8.591125058
    2.095158598    6.471361872    8.338721061    8.576974029
    2.102337229    6.461772833    8.325084551    8.562828865
    2.109515860    6.452185744    8.311453687    8.548689800
    2.116694491    6.442600764    8.297828693    8.534557069
    2.123873122    6.433018054    8.284209795    8.520430905
    2.131051753    6.423437773    8.270597213    8.506311536
    2.138230384    6.413860076    8.256991168    8.492199192
    2.145409015    6.404285121    8.243391879    8.478094096
    2.152587646    6.394713062    8.229799560    8.463996474
    2.159766277    6.385144052    8.216214425    8.449906547
    2.166944908    6.375578244    8.202636688    8.435824535
    2.174123539    6.366015788    8.189066558    8.421750655
    2.181302170    6.356456835    8.175504244    8.407685122
    2.188480801    6.346901532    8.161949951    8.393628151
    2.195659432    6.337350028    8.148403884    8.379579952
    2.202838063    6.327802467    8.134866245    8.365540735
    2.210016694    6.318258994    8.121337235    8.351510708
    2.217195326    6.308719754    8.107817052    8.337490076
    2.224373957    6.299184887    8.094305894    8.323479042
    2.231552588    6.289654536    8.080803954    8.309477809
    2.238731219    6.280128840    8.067311425    8.295486575
    2.245909850    6.270607937    8.053828499    8.281505537
    2.253088481    6.261091965    8.040355365    8.267534893
    2.260267112    6.251581060    8.026892209    8.253574835
    2.267445743    6.242075358    8.013439218    8.239625554
    2.274624374    6.232574990    7.999996574    8.225687242
    2.281803005    6.223080091    7.986564460    8.211760084
    2.288981636    6.213590792    7.973143055    8.197844269
    2.296160267    6.204107222    7.959732536    8.183939978
    2.303338898    6.194629510    7.946333081    8.170047395
    2.310517529    6.185157785    7.932944864    8.156166699
    2.317696160    6.175692172    7.919568056    8.142298069
    2.324874791    6.166232798    7.906202829    8.128441682
    2.332053422    6.156779786    7.892849352    8.114597711
    2.339232053    6.147333260    7.879507792    8.100766329
    2.346410684    6.137893341    7.866178313    8.086947708
    2.353589316    6.128460150    7.852861081    8.073142016
    2.360767947    6.119033806    7.839556256    8.059349420
    2.367946578    6.109614429    7.826263998    8.045570086
    2.375125209    6.100202134    7.812984467    8.031804177
    2.382303840    6.090797039    7.799717818    8.018051855
    2.389482471    6.081399259    7.786464207    8.004313279
    2.396661102    6.072008906    7.773223786    7.990588608
    2.403839733    6.062626095    7.759996707    7.976877999
    2.411018364    6.053250936    7.746783120    7.963181604
    2.418196995    6.043883539    7.733583172    7.949499579
    2.425375626    6.034524016    7.720397011    7.935832072
    2.432554257    6.025172473    7.707224781    7.922179234
    2.439732888    6.015829017    7.694066624    7.908541213
    2.446911519    6.006493755    7.680922683    7.894918153
    2.454090150    5.997166793    7.667793097    7.881310200
    2.461268781    5.987848232    7.654678003    7.867717495
    2.468447412    5.978538177    7.641577540    7.854140179
    2.475626043    5.969236730    7.628491840    7.840578391
    2.482804674    5.959943990    7.615421038    7.827032268
    2.489983306    5.950660057    7.602365266    7.813501947
    2.497161937    5.941385030    7.589324652    7.799987561
    2.504340568    5.932119006    7.576299326    7.786489242
    2.511519199    5.922862082    7.563289415    7.773007121
    2.518697830    5.913614353    7.550295043    7.759541328
    2.525876461    5.904375913    7.537316336    7.746091989
    2.533055092    5.895146856    7.524353413    7.732659230
    2.540233723    5.885927273    7.511406397    7.719243177
