# energy grid [eV]     ieps_x  ieps_y  ieps_z
#
    0.200000000   13.468085651   11.597987940   13.468704822
    0.207178631   13.464668445   11.595235178   13.465268618
    0.214357262   13.461132813   11.592386942   13.461713344
    0.221535893   13.457478968   11.589443394   13.458039214
    0.228714524   13.453707129   11.586404704   13.454246450
    0.235893155   13.449817524   11.583271045   13.450335283
    0.243071786   13.445810384   11.580042597   13.446305946
    0.250250417   13.441685950   11.576719545   13.442158685
    0.257429048   13.437444470   11.573302078   13.437893748
    0.264607679   13.433086197   11.569790393   13.433511392
    0.271786311   13.428611390   11.566184688   13.429011881
    0.278964942   13.424020317   11.562485169   13.424395484
    0.286143573   13.419313252   11.558692047   13.419662478
    0.293322204   13.414490474   11.554805538   13.414813146
    0.300500835   13.409552270   11.550825861   13.409847779
    0.307679466   13.404498932   11.546753243   13.404766673
    0.314858097   13.399330762   11.542587914   13.399570131
    0.322036728   13.394048063   11.538330109   13.394258463
    0.329215359   13.388651149   11.533980069   13.388831983
    0.336393990   13.383140338   11.529538039   13.383291015
    0.343572621   13.377515954   11.525004269   13.377635886
    0.350751252   13.371778329   11.520379013   13.371866932
    0.357929883   13.365927800   11.515662532   13.365984494
    0.365108514   13.359964709   11.510855090   13.359988918
    0.372287145   13.353889406   11.505956956   13.353880558
    0.379465776   13.347702246   11.500968402   13.347659773
    0.386644407   13.341403590   11.495889709   13.341326928
    0.393823038   13.334993805   11.490721158   13.334882395
    0.401001669   13.328473264   11.485463036   13.328326551
    0.408180301   13.321842345   11.480115636   13.321659778
    0.415358932   13.315101432   11.474679254   13.314882465
    0.422537563   13.308250917   11.469154190   13.307995007
    0.429716194   13.301291193   11.463540750   13.300997803
    0.436894825   13.294222663   11.457839242   13.293891260
    0.444073456   13.287045732   11.452049980   13.286675788
    0.451252087   13.279760813   11.446173283   13.279351805
    0.458430718   13.272368323   11.440209471   13.271919731
    0.465609349   13.264868685   11.434158872   13.264379996
    0.472787980   13.257262327   11.428021815   13.256733031
    0.479966611   13.249549682   11.421798634   13.248979274
    0.487145242   13.241731187   11.415489669   13.241119169
    0.494323873   13.233807287   11.409095260   13.233153163
    0.501502504   13.225778430   11.402615755   13.225081711
    0.508681135   13.217645069   11.396051503   13.216905270
    0.515859766   13.209407661   11.389402858   13.208624304
    0.523038397   13.201066671   11.382670177   13.200239280
    0.530217028   13.192622565   11.375853823   13.191750672
    0.537395659   13.184075816   11.368954159   13.183158957
    0.544574290   13.175426900   11.361971554   13.174464617
    0.551752922   13.166676300   11.354906381   13.165668139
    0.558931553   13.157824502   11.347759015   13.156770014
    0.566110184   13.148871995   11.340529835   13.147770738
    0.573288815   13.139819274   11.333219224   13.138670811
    0.580467446   13.130666839   11.325827568   13.129470738
    0.587646077   13.121415193   11.318355256   13.120171027
    0.594824708   13.112064842   11.310802680   13.110772191
    0.602003339   13.102616299   11.303170236   13.101274747
    0.609181970   13.093070079   11.295458324   13.091679216
    0.616360601   13.083426702   11.287667344   13.081986123
    0.623539232   13.073686690   11.279797703   13.072195996
    0.630717863   13.063850570   11.271849808   13.062309369
    0.637896494   13.053918874   11.263824071   13.052326778
    0.645075125   13.043892136   11.255720905   13.042248763
    0.652253756   13.033770894   11.247540727   13.032075867
    0.659432387   13.023555689   11.239283957   13.021808639
    0.666611018   13.013247067   11.230951017   13.011447627
    0.673789649   13.002845575   11.222542332   13.000993388
    0.680968280   12.992351767   11.214058330   12.990446478
    0.688146912   12.981766196   11.205499442   12.979807457
    0.695325543   12.971089421   11.196866100   12.969076891
    0.702504174   12.960322002   11.188158739   12.958255345
    0.709682805   12.949464505   11.179377798   12.947343390
    0.716861436   12.938517497   11.170523716   12.936341599
    0.724040067   12.927481547   11.161596936   12.925250548
    0.731218698   12.916357228   11.152597903   12.914070815
    0.738397329   12.905145117   11.143527064   12.902802982
    0.745575960   12.893845792   11.134384868   12.891447634
    0.752754591   12.882459832   11.125171767   12.880005356
    0.759933222   12.870987823   11.115888213   12.868476739
    0.767111853   12.859430350   11.106534662   12.856862374
    0.774290484   12.847788002   11.097111572   12.845162855
    0.781469115   12.836061368   11.087619401   12.833378779
    0.788647746   12.824251043   11.078058612   12.821510745
    0.795826377   12.812357621   11.068429666   12.809559354
    0.803005008   12.800381700   11.058733028   12.797525208
    0.810183639   12.788323878   11.048969165   12.785408914
    0.817362270   12.776184757   11.039138545   12.773211077
    0.824540902   12.763964941   11.029241638   12.760932308
    0.831719533   12.751665034   11.019278914   12.748573216
    0.838898164   12.739285644   11.009250846   12.736134416
    0.846076795   12.726827378   10.999157909   12.723616520
    0.853255426   12.714290848   10.989000577   12.711020145
    0.860434057   12.701676664   10.978779328   12.698345908
    0.867612688   12.688985440   10.968494640   12.685594429
    0.874791319   12.676217790   10.958146991   12.672766328
    0.881969950   12.663374332   10.947736863   12.659862226
    0.889148581   12.650455681   10.937264738   12.646882747
    0.896327212   12.637462458   10.926731097   12.633828516
    0.903505843   12.624395280   10.916136424   12.620700156
    0.910684474   12.611254770   10.905481205   12.607498296
    0.917863105   12.598041549   10.894765925   12.594223562
    0.925041736   12.584756241   10.883991070   12.580876584
    0.932220367   12.571399468   10.873157128   12.567457990
    0.939398998   12.557971855   10.862264588   12.553968411
    0.946577629   12.544474029   10.851313937   12.540408477
    0.953756260   12.530906614   10.840305665   12.526778821
    0.960934891   12.517270238   10.829240264   12.513080075
    0.968113523   12.503565529   10.818118223   12.499312871
    0.975292154   12.489793113   10.806940034   12.485477843
    0.982470785   12.475953620   10.795706188   12.471575625
    0.989649416   12.462047678   10.784417179   12.457606851
    0.996828047   12.448075916   10.773073498   12.443572156
    1.004006678   12.434038964   10.761675639   12.429472174
    1.011185309   12.419937451   10.750224096   12.415307540
    1.018363940   12.405772007   10.738719361   12.401078889
    1.025542571   12.391543263   10.727161929   12.386786857
    1.032721202   12.377251846   10.715552293   12.372432079
    1.039899833   12.362898389   10.703890948   12.358015190
    1.047078464   12.348483520   10.692178388   12.343536825
    1.054257095   12.334007869   10.680415107   12.328997618
    1.061435726   12.319472067   10.668601600   12.314398206
    1.068614357   12.304876741   10.656738361   12.299739221
    1.075792988   12.290222521   10.644825884   12.285021298
    1.082971619   12.275510036   10.632864662   12.270245071
    1.090150250   12.260739914   10.620855190   12.255411173
    1.097328881   12.245912782   10.608797962   12.240520236
    1.104507513   12.231029268   10.596693470   12.225572894
    1.111686144   12.216089999   10.584542207   12.210569777
    1.118864775   12.201095601   10.572344667   12.195511517
    1.126043406   12.186046698   10.560101342   12.180398743
    1.133222037   12.170943917   10.547812724   12.165232086
    1.140400668   12.155787879   10.535479303   12.150012173
    1.147579299   12.140579210   10.523101572   12.134739634
    1.154757930   12.125318530   10.510680020   12.119415094
    1.161936561   12.110006461   10.498215137   12.104039179
    1.169115192   12.094643624   10.485707413   12.088612515
    1.176293823   12.079230637   10.473157336   12.073135725
    1.183472454   12.063768119   10.460565394   12.057609432
    1.190651085   12.048256688   10.447932074   12.042034258
    1.197829716   12.032696958   10.435257863   12.026410824
    1.205008347   12.017089544   10.422543245   12.010739747
    1.212186978   12.001435061   10.409788707   11.995021647
    1.219365609   11.985734120   10.396994731   11.979257139
    1.226544240   11.969987332   10.384161802   11.963446839
    1.233722871   11.954195306   10.371290400   11.947591361
    1.240901503   11.938358651   10.358381007   11.931691317
    1.248080134   11.922477974   10.345434104   11.915747317
    1.255258765   11.906553878   10.332450169   11.899759971
    1.262437396   11.890586969   10.319429680   11.883729887
    1.269616027   11.874577847   10.306373114   11.867657670
    1.276794658   11.858527113   10.293280947   11.851543925
    1.283973289   11.842435365   10.280153654   11.835389255
    1.291151920   11.826303201   10.266991708   11.819194259
    1.298330551   11.810131216   10.253795581   11.802959538
    1.305509182   11.793920002   10.240565744   11.786685689
    1.312687813   11.777670153   10.227302668   11.770373306
    1.319866444   11.761382256   10.214006819   11.754022984
    1.327045075   11.745056901   10.200678666   11.737635315
    1.334223706   11.728694673   10.187318675   11.721210886
    1.341402337   11.712296156   10.173927308   11.704750287
    1.348580968   11.695861932   10.160505030   11.688254103
    1.355759599   11.679392581   10.147052302   11.671722917
    1.362938230   11.662888680   10.133569583   11.655157311
    1.370116861   11.646350807   10.120057333   11.638557864
    1.377295492   11.629779533   10.106516007   11.621925153
    1.384474124   11.613175432   10.092946062   11.605259752
    1.391652755   11.596539071   10.079347952   11.588562236
    1.398831386   11.579871019   10.065722128   11.571833173
    1.406010017   11.563171840   10.052069042   11.555073133
    1.413188648   11.546442096   10.038389142   11.538282680
    1.420367279   11.529682349   10.024682876   11.521462379
    1.427545910   11.512893156   10.010950689   11.504612791
    1.434724541   11.496075073    9.997193025   11.487734474
    1.441903172   11.479228652    9.983410327   11.470827985
    1.449081803   11.462354446    9.969603035   11.453893878
    1.456260434   11.445453002    9.955771587   11.436932703
    1.463439065   11.428524866    9.941916421   11.419945010
    1.470617696   11.411570582    9.928037972   11.402931346
    1.477796327   11.394590691    9.914136673   11.385892254
    1.484974958   11.377585732    9.900212956   11.368828275
    1.492153589   11.360556240    9.886267249   11.351739949
    1.499332220   11.343502749    9.872299982   11.334627810
    1.506510851   11.326425790    9.858311579   11.317492394
    1.513689482   11.309325891    9.844302465   11.300334230
    1.520868114   11.292203578    9.830273061   11.283153847
    1.528046745   11.275059373    9.816223787   11.265951771
    1.535225376   11.257893797    9.802155062   11.248728524
    1.542404007   11.240707368    9.788067302   11.231484626
    1.549582638   11.223500600    9.773960921   11.214220594
    1.556761269   11.206274006    9.759836330   11.196936944
    1.563939900   11.189028095    9.745693941   11.179634186
    1.571118531   11.171763375    9.731534160   11.162312831
    1.578297162   11.154480348    9.717357394   11.144973384
    1.585475793   11.137179517    9.703164047   11.127616349
    1.592654424   11.119861379    9.688954521   11.110242226
    1.599833055   11.102526431    9.674729215   11.092851513
    1.607011686   11.085175165    9.660488527   11.075444705
    1.614190317   11.067808071    9.646232852   11.058022294
    1.621368948   11.050425636    9.631962585   11.040584769
    1.628547579   11.033028345    9.617678116   11.023132616
    1.635726210   11.015616679    9.603379834   11.005666319
    1.642904841   10.998191117    9.589068127   10.988186358
    1.650083472   10.980752134    9.574743379   10.970693210
    1.657262104   10.963300203    9.560405973   10.953187351
    1.664440735   10.945835793    9.546056290   10.935669251
    1.671619366   10.928359373    9.531694707   10.918139380
    1.678797997   10.910871405    9.517321600   10.900598202
    1.685976628   10.893372351    9.502937345   10.883046182
    1.693155259   10.875862669    9.488542312   10.865483777
    1.700333890   10.858342815    9.474136871   10.847911446
    1.707512521   10.840813240    9.459721388   10.830329642
    1.714691152   10.823274393    9.445296230   10.812738816
    1.721869783   10.805726721    9.430861759   10.795139415
    1.729048414   10.788170668    9.416418335   10.777531885
    1.736227045   10.770606673    9.401966316   10.759916666
    1.743405676   10.753035175    9.387506059   10.742294198
    1.750584307   10.735456606    9.373037917   10.724664916
    1.757762938   10.717871400    9.358562242   10.707029253
    1.764941569   10.700279983    9.344079383   10.689387639
    1.772120200   10.682682782    9.329589687   10.671740499
    1.779298831   10.665080219    9.315093499   10.654088259
    1.786477462   10.647472713    9.300591160   10.636431337
    1.793656093   10.629860681    9.286083011   10.618770152
    1.800834725   10.612244535    9.271569390   10.601105118
    1.808013356   10.594624687    9.257050633   10.583436647
    1.815191987   10.577001543    9.242527072   10.565765146
    1.822370618   10.559375508    9.227999038   10.548091021
    1.829549249   10.541746983    9.213466861   10.530414674
    1.836727880   10.524116366    9.198930866   10.512736504
    1.843906511   10.506484053    9.184391377   10.495056908
    1.851085142   10.488850436    9.169848717   10.477376278
    1.858263773   10.471215904    9.155303204   10.459695005
    1.865442404   10.453580844    9.140755155   10.442013476
    1.872621035   10.435945638    9.126204886   10.424332073
    1.879799666   10.418310666    9.111652710   10.406651180
    1.886978297   10.400676307    9.097098935   10.388971172
    1.894156928   10.383042934    9.082543870   10.371292426
    1.901335559   10.365410918    9.067987822   10.353615313
    1.908514190   10.347780627    9.053431092   10.335940202
    1.915692821   10.330152428    9.038873982   10.318267458
    1.922871452   10.312526681    9.024316791   10.300597444
    1.930050083   10.294903747    9.009759816   10.282930520
    1.937228715   10.277283981    8.995203350   10.265267043
    1.944407346   10.259667736    8.980647684   10.247607367
    1.951585977   10.242055364    8.966093110   10.229951841
    1.958764608   10.224447210    8.951539914   10.212300815
    1.965943239   10.206843621    8.936988380   10.194654632
    1.973121870   10.189244936    8.922438793   10.177013635
    1.980300501   10.171651496    8.907891431   10.159378162
    1.987479132   10.154063634    8.893346574   10.141748548
    1.994657763   10.136481683    8.878804497   10.124125128
    2.001836394   10.118905974    8.864265474   10.106508230
    2.009015025   10.101336833    8.849729776   10.088898182
    2.016193656   10.083774584    8.835197672   10.071295307
    2.023372287   10.066219547    8.820669429   10.053699927
    2.030550918   10.048672041    8.806145312   10.036112360
    2.037729549   10.031132381    8.791625583   10.018532921
    2.044908180   10.013600879    8.777110503   10.000961922
    2.052086811    9.996077844    8.762600328    9.983399673
    2.059265442    9.978563582    8.748095314    9.965846480
    2.066444073    9.961058398    8.733595716    9.948302647
    2.073622705    9.943562592    8.719101785    9.930768475
    2.080801336    9.926076462    8.704613768    9.913244261
    2.087979967    9.908600303    8.690131914    9.895730300
    2.095158598    9.891134407    8.675656466    9.878226885
    2.102337229    9.873679064    8.661187667    9.860734305
    2.109515860    9.856234560    8.646725757    9.843252846
    2.116694491    9.838801178    8.632270975    9.825782793
    2.123873122    9.821379201    8.617823556    9.808324425
    2.131051753    9.803968906    8.603383733    9.790878022
    2.138230384    9.786570569    8.588951739    9.773443858
    2.145409015    9.769184462    8.574527802    9.756022205
    2.152587646    9.751810856    8.560112151    9.738613334
    2.159766277    9.734450017    8.545705009    9.721217512
    2.166944908    9.717102210    8.531306599    9.703835003
    2.174123539    9.699767697    8.516917144    9.686466068
    2.181302170    9.682446737    8.502536860    9.669110966
    2.188480801    9.665139587    8.488165966    9.651769953
    2.195659432    9.647846499    8.473804675    9.634443283
    2.202838063    9.630567726    8.459453199    9.617131206
    2.210016694    9.613303515    8.445111749    9.599833970
    2.217195326    9.596054112    8.430780534    9.582551820
    2.224373957    9.578819761    8.416459759    9.565285000
    2.231552588    9.561600701    8.402149628    9.548033750
    2.238731219    9.544397171    8.387850343    9.530798306
    2.245909850    9.527209405    8.373562105    9.513578904
    2.253088481    9.510037638    8.359285111    9.496375775
    2.260267112    9.492882098    8.345019557    9.479189150
    2.267445743    9.475743013    8.330765637    9.462019256
    2.274624374    9.458620608    8.316523543    9.444866316
    2.281803005    9.441515106    8.302293465    9.427730554
    2.288981636    9.424426727    8.288075590    9.410612188
    2.296160267    9.407355688    8.273870105    9.393511435
    2.303338898    9.390302204    8.259677193    9.376428509
    2.310517529    9.373266487    8.245497037    9.359363623
    2.317696160    9.356248747    8.231329815    9.342316986
    2.324874791    9.339249192    8.217175707    9.325288804
    2.332053422    9.322268028    8.203034889    9.308279283
    2.339232053    9.305305456    8.188907533    9.291288624
    2.346410684    9.288361676    8.174793814    9.274317026
    2.353589316    9.271436887    8.160693901    9.257364688
    2.360767947    9.254531285    8.146607962    9.240431803
    2.367946578    9.237645061    8.132536164    9.223518564
    2.375125209    9.220778407    8.118478673    9.206625161
    2.382303840    9.203931511    8.104435649    9.189751782
    2.389482471    9.187104559    8.090407255    9.172898612
    2.396661102    9.170297734    8.076393650    9.156065833
    2.403839733    9.153511219    8.062394990    9.139253627
    2.411018364    9.136745191    8.048411431    9.122462172
    2.418196995    9.119999829    8.034443127    9.105691643
    2.425375626    9.103275306    8.020490230    9.088942215
    2.432554257    9.086571794    8.006552888    9.072214059
    2.439732888    9.069889464    7.992631252    9.055507344
    2.446911519    9.053228483    7.978725466    9.038822237
    2.454090150    9.036589016    7.964835676    9.022158903
    2.461268781    9.019971228    7.950962024    9.005517504
    2.468447412    9.003375280    7.937104652    8.988898201
    2.475626043    8.986801329    7.923263698    8.972301153
    2.482804674    8.970249534    7.909439301    8.955726514
    2.489983306    8.953720049    7.895631596    8.939174438
    2.497161937    8.937213026    7.881840717    8.922645079
    2.504340568    8.920728616    7.868066798    8.906138584
    2.511519199    8.904266967    7.854309968    8.889655102
    2.518697830    8.887828225    7.840570358    8.873194778
    2.525876461    8.871412535    7.826848093    8.856757755
    2.533055092    8.855020038    7.813143301    8.840344174
    2.540233723    8.838650876    7.799456105    8.823954175
