# energy grid [eV]     epsr_x  epsr_y  epsr_z
#
    0.200000000    5.619000653   11.708640880   10.309661078
    0.207178631    5.619914937   11.710969404   10.311815746
    0.214357262    5.620862050   11.713381441   10.314047726
    0.221535893    5.621842055   11.715877141   10.316357161
    0.228714524    5.622855017   11.718456660   10.318744197
    0.235893155    5.623901004   11.721120158   10.321208987
    0.243071786    5.624980087   11.723867803   10.323751687
    0.250250417    5.626092338   11.726699767   10.326372461
    0.257429048    5.627237834   11.729616229   10.329071478
    0.264607679    5.628416653   11.732617375   10.331848911
    0.271786311    5.629628874   11.735703394   10.334704939
    0.278964942    5.630874583   11.738874485   10.337639748
    0.286143573    5.632153865   11.742130851   10.340653530
    0.293322204    5.633466810   11.745472701   10.343746479
    0.300500835    5.634813509   11.748900253   10.346918800
    0.307679466    5.636194058   11.752413729   10.350170701
    0.314858097    5.637608554   11.756013359   10.353502395
    0.322036728    5.639057099   11.759699379   10.356914105
    0.329215359    5.640539796   11.763472034   10.360406056
    0.336393990    5.642056752   11.767331574   10.363978482
    0.343572621    5.643608078   11.771278257   10.367631621
    0.350751252    5.645193889   11.775312348   10.371365721
    0.357929883    5.646814299   11.779434120   10.375181034
    0.365108514    5.648469432   11.783643854   10.379077818
    0.372287145    5.650159409   11.787941839   10.383056340
    0.379465776    5.651884360   11.792328369   10.387116872
    0.386644407    5.653644415   11.796803751   10.391259695
    0.393823038    5.655439711   11.801368298   10.395485096
    0.401001669    5.657270385   11.806022331   10.399793370
    0.408180301    5.659136581   11.810766180   10.404184817
    0.415358932    5.661038448   11.815600186   10.408659749
    0.422537563    5.662976135   11.820524697   10.413218481
    0.429716194    5.664949801   11.825540073   10.417861340
    0.436894825    5.666959604   11.830646681   10.422588659
    0.444073456    5.669005711   11.835844900   10.427400780
    0.451252087    5.671088291   11.841135120   10.432298053
    0.458430718    5.673207521   11.846517739   10.437280837
    0.465609349    5.675363580   11.851993170   10.442349499
    0.472787980    5.677556654   11.857561834   10.447504418
    0.479966611    5.679786934   11.863224166   10.452745980
    0.487145242    5.682054618   11.868980612   10.458074581
    0.494323873    5.684359908   11.874831633   10.463490627
    0.501502504    5.686703015   11.880777699   10.468994534
    0.508681135    5.689084153   11.886819299   10.474586731
    0.515859766    5.691503546   11.892956932   10.480267654
    0.523038397    5.693961423   11.899191113   10.486037754
    0.530217028    5.696458021   11.905522373   10.491897491
    0.537395659    5.698993584   11.911951259   10.497847337
    0.544574290    5.701568365   11.918478334   10.503887778
    0.551752922    5.704182625   11.925104180   10.510019314
    0.558931553    5.706836634   11.931829395   10.516242454
    0.566110184    5.709530671   11.938654599   10.522557724
    0.573288815    5.712265024   11.945580429   10.528965666
    0.580467446    5.715039992   11.952607544   10.535466833
    0.587646077    5.717855884   11.959736627   10.542061796
    0.594824708    5.720713021   11.966968383   10.548751143
    0.602003339    5.723611735   11.974303541   10.555535478
    0.609181970    5.726552372   11.981742856   10.562415422
    0.616360601    5.729535290   11.989287111   10.569391616
    0.623539232    5.732560860   11.996937117   10.576464722
    0.630717863    5.735629470   12.004693717   10.583635420
    0.637896494    5.738741522   12.012557785   10.590904412
    0.645075125    5.741897437   12.020530230   10.598272425
    0.652253756    5.745097651   12.028611998   10.605740209
    0.659432387    5.748342621   12.036804074   10.613308539
    0.666611018    5.751632823   12.045107485   10.620978218
    0.673789649    5.754968756   12.053523302   10.628750076
    0.680968280    5.758350941   12.062052644   10.636624977
    0.688146912    5.761779925   12.070696681   10.644603813
    0.695325543    5.765256280   12.079456639   10.652687514
    0.702504174    5.768780607   12.088333804   10.660877047
    0.709682805    5.772353541   12.097329522   10.669173416
    0.716861436    5.775975746   12.106445213   10.677577669
    0.724040067    5.779647925   12.115682369   10.686090901
    0.731218698    5.783370819   12.125042563   10.694714255
    0.738397329    5.787145212   12.134527458   10.703448926
    0.745575960    5.790971934   12.144138811   10.712296168
    0.752754591    5.794851864   12.153878485   10.721257298
    0.759933222    5.798785939   12.163748457   10.730333699
    0.767111853    5.802775154   12.173750830   10.739526829
    0.774290484    5.806820569   12.183887845   10.748838227
    0.781469115    5.810923318   12.194161895   10.758269519
    0.788647746    5.815084615   12.204575540   10.767822431
    0.795826377    5.819305762   12.215131525   10.777498792
    0.803005008    5.823588158   12.225832805   10.787300552
    0.810183639    5.827933311   12.236682559   10.797229791
    0.817362270    5.832342849   12.247684227   10.807288735
    0.824540902    5.836818537   12.258841531   10.817479770
    0.831719533    5.841362287   12.270158517   10.827805466
    0.838898164    5.845976185   12.281639593   10.838268593
    0.846076795    5.850662505   12.293289577   10.848872153
    0.853255426    5.855423739   12.305113748   10.859619404
    0.860434057    5.860262623   12.317117915   10.870513899
    0.867612688    5.865182172   12.329308491   10.881559523
    0.874791319    5.870185723   12.341692579   10.892760544
    0.881969950    5.875276979   12.354278080   10.904121668
    0.889148581    5.880460065   12.367073815   10.915648108
    0.896327212    5.885739597   12.380089675   10.927345660
    0.903505843    5.891120765   12.393336804   10.939220806
    0.910684474    5.896609424   12.406827809   10.951280826
    0.917863105    5.902212218   12.420577033   10.963533943
    0.925041736    5.907936722   12.434600870   10.975989496
    0.932220367    5.913791620   12.448918171   10.988658153
    0.939398998    5.919786926   12.463550736   11.001552180
    0.946577629    5.925934260   12.478523936   11.014685771
    0.953756260    5.932247195   12.493867497   11.028075470
    0.960934891    5.938741699   12.509616499   11.041740708
    0.968113523    5.945436701   12.525812657   11.055704484
    0.975292154    5.952354826   12.542505990   11.069994264
    0.982470785    5.959523359   12.559757004   11.084643144
    0.989649416    5.966975520   12.577639595   11.099691406
    0.996828047    5.974752170   12.596244938   11.115188596
    1.004006678    5.982904138   12.615686776   11.131196348
    1.011185309    5.991495401   12.636108691   11.147792274
    1.018363940    6.000607511   12.657694209   11.165075353
    1.025542571    6.010345808   12.680680991   11.183173518
    1.032721202    6.020848173   12.705380869   11.202254340
    1.039899833    6.032297326   12.732207975   11.222540056
    1.047078464    6.044937614   12.761717184   11.244328076
    1.054257095    6.059095888   12.794651908   11.268016492
    1.061435726    6.075199412   12.831985043   11.294125943
    1.068614357    6.093756613   12.874874573   11.323275967
    1.075792988    6.115159278   12.924209162   11.355942714
    1.082971619    6.138738459   12.978440224   11.391302895
    1.090150250    6.158904478   13.024719091   11.422507534
    1.097328881    6.152700246   13.010319307   11.421442323
    1.104507513    6.072987791   12.826992437   11.330385091
    1.111686144    5.952599680   12.550095734   11.189526251
    1.118864775    5.904269590   12.438431606   11.136883349
    1.126043406    5.912978170   12.457478575   11.154053245
    1.133222037    5.936931929   12.511233751   11.189847720
    1.140400668    5.961633143   12.566353049   11.226494481
    1.147579299    5.984127798   12.615981265   11.260349255
    1.154757930    6.004392476   12.659971582   11.291348117
    1.161936561    6.022979375   12.699471483   11.320121341
    1.169115192    6.040470747   12.735660127   11.347321530
    1.176293823    6.057385178   12.769519058   11.373503391
    1.183472454    6.074191656   12.801844997   11.399133386
    1.190651085    6.091346149   12.833308778   11.424624791
    1.197829716    6.109327071   12.864511839   11.450371445
    1.205008347    6.128646881   12.896018253   11.476764048
    1.212186978    6.149759285   12.928304454   11.504139751
    1.219365609    6.172536924   12.961392522   11.532465903
    1.226544240    6.194046222   12.993244940   11.559976050
    1.233722871    6.200689963   13.014072086   11.578344023
    1.240901503    6.156974212   12.998189804   11.565783068
    1.248080134    6.062670109   12.945479527   11.522172351
    1.255258765    6.011250736   12.923772310   11.504966639
    1.262437396    6.014196505   12.941427183   11.521234771
    1.269616027    6.034616900   12.971716850   11.548320350
    1.276794658    6.056845179   13.003302661   11.576607269
    1.283973289    6.077281436   13.033594304   11.603893216
    1.291151920    6.095595895   13.062370583   11.629984458
    1.298330551    6.112138332   13.089901104   11.655104182
    1.305509182    6.127314440   13.116494390   11.679509459
    1.312687813    6.141459638   13.142406704   11.703413857
    1.319866444    6.154830839   13.167836364   11.726982529
    1.327045075    6.167621857   13.192935166   11.750341808
    1.334223706    6.179979850   13.217820535   11.773589449
    1.341402337    6.192018349   13.242585177   11.796802772
    1.348580968    6.203826804   13.267304200   11.820044675
    1.355759599    6.215477465   13.292040307   11.843368030
    1.362938230    6.227030364   13.316847627   11.866818952
    1.370116861    6.238537011   13.341774635   11.890439311
    1.377295492    6.250043237   13.366866493   11.914268782
    1.384474124    6.261591492   13.392167065   11.938346659
    1.391652755    6.273222855   13.417720805   11.962713595
    1.398831386    6.284978936   13.443574698   11.987413466
    1.406010017    6.296903874   13.469780456   12.012495527
    1.413188648    6.309046628   13.496397191   12.038017097
    1.420367279    6.321463812   13.523494859   12.064047079
    1.427545910    6.334223394   13.551158893   12.090670740
    1.434724541    6.347409689   13.579496536   12.117996293
    1.441903172    6.361130108   13.608645510   12.146163932
    1.449081803    6.375523923   13.638785299   12.175357632
    1.456260434    6.390771796   13.670149465   12.205818026
    1.463439065    6.407098502   13.703029107   12.237845928
    1.470617696    6.424736055   13.737724875   12.271751609
    1.477796327    6.443714522   13.774274998   12.307567916
    1.484974958    6.462955217   13.811276554   12.343807408
    1.492153589    6.476880834   13.841479216   12.372816891
    1.499332220    6.468284883   13.842516788   12.371005953
    1.506510851    6.426432447   13.800434676   12.323650160
    1.513689482    6.397845944   13.775701625   12.294482707
    1.520868114    6.403434191   13.795493075   12.312134804
    1.528046745    6.422792394   13.833283927   12.348620816
    1.535225376    6.444704672   13.874491980   12.388541078
    1.542404007    6.466375150   13.915478131   12.428026506
    1.549582638    6.487503502   13.955845179   12.466617872
    1.556761269    6.508362732   13.995938574   12.504628481
    1.563939900    6.529330287   14.036235876   12.542497057
    1.571118531    6.550798118   14.077228349   12.580658076
    1.578297162    6.573178023   14.119425747   12.619540142
    1.585475793    6.596932177   14.163393185   12.659595841
    1.592654424    6.622609907   14.209795913   12.701337937
    1.599833055    6.650873063   14.259431950   12.745364774
    1.607011686    6.682446331   14.313181993   12.792319718
    1.614190317    6.717733786   14.371589042   12.842561246
    1.621368948    6.755066963   14.432915942   12.894649869
    1.628547579    6.783825637   14.485494627   12.939404379
    1.635726210    6.766050394   14.487256147   12.944013505
    1.642904841    6.654032216   14.385291172   12.867218457
    1.650083472    6.542230233   14.284852207   12.790507138
    1.657262104    6.528157432   14.293744853   12.797773979
    1.664440735    6.564491705   14.354950386   12.846981720
    1.671619366    6.608968408   14.406975335   12.898457843
    1.678797997    6.639429429   14.410943500   12.932256866
    1.685976628    6.632099482   14.376447251   12.945093759
    1.693155259    6.585715108   14.329075149   12.948989543
    1.700333890    6.546173203   14.306702058   12.974462535
    1.707512521    6.537236772   14.323307025   13.019713508
    1.714691152    6.559418472   14.373903813   13.070869586
    1.721869783    6.593082285   14.435977997   13.122416781
    1.729048414    6.627520991   14.497946954   13.173287263
    1.736227045    6.660318775   14.557417954   13.223709003
    1.743405676    6.691566516   14.614705032   13.274192449
    1.750584307    6.721895846   14.670661085   13.325297442
    1.757762938    6.752011819   14.726158131   13.377607706
    1.764941569    6.782602304   14.781932215   13.431741152
    1.772120200    6.814263624   14.838251577   13.488296580
    1.779298831    6.847132121   14.893535421   13.547493156
    1.786477462    6.879605096   14.940092185   13.607889152
    1.793656093    6.907470534   14.964125117   13.665261341
    1.800834725    6.929622867   14.981563763   13.716852327
    1.808013356    6.932870882   15.021092572   13.743361147
    1.815191987    6.876777856   15.067786015   13.694270640
    1.822370618    6.798187707   15.111834805   13.617066146
    1.829549249    6.776306997   15.144739346   13.611818140
    1.836727880    6.779034690   15.128834406   13.637008461
    1.843906511    6.785068847   15.092831910   13.666719280
    1.851085142    6.808505061   15.112789933   13.721140540
    1.858263773    6.842164489   15.171790642   13.790801394
    1.865442404    6.877339521   15.241872732   13.864001766
    1.872621035    6.911695442   15.314307192   13.937702943
    1.879799666    6.944988008   15.387146038   14.011682931
    1.886978297    6.976293454   15.456823500   14.084498861
    1.894156928    7.000335226   15.507153251   14.147410911
    1.901335559    7.003737304   15.497190877   14.176849708
    1.908514190    6.989475265   15.431430913   14.173354861
    1.915692821    6.992786446   15.416764442   14.200964772
    1.922871452    7.015983405   15.464864796   14.270417127
    1.930050083    7.045541378   15.533731431   14.356098253
    1.937228715    7.075453421   15.604417621   14.441725831
    1.944407346    7.102246638   15.668312147   14.502471195
    1.951585977    7.120495522   15.714433932   14.485828869
    1.958764608    7.132231425   15.746809522   14.409479396
    1.965943239    7.151505731   15.793182979   14.407013290
    1.973121870    7.178496426   15.853895487   14.478208747
    1.980300501    7.208201755   15.919100451   14.573448210
    1.987479132    7.238547490   15.985094339   14.673921054
    1.994657763    7.267778090   16.050504077   14.774036579
    2.001836394    7.290597062   16.112454622   14.865854836
    2.009015025    7.299168768   16.166726021   14.937921543
    2.016193656    7.305993979   16.221050976   15.011169372
    2.023372287    7.328185834   16.285969231   15.108351771
    2.030550918    7.358852370   16.358257147   15.190241320
    2.037729549    7.389448604   16.434039669   15.162518281
    2.044908180    7.417431326   16.510439313   14.994988549
    2.052086811    7.448048172   16.579837972   14.906436462
    2.059265442    7.481011036   16.627150974   14.943306521
    2.066444073    7.510582871   16.664540379   15.020052013
    2.073622705    7.525952508   16.705566693   15.096874057
    2.080801336    7.521615933   16.706644054   15.124340757
    2.087979967    7.521881061   16.670895728   15.130539024
    2.095158598    7.547438916   16.683067529   15.193425484
    2.102337229    7.589791757   16.755840945   15.299681717
    2.109515860    7.638698544   16.852395379   15.418595731
    2.116694491    7.690942358   16.955007605   15.539888094
    2.123873122    7.744712173   17.057853702   15.660732803
    2.131051753    7.792271238   17.151152841   15.773375348
    2.138230384    7.806199260   17.204988665   15.847296187
    2.145409015    7.743121315   17.189867281   15.828946299
    2.152587646    7.651836946   17.178941500   15.772603486
    2.159766277    7.639994968   17.243997622   15.809223311
    2.166944908    7.686184293   17.352721098   15.915637497
    2.174123539    7.748183534   17.470254620   16.041936117
    2.181302170    7.808124662   17.565793246   16.167112200
    2.188480801    7.851837955   17.576489239   16.274422556
    2.195659432    7.876743576   17.486948012   16.359929917
    2.202838063    7.915099718   17.462563132   16.456679778
    2.210016694    7.972031185   17.538288679   16.548431065
    2.217195326    8.024942084   17.629307732   16.557391379
    2.224373957    8.064341513   17.688770444   16.492384837
    2.231552588    8.119513089   17.756516372   16.512854814
    2.238731219    8.204729600   17.863730084   16.624469577
    2.245909850    8.308135506   17.990100417   16.766226180
    2.253088481    8.414419150   18.120972853   16.912206664
    2.260267112    8.477971089   18.243016929   17.047570994
    2.267445743    8.370830759   18.323230706   17.144003013
    2.274624374    8.029480891   18.328786284   17.189710205
    2.281803005    7.710387654   18.282194321   17.239915281
    2.288981636    7.565543901   18.266250600   17.321511503
    2.296160267    7.582513801   18.344462336   17.440986408
    2.303338898    7.645324019   18.451724761   17.572044614
    2.310517529    7.705432204   18.510131683   17.680206627
    2.317696160    7.776238577   18.484306339   17.752333269
    2.324874791    7.855448191   18.486332890   17.843112130
    2.332053422    7.936189243   18.576127043   17.977395144
    2.339232053    8.011432437   18.700237522   18.120621945
    2.346410684    8.082060358   18.829622631   18.266968046
    2.353589316    8.153302363   18.959727313   18.433385973
    2.360767947    8.225572871   19.089608763   18.616742381
    2.367946578    8.298045128   19.219051631   18.811098674
    2.375125209    8.368254072   19.346954836   19.011040942
    2.382303840    8.426622454   19.467554166   19.199248279
    2.389482471    8.461497683   19.575225288   19.352398172
    2.396661102    8.482784621   19.682249245   19.478110056
    2.403839733    8.492509343   19.785681794   19.523489756
    2.411018364    8.494714822   19.872178988   19.428947040
    2.418196995    8.526894418   19.976147038   19.417065361
    2.425375626    8.597587041   20.116991570   19.612627880
    2.432554257    8.678861005   20.275284415   19.899345147
    2.439732888    8.750871408   20.432847285   20.177649894
    2.446911519    8.813706503   20.563881695   20.309681088
    2.454090150    8.861747031   20.623015769   20.110793905
    2.461268781    8.906159957   20.650343304   19.843304485
    2.468447412    8.951018060   20.731323483   19.892879677
    2.475626043    8.928197339   20.800533194   20.109870345
    2.482804674    8.823846068   20.809371937   20.338563238
    2.489983306    8.696726998   20.801946220   20.549711080
    2.497161937    8.625041858   20.860148831   20.735804311
    2.504340568    8.597902300   20.968445958   20.890152161
    2.511519199    8.638257320   21.126679943   21.120863486
    2.518697830    8.729922830   21.324947085   21.445056771
    2.525876461    8.829163700   21.508712742   21.767520371
    2.533055092    8.909155509   21.591454449   21.938779279
    2.540233723    8.965250379   21.545812834   21.861372304
