# energy grid [eV]     epsr_x  epsr_y  epsr_z
#
    0.200000000   11.801232513    3.659151386   11.660418880
    0.207178631   11.803582169    3.659626221   11.662992636
    0.214357262   11.806016029    3.660118078   11.665658813
    0.221535893   11.808534236    3.660626988   11.668417589
    0.228714524   11.811136939    3.661152981   11.671269146
    0.235893155   11.813824293    3.661696088   11.674213675
    0.243071786   11.816596458    3.662256344   11.677251372
    0.250250417   11.819453598    3.662833782   11.680382442
    0.257429048   11.822395885    3.663428438   11.683607094
    0.264607679   11.825423494    3.664040349   11.686925546
    0.271786311   11.828536609    3.664669552   11.690338022
    0.278964942   11.831735418    3.665316086   11.693844755
    0.286143573   11.835020114    3.665979992   11.697445982
    0.293322204   11.838390897    3.666661312   11.701141950
    0.300500835   11.841847973    3.667360088   11.704932913
    0.307679466   11.845391554    3.668076364   11.708819130
    0.314858097   11.849021859    3.668810186   11.712800871
    0.322036728   11.852739112    3.669561601   11.716878411
    0.329215359   11.856543544    3.670330657   11.721052036
    0.336393990   11.860435392    3.671117404   11.725322036
    0.343572621   11.864414902    3.671921892   11.729688712
    0.350751252   11.868482322    3.672744174   11.734152372
    0.357929883   11.872637913    3.673584305   11.738713332
    0.365108514   11.876881937    3.674442339   11.743371918
    0.372287145   11.881214666    3.675318333   11.748128464
    0.379465776   11.885636381    3.676212346   11.752983311
    0.386644407   11.890147368    3.677124438   11.757936811
    0.393823038   11.894747919    3.678054671   11.762989325
    0.401001669   11.899438339    3.679003109   11.768141224
    0.408180301   11.904218935    3.679969815   11.773392885
    0.415358932   11.909090026    3.680954858   11.778744699
    0.422537563   11.914051939    3.681958306   11.784197065
    0.429716194   11.919105007    3.682980230   11.789750392
    0.436894825   11.924249574    3.684020701   11.795405100
    0.444073456   11.929485993    3.685079795   11.801161619
    0.451252087   11.934814624    3.686157587   11.807020392
    0.458430718   11.940235839    3.687254157   11.812981871
    0.465609349   11.945750018    3.688369583   11.819046520
    0.472787980   11.951357553    3.689503950   11.825214815
    0.479966611   11.957058843    3.690657343   11.831487246
    0.487145242   11.962854301    3.691829847   11.837864312
    0.494323873   11.968744349    3.693021554   11.844346528
    0.501502504   11.974729421    3.694232554   11.850934422
    0.508681135   11.980809962    3.695462944   11.857628535
    0.515859766   11.986986431    3.696712819   11.864429421
    0.523038397   11.993259298    3.697982281   11.871337653
    0.530217028   11.999629047    3.699271431   11.878353814
    0.537395659   12.006096175    3.700580376   11.885478506
    0.544574290   12.012661193    3.701909225   11.892712349
    0.551752922   12.019324627    3.703258090   11.900055975
    0.558931553   12.026087019    3.704627086   11.907510039
    0.566110184   12.032948926    3.706016332   11.915075212
    0.573288815   12.039910924    3.707425951   11.922752184
    0.580467446   12.046973603    3.708856069   11.930541667
    0.587646077   12.054137575    3.710306816   11.938444392
    0.594824708   12.061403470    3.711778326   11.946461113
    0.602003339   12.068771936    3.713270739   11.954592609
    0.609181970   12.076243647    3.714784198   11.962839679
    0.616360601   12.083819297    3.716318850   11.971203153
    0.623539232   12.091499603    3.717874850   11.979683883
    0.630717863   12.099285309    3.719452355   11.988282754
    0.637896494   12.107177186    3.721051530   11.997000676
    0.645075125   12.115176031    3.722672545   12.005838596
    0.652253756   12.123282674    3.724315576   12.014797490
    0.659432387   12.131497976    3.725980808   12.023878374
    0.666611018   12.139822832    3.727668429   12.033082299
    0.673789649   12.148258175    3.729378638   12.042410358
    0.680968280   12.156804974    3.731111640   12.051863687
    0.688146912   12.165464244    3.732867652   12.061443470
    0.695325543   12.174237043    3.734646895   12.071150937
    0.702504174   12.183124479    3.736449605   12.080987376
    0.709682805   12.192127711    3.738276025   12.090954128
    0.716861436   12.201247956    3.740126412   12.101052601
    0.724040067   12.210486494    3.742001034   12.111284266
    0.731218698   12.219844670    3.743900172   12.121650669
    0.738397329   12.229323901    3.745824122   12.132153434
    0.745575960   12.238925688    3.747773197   12.142794273
    0.752754591   12.248651614    3.749747724   12.153574990
    0.759933222   12.258503360    3.751748053   12.164497492
    0.767111853   12.268482713    3.753774549   12.175563801
    0.774290484   12.278591573    3.755827605   12.186776062
    0.781469115   12.288831971    3.757907634   12.198136555
    0.788647746   12.299206077    3.760015079   12.209647717
    0.795826377   12.309716221    3.762150411   12.221312148
    0.803005008   12.320364907    3.764314136   12.233132639
    0.810183639   12.331154835    3.766506795   12.245112190
    0.817362270   12.342088928    3.768728972   12.257254035
    0.824540902   12.353170356    3.770981295   12.269561671
    0.831719533   12.364402567    3.773264447   12.282038895
    0.838898164   12.375789331    3.775579165   12.294689840
    0.846076795   12.387334775    3.777926258   12.307519022
    0.853255426   12.399043444    3.780306604   12.320531395
    0.860434057   12.410920351    3.782721172   12.333732414
    0.867612688   12.422971059    3.785171025   12.347128113
    0.874791319   12.435201762    3.787657344   12.360725190
    0.881969950   12.447619384    3.790181437   12.374531120
    0.889148581   12.460231713    3.792744767   12.388554285
    0.896327212   12.473047538    3.795348975   12.402804127
    0.903505843   12.486076841    3.797995911   12.417291346
    0.910684474   12.499331018    3.800687675   12.432028128
    0.917863105   12.512823153    3.803426662   12.447028444
    0.925041736   12.526568363    3.806215624   12.462308405
    0.932220367   12.540584231    3.809057739   12.477886718
    0.939398998   12.554891347    3.811956708   12.493785259
    0.946577629   12.569514007    3.814916875   12.510029802
    0.953756260   12.584481104    3.817943376   12.526650964
    0.960934891   12.599827293    3.821042338   12.543685423
    0.968113523   12.615594519    3.824221143   12.561177531
    0.975292154   12.631834052    3.827488769   12.579181449
    0.982470785   12.648609212    3.830856260   12.597764015
    0.989649416   12.665999091    3.834337352   12.617008662
    0.996828047   12.684103668    3.837949346   12.637020791
    1.004006678   12.703050937    3.841714319   12.657935269
    1.011185309   12.723006924    3.845660823   12.679926967
    1.018363940   12.744189826    3.849826284   12.703225628
    1.025542571   12.766889862    3.854260372   12.728136736
    1.032721202   12.791496233    3.859029573   12.755069877
    1.039899833   12.818530064    3.864222779   12.784573379
    1.047078464   12.848670091    3.869955646   12.817361322
    1.054257095   12.882708873    3.876363176   12.854267496
    1.061435726   12.921183771    3.883537170   12.895857331
    1.068614357   12.962657573    3.891234785   12.940619788
    1.075792988   12.996784386    3.897703129   12.977675374
    1.082971619   12.983068810    3.896078724   12.964439068
    1.090150250   12.848743920    3.874027805   12.824388782
    1.097328881   12.669774331    3.844428342   12.637410129
    1.104507513   12.610923353    3.835210780   12.576770407
    1.111686144   12.632894047    3.839715247   12.601144984
    1.118864775   12.674570042    3.847583397   12.646263709
    1.126043406   12.716176764    3.855464951   12.691331935
    1.133222037   12.753847600    3.862706416   12.732284037
    1.140400668   12.787635204    3.869318896   12.769175971
    1.147579299   12.818308146    3.875435135   12.802816608
    1.154757930   12.846611588    3.881184239   12.833990256
    1.161936561   12.873136475    3.886669560   12.863319115
    1.169115192   12.898328489    3.891970288   12.891272705
    1.176293823   12.922521004    3.897147125   12.918202536
    1.183472454   12.945965224    3.902247499   12.944373822
    1.190651085   12.968853111    3.907309593   12.969989620
    1.197829716   12.991333950    3.912365319   12.995208276
    1.205008347   13.013526155    3.917442541   13.020155893
    1.212186978   13.035525762    3.922566790   13.044935297
    1.219365609   13.057412611    3.927762680   13.069632626
    1.226544240   13.079255002    3.933055162   13.094322302
    1.233722871   13.101113304    3.938470769   13.119070955
    1.240901503   13.123042928    3.944038954   13.143940707
    1.248080134   13.145096946    3.949793670   13.168992145
    1.255258765   13.167328613    3.955775354   13.194287276
    1.262437396   13.189794041    3.962033536   13.219892755
    1.269616027   13.212555302    3.968630392   13.245883735
    1.276794658   13.235684306    3.975645663   13.272348772
    1.283973289   13.259267880    3.983183507   13.299396335
    1.291151920   13.283414522    3.991381870   13.327163521
    1.298330551   13.308263093    4.000424370   13.355827276
    1.305509182   13.333992232    4.010551626   13.385616409
    1.312687813   13.360823085    4.022056260   13.416814201
    1.319866444   13.388983283    4.035195639   13.449707772
    1.327045075   13.418502222    4.049756904   13.484306696
    1.334223706   13.448324521    4.063244923   13.519131859
    1.341402337   13.473022244    4.064691008   13.546776860
    1.348580968   13.476111046    4.027774692   13.545454672
    1.355759599   13.447504082    3.958748715   13.504063603
    1.362938230   13.431091105    3.924637343   13.480288106
    1.370116861   13.447842544    3.927901463   13.498733333
    1.377295492   13.478423837    3.942793723   13.534353207
    1.384474124   13.511834464    3.959036278   13.573328564
    1.391652755   13.545313300    3.974376269   13.612214883
    1.398831386   13.578417726    3.988602703   13.650470817
    1.406010017   13.610530266    4.001448927   13.687376634
    1.413188648   13.638341286    4.010797335   13.719018897
    1.420367279   13.652825215    4.010612231   13.734697890
    1.427545910   13.654064134    4.001023637   13.734509907
    1.434724541   13.666469548    3.998683820   13.747402731
    1.441903172   13.693145138    4.005742176   13.777043691
    1.449081803   13.724594490    4.015770103   13.812147885
    1.456260434   13.756828127    4.026075711   13.847954694
    1.463439065   13.788993614    4.036094647   13.883415123
    1.470617696   13.821094138    4.045840578   13.918483252
    1.477796327   13.853320702    4.055452539   13.953320653
    1.484974958   13.885896228    4.065090110   13.988107080
    1.492153589   13.919048270    4.074915510   14.023004168
    1.499332220   13.953005189    4.085089406   14.058154024
    1.506510851   13.987963791    4.095738083   14.093678472
    1.513689482   14.023911656    4.106784524   14.129650829
    1.520868114   14.059886205    4.117254218   14.165958913
    1.528046745   14.091731726    4.123181043   14.201879106
    1.535225376   14.112269758    4.117758868   14.236114401
    1.542404007   14.130554181    4.109263363   14.270500763
    1.549582638   14.163459421    4.113204811   14.308398367
    1.556761269   14.206951841    4.125555230   14.349180841
    1.563939900   14.255570677    4.140864377   14.391991163
    1.571118531   14.308195320    4.157598117   14.436861671
    1.578297162   14.365162495    4.175422012   14.484156452
    1.585475793   14.425859002    4.192975124   14.534025355
    1.592654424   14.484030600    4.204066398   14.585006384
    1.599833055   14.519383881    4.195874344   14.629548523
    1.607011686   14.491164174    4.166784004   14.643126944
    1.614190317   14.344684771    4.117530826   14.591705897
    1.621368948   14.192695054    4.074172663   14.534683747
    1.628547579   14.174493847    4.069122830   14.545355643
    1.635726210   14.228998631    4.083658153   14.593259160
    1.642904841   14.300221508    4.101929394   14.649942566
    1.650083472   14.372095634    4.119445030   14.707166104
    1.657262104   14.441827952    4.135522270   14.763475866
    1.664440735   14.507855052    4.150294665   14.818279827
    1.671619366   14.561056105    4.163754566   14.868084278
    1.678797997   14.571181467    4.175152668   14.901088750
    1.685976628   14.518741241    4.184054907   14.909707962
    1.693155259   14.488149874    4.193490777   14.927184218
    1.700333890   14.518877818    4.204953632   14.969086285
    1.707512521   14.574270973    4.217364457   15.021057836
    1.714691152   14.634041421    4.230201355   15.075174881
    1.721869783   14.693327694    4.243482072   15.129580014
    1.729048414   14.751883258    4.257415023   15.184236887
    1.736227045   14.810566426    4.272294763   15.239555405
    1.743405676   14.870475441    4.288469909   15.296058180
    1.750584307   14.932662043    4.306249492   15.354276953
    1.757762938   14.997525831    4.325457531   15.414528506
    1.764941569   15.062300025    4.343571768   15.475952073
    1.772120200   15.112185688    4.349306836   15.533046277
    1.779298831   15.108130185    4.314980065   15.570236934
    1.786477462   15.042785697    4.245728569   15.578929862
    1.793656093   14.975460704    4.211969034   15.567222748
    1.800834725   14.923668506    4.216894091   15.547130823
    1.808013356   14.934245274    4.234899264   15.569445603
    1.815191987   14.989963106    4.255113955   15.626600533
    1.822370618   15.056897015    4.274553263   15.693613997
    1.829549249   15.123407611    4.292860030   15.761567845
    1.836727880   15.187281093    4.310209537   15.828595780
    1.843906511   15.247681185    4.326332553   15.893866625
    1.851085142   15.300534340    4.339024220   15.954017958
    1.858263773   15.336070638    4.343083865   16.001224090
    1.865442404   15.360312863    4.341571913   16.040128135
    1.872621035   15.399273781    4.348005688   16.091140502
    1.879799666   15.451333768    4.361517428   16.152887695
    1.886978297   15.507285932    4.377308021   16.218004546
    1.894156928   15.564017351    4.393781406   16.283913446
    1.901335559   15.621134137    4.410776445   16.350176112
    1.908514190   15.678825680    4.428413909   16.416899594
    1.915692821   15.736774989    4.446357127   16.484281817
    1.922871452   15.791945524    4.461991149   16.552443158
    1.930050083   15.833080851    4.465795827   16.621202174
    1.937228715   15.846344078    4.445987149   16.689953149
    1.944407346   15.857821837    4.423892709   16.757945831
    1.951585977   15.889818628    4.417305487   16.823172092
    1.958764608   15.933378048    4.419639438   16.888673182
    1.965943239   15.987541981    4.431969997   16.960780755
    1.973121870   16.046791360    4.449110611   17.038002084
    1.980300501   16.107092641    4.466896901   17.118267743
    1.987479132   16.167522125    4.484244193   17.201231618
    1.994657763   16.228227966    4.501129792   17.287276321
    2.001836394   16.289613050    4.517768308   17.377056193
    2.009015025   16.352098229    4.534402456   17.471276484
    2.016193656   16.415896352    4.551245397   17.570107231
    2.023372287   16.480194478    4.568392169   17.670757951
    2.030550918   16.540111681    4.585469421   17.758536418
    2.037729549   16.580411462    4.600614837   17.789597084
    2.044908180   16.591090620    4.610525156   17.744325756
    2.052086811   16.610805728    4.618483388   17.742697919
    2.059265442   16.662321176    4.633389414   17.826551179
    2.066444073   16.729662641    4.654315726   17.945416508
    2.073622705   16.800783672    4.677165006   18.071631957
    2.080801336   16.870082477    4.696529526   18.188056729
    2.087979967   16.929168689    4.697648862   18.256680165
    2.095158598   16.969330833    4.664199395   18.236080412
    2.102337229   17.010987332    4.633328608   18.222125070
    2.109515860   17.072020782    4.637545081   18.298708183
    2.116694491   17.142897636    4.658939717   18.420247144
    2.123873122   17.216541888    4.684155403   18.552806169
    2.131051753   17.291172603    4.709585723   18.687467828
    2.138230384   17.366741111    4.734795825   18.823468787
    2.145409015   17.443630474    4.760124461   18.962053344
    2.152587646   17.522291691    4.786082042   19.104878253
    2.159766277   17.602969124    4.813205630   19.253349188
    2.166944908   17.684803466    4.841930608   19.407036705
    2.174123539   17.762588764    4.872093994   19.557914846
    2.181302170   17.821034761    4.901290823   19.679888782
    2.188480801   17.855544563    4.921522638   19.764096188
    2.195659432   17.906607695    4.914008818   19.873514480
    2.202838063   17.981026170    4.876100489   19.982035402
    2.210016694   18.053739040    4.860046249   19.957242586
    2.217195326   18.119309931    4.868927632   19.822494924
    2.224373957   18.198825653    4.885377934   19.837197297
    2.231552588   18.295032567    4.916954217   20.001712168
    2.238731219   18.399950381    4.960318858   20.218334407
    2.245909850   18.509391207    5.008070015   20.447240593
    2.253088481   18.619600977    5.053107979   20.670862848
    2.260267112   18.717484072    5.074533476   20.849567612
    2.267445743   18.775129794    5.029948483   20.902810813
    2.274624374   18.807637442    4.949061221   20.886336169
    2.281803005   18.864879052    4.930011239   20.981576626
    2.288981636   18.926889230    4.956079331   21.152530381
    2.296160267   19.014199682    5.000020447   21.372470976
    2.303338898   19.136794609    5.048088138   21.632782956
    2.310517529   19.263281950    5.080672935   21.889082079
    2.317696160   19.374113162    5.096167536   22.095350405
    2.324874791   19.452839637    5.091927222   22.197710469
    2.332053422   19.537520460    5.094218540   22.299337777
    2.339232053   19.654706232    5.123095443   22.462257632
    2.346410684   19.740827706    5.132487699   22.500014024
    2.353589316   19.802006198    5.111152658   22.465779619
    2.360767947   19.868512241    5.058437329   22.526351259
    2.367946578   19.894438594    4.985407379   22.629269102
    2.375125209   19.828752994    4.942961298   22.714392832
    2.382303840   19.618126565    4.887460218   22.655839464
    2.389482471   19.511582988    4.857842642   22.691705737
    2.396661102   19.623031030    4.891540828   22.982927321
    2.403839733   19.818934623    4.950771099   23.379101801
    2.411018364   20.021123506    5.012575791   23.769225552
    2.418196995   20.203636102    5.071595665   24.090159348
    2.425375626   20.340341689    5.126272771   24.238821245
    2.432554257   20.440965279    5.173179713   24.293982938
    2.439732888   20.533695967    5.199122688   24.498741667
    2.446911519   20.568078547    5.188270571   24.746610934
    2.454090150   20.634697119    5.184093218   25.052205595
    2.461268781   20.801546834    5.217828956   25.516515330
    2.468447412   20.994895490    5.266195637   26.065836321
    2.475626043   21.136569260    5.309913057   26.600679405
    2.482804674   21.212590686    5.348746181   26.977429937
    2.489983306   21.237388510    5.382783823   26.887025683
    2.497161937   21.172175551    5.395182758   26.354018898
    2.504340568   21.139790638    5.400994855   26.168698076
    2.511519199   21.258281347    5.428905278   26.563705304
    2.518697830   21.447739192    5.451190641   27.173155423
    2.525876461   21.637273828    5.453563303   27.732311204
    2.533055092   21.827653610    5.478958727   28.096350577
    2.540233723   21.988636126    5.523855010   28.041981686
