# energy grid [eV]     ieps_x  ieps_y  ieps_z
#
    0.200000000    9.068855658    9.287230152    9.041760403
    0.207178631    9.066852560    9.285227233    9.039750068
    0.214357262    9.064779937    9.283154767    9.037669962
    0.221535893    9.062637904    9.281012865    9.035520201
    0.228714524    9.060426579    9.278801641    9.033300902
    0.235893155    9.058146082    9.276521213    9.031012189
    0.243071786    9.055796540    9.274171704    9.028654187
    0.250250417    9.053378080    9.271753239    9.026227025
    0.257429048    9.050890835    9.269265946    9.023730837
    0.264607679    9.048334940    9.266709957    9.021165761
    0.271786311    9.045710536    9.264085410    9.018531936
    0.278964942    9.043017765    9.261392442    9.015829507
    0.286143573    9.040256775    9.258631198    9.013058622
    0.293322204    9.037427715    9.255801823    9.010219432
    0.300500835    9.034530739    9.252904466    9.007312092
    0.307679466    9.031566004    9.249939283    9.004336760
    0.314858097    9.028533671    9.246906428    9.001293599
    0.322036728    9.025433905    9.243806061    8.998182774
    0.329215359    9.022266872    9.240638347    8.995004454
    0.336393990    9.019032744    9.237403452    8.991758810
    0.343572621    9.015731695    9.234101545    8.988446020
    0.350751252    9.012363903    9.230732800    8.985066261
    0.357929883    9.008929548    9.227297393    8.981619717
    0.365108514    9.005428817    9.223795504    8.978106573
    0.372287145    9.001861895    9.220227316    8.974527018
    0.379465776    8.998228974    9.216593016    8.970881245
    0.386644407    8.994530248    9.212892791    8.967169449
    0.393823038    8.990765914    9.209126836    8.963391829
    0.401001669    8.986936173    9.205295344    8.959548588
    0.408180301    8.983041229    9.201398515    8.955639930
    0.415358932    8.979081288    9.197436551    8.951666064
    0.422537563    8.975056560    9.193409656    8.947627201
    0.429716194    8.970967258    9.189318038    8.943523556
    0.436894825    8.966813599    9.185161908    8.939355347
    0.444073456    8.962595800    9.180941479    8.935122794
    0.451252087    8.958314085    9.176656967    8.930826121
    0.458430718    8.953968677    9.172308593    8.926465554
    0.465609349    8.949559806    9.167896577    8.922041324
    0.472787980    8.945087701    9.163421147    8.917553662
    0.479966611    8.940552596    9.158882529    8.913002804
    0.487145242    8.935954727    9.154280954    8.908388988
    0.494323873    8.931294334    9.149616656    8.903712455
    0.501502504    8.926571659    9.144889871    8.898973450
    0.508681135    8.921786946    9.140100838    8.894172218
    0.515859766    8.916940442    9.135249798    8.889309008
    0.523038397    8.912032399    9.130336995    8.884384074
    0.530217028    8.907063067    9.125362677    8.879397669
    0.537395659    8.902032704    9.120327092    8.874350050
    0.544574290    8.896941565    9.115230492    8.869241477
    0.551752922    8.891789913    9.110073132    8.864072214
    0.558931553    8.886578009    9.104855269    8.858842524
    0.566110184    8.881306120    9.099577161    8.853552675
    0.573288815    8.875974512    9.094239070    8.848202936
    0.580467446    8.870583457    9.088841261    8.842793581
    0.587646077    8.865133226    9.083384000    8.837324883
    0.594824708    8.859624094    9.077867555    8.831797120
    0.602003339    8.854056339    9.072292198    8.826210571
    0.609181970    8.848430240    9.066658200    8.820565517
    0.616360601    8.842746079    9.060965839    8.814862242
    0.623539232    8.837004139    9.055215392    8.809101033
    0.630717863    8.831204707    9.049407137    8.803282177
    0.637896494    8.825348071    9.043541358    8.797405964
    0.645075125    8.819434521    9.037618337    8.791472687
    0.652253756    8.813464348    9.031638362    8.785482641
    0.659432387    8.807437849    9.025601719    8.779436122
    0.666611018    8.801355318    9.019508698    8.773333429
    0.673789649    8.795217054    9.013359593    8.767174861
    0.680968280    8.789023357    9.007154695    8.760960722
    0.688146912    8.782774530    9.000894301    8.754691315
    0.695325543    8.776470875    8.994578709    8.748366948
    0.702504174    8.770112699    8.988208217    8.741987926
    0.709682805    8.763700309    8.981783126    8.735554561
    0.716861436    8.757234014    8.975303740    8.729067164
    0.724040067    8.750714125    8.968770363    8.722526048
    0.731218698    8.744140954    8.962183300    8.715931527
    0.738397329    8.737514816    8.955542861    8.709283918
    0.745575960    8.730836026    8.948849353    8.702583540
    0.752754591    8.724104902    8.942103087    8.695830712
    0.759933222    8.717321762    8.935304378    8.689025754
    0.767111853    8.710486926    8.928453537    8.682168990
    0.774290484    8.703600717    8.921550880    8.675260743
    0.781469115    8.696663457    8.914596725    8.668301340
    0.788647746    8.689675471    8.907591390    8.661291106
    0.795826377    8.682637084    8.900535193    8.654230371
    0.803005008    8.675548624    8.893428456    8.647119463
    0.810183639    8.668410419    8.886271501    8.639958713
    0.817362270    8.661222799    8.879064651    8.632748453
    0.824540902    8.653986093    8.871808231    8.625489018
    0.831719533    8.646700635    8.864502567    8.618180740
    0.838898164    8.639366758    8.857147985    8.610823955
    0.846076795    8.631984795    8.849744814    8.603419000
    0.853255426    8.624555082    8.842293383    8.595966213
    0.860434057    8.617077954    8.834794021    8.588465932
    0.867612688    8.609553750    8.827247060    8.580918497
    0.874791319    8.601982807    8.819652832    8.573324248
    0.881969950    8.594365464    8.812011671    8.565683527
    0.889148581    8.586702061    8.804323909    8.557996676
    0.896327212    8.578992939    8.796589882    8.550264039
    0.903505843    8.571238439    8.788809927    8.542485959
    0.910684474    8.563438905    8.780984378    8.534662781
    0.917863105    8.555594678    8.773113574    8.526794851
    0.925041736    8.547706103    8.765197852    8.518882515
    0.932220367    8.539773524    8.757237551    8.510926120
    0.939398998    8.531797287    8.749233012    8.502926013
    0.946577629    8.523777736    8.741184572    8.494882543
    0.953756260    8.515715218    8.733092575    8.486796059
    0.960934891    8.507610080    8.724957359    8.478666908
    0.968113523    8.499462670    8.716779269    8.470495442
    0.975292154    8.491273334    8.708558645    8.462282011
    0.982470785    8.483042422    8.700295830    8.454026964
    0.989649416    8.474770282    8.691991169    8.445730654
    0.996828047    8.466457262    8.683645004    8.437393431
    1.004006678    8.458103712    8.675257679    8.429015648
    1.011185309    8.449709983    8.666829540    8.420597656
    1.018363940    8.441276422    8.658360930    8.412139808
    1.025542571    8.432803382    8.649852195    8.403642456
    1.032721202    8.424291212    8.641303680    8.395105953
    1.039899833    8.415740262    8.632715731    8.386530653
    1.047078464    8.407150884    8.624088693    8.377916907
    1.054257095    8.398523428    8.615422913    8.369265070
    1.061435726    8.389858246    8.606718737    8.360575495
    1.068614357    8.381155687    8.597976510    8.351848535
    1.075792988    8.372416104    8.589196579    8.343084544
    1.082971619    8.363639847    8.580379290    8.334283874
    1.090150250    8.354827267    8.571524991    8.325446880
    1.097328881    8.345978715    8.562634026    8.316573914
    1.104507513    8.337094542    8.553706743    8.307665330
    1.111686144    8.328175099    8.544743488    8.298721482
    1.118864775    8.319220736    8.535744608    8.289742720
    1.126043406    8.310231803    8.526710447    8.280729400
    1.133222037    8.301208652    8.517641353    8.271681873
    1.140400668    8.292151631    8.508537671    8.262600491
    1.147579299    8.283061091    8.499399747    8.253485607
    1.154757930    8.273937382    8.490227926    8.244337572
    1.161936561    8.264780851    8.481022554    8.235156738
    1.169115192    8.255591848    8.471783974    8.225943456
    1.176293823    8.246370722    8.462512533    8.216698077
    1.183472454    8.237117821    8.453208574    8.207420950
    1.190651085    8.227833492    8.443872442    8.198112427
    1.197829716    8.218518083    8.434504479    8.188772855
    1.205008347    8.209171939    8.425105030    8.179402586
    1.212186978    8.199795408    8.415674436    8.170001966
    1.219365609    8.190388836    8.406213040    8.160571344
    1.226544240    8.180952567    8.396721185    8.151111068
    1.233722871    8.171486947    8.387199211    8.141621484
    1.240901503    8.161992318    8.377647459    8.132102938
    1.248080134    8.152469026    8.368066270    8.122555777
    1.255258765    8.142917412    8.358455984    8.112980344
    1.262437396    8.133337819    8.348816939    8.103376986
    1.269616027    8.123730588    8.339149474    8.093746044
    1.276794658    8.114096061    8.329453927    8.084087863
    1.283973289    8.104434577    8.319730636    8.074402784
    1.291151920    8.094746475    8.309979937    8.064691149
    1.298330551    8.085032095    8.300202166    8.054953299
    1.305509182    8.075291774    8.290397659    8.045189573
    1.312687813    8.065525849    8.280566749    8.035400310
    1.319866444    8.055734657    8.270709770    8.025585850
    1.327045075    8.045918532    8.260827056    8.015746528
    1.334223706    8.036077809    8.250918939    8.005882682
    1.341402337    8.026212822    8.240985750    7.995994648
    1.348580968    8.016323903    8.231027819    7.986082759
    1.355759599    8.006411385    8.221045476    7.976147351
    1.362938230    7.996475598    8.211039051    7.966188754
    1.370116861    7.986516871    8.201008870    7.956207303
    1.377295492    7.976535535    8.190955261    7.946203326
    1.384474124    7.966531916    8.180878551    7.936177154
    1.391652755    7.956506341    8.170779063    7.926129116
    1.398831386    7.946459137    8.160657123    7.916059539
    1.406010017    7.936390628    8.150513053    7.905968751
    1.413188648    7.926301138    8.140347176    7.895857076
    1.420367279    7.916190990    8.130159813    7.885724840
    1.427545910    7.906060505    8.119951284    7.875572365
    1.434724541    7.895910003    8.109721908    7.865399975
    1.441903172    7.885739804    8.099472003    7.855207989
    1.449081803    7.875550227    8.089201886    7.844996728
    1.456260434    7.865341587    8.078911874    7.834766511
    1.463439065    7.855114201    8.068602280    7.824517655
    1.470617696    7.844868384    8.058273419    7.814250477
    1.477796327    7.834604449    8.047925604    7.803965291
    1.484974958    7.824322708    8.037559144    7.793662413
    1.492153589    7.814023472    8.027174352    7.783342154
    1.499332220    7.803707051    8.016771535    7.773004826
    1.506510851    7.793373753    8.006351002    7.762650739
    1.513689482    7.783023887    7.995913059    7.752280201
    1.520868114    7.772657757    7.985458012    7.741893521
    1.528046745    7.762275668    7.974986165    7.731491005
    1.535225376    7.751877924    7.964497821    7.721072958
    1.542404007    7.741464826    7.953993282    7.710639683
    1.549582638    7.731036676    7.943472848    7.700191482
    1.556761269    7.720593773    7.932936818    7.689728657
    1.563939900    7.710136414    7.922385490    7.679251506
    1.571118531    7.699664897    7.911819162    7.668760329
    1.578297162    7.689179516    7.901238128    7.658255421
    1.585475793    7.678680567    7.890642682    7.647737079
    1.592654424    7.668168340    7.880033117    7.637205596
    1.599833055    7.657643127    7.869409724    7.626661264
    1.607011686    7.647105219    7.858772793    7.616104375
    1.614190317    7.636554902    7.848122613    7.605535219
    1.621368948    7.625992465    7.837459472    7.594954084
    1.628547579    7.615418192    7.826783654    7.584361256
    1.635726210    7.604832368    7.816095445    7.573757020
    1.642904841    7.594235274    7.805395127    7.563141662
    1.650083472    7.583627193    7.794682983    7.552515462
    1.657262104    7.573008404    7.783959292    7.541878702
    1.664440735    7.562379184    7.773224334    7.531231662
    1.671619366    7.551739810    7.762478386    7.520574618
    1.678797997    7.541090558    7.751721725    7.509907849
    1.685976628    7.530431702    7.740954623    7.499231627
    1.693155259    7.519763513    7.730177356    7.488546228
    1.700333890    7.509086261    7.719390194    7.477851922
    1.707512521    7.498400218    7.708593408    7.467148980
    1.714691152    7.487705648    7.697787267    7.456437670
    1.721869783    7.477002820    7.686972037    7.445718261
    1.729048414    7.466291997    7.676147985    7.434991017
    1.736227045    7.455573443    7.665315376    7.424256202
    1.743405676    7.444847419    7.654474471    7.413514080
    1.750584307    7.434114185    7.643625533    7.402764911
    1.757762938    7.423373999    7.632768822    7.392008955
    1.764941569    7.412627118    7.621904595    7.381246469
    1.772120200    7.401873798    7.611033109    7.370477710
    1.779298831    7.391114292    7.600154621    7.359702933
    1.786477462    7.380348852    7.589269384    7.348922390
    1.793656093    7.369577730    7.578377649    7.338136334
    1.800834725    7.358801173    7.567479670    7.327345013
    1.808013356    7.348019430    7.556575693    7.316548678
    1.815191987    7.337232747    7.545665968    7.305747573
    1.822370618    7.326441367    7.534750740    7.294941946
    1.829549249    7.315645534    7.523830255    7.284132038
    1.836727880    7.304845488    7.512904755    7.273318092
    1.843906511    7.294041470    7.501974482    7.262500349
    1.851085142    7.283233717    7.491039677    7.251679048
    1.858263773    7.272422465    7.480100577    7.240854424
    1.865442404    7.261607950    7.469157420    7.230026715
    1.872621035    7.250790404    7.458210442    7.219196154
    1.879799666    7.239970060    7.447259876    7.208362974
    1.886978297    7.229147147    7.436305955    7.197527404
    1.894156928    7.218321894    7.425348910    7.186689675
    1.901335559    7.207494527    7.414388969    7.175850014
    1.908514190    7.196665273    7.403426361    7.165008647
    1.915692821    7.185834354    7.392461312    7.154165797
    1.922871452    7.175001992    7.381494047    7.143321689
    1.930050083    7.164168409    7.370524788    7.132476542
    1.937228715    7.153333823    7.359553758    7.121630578
    1.944407346    7.142498451    7.348581176    7.110784012
    1.951585977    7.131662510    7.337607260    7.099937062
    1.958764608    7.120826212    7.326632228    7.089089943
    1.965943239    7.109989772    7.315656295    7.078242866
    1.973121870    7.099153399    7.304679675    7.067396045
    1.980300501    7.088317303    7.293702579    7.056549689
    1.987479132    7.077481692    7.282725220    7.045704005
    1.994657763    7.066646772    7.271747805    7.034859201
    2.001836394    7.055812748    7.260770542    7.024015482
    2.009015025    7.044979823    7.249793638    7.013173051
    2.016193656    7.034148198    7.238817297    7.002332110
    2.023372287    7.023318073    7.227841722    6.991492860
    2.030550918    7.012489646    7.216867114    6.980655499
    2.037729549    7.001663115    7.205893673    6.969820224
    2.044908180    6.990838673    7.194921598    6.958987230
    2.052086811    6.980016516    7.183951085    6.948156713
    2.059265442    6.969196835    7.172982330    6.937328863
    2.066444073    6.958379820    7.162015526    6.926503872
    2.073622705    6.947565661    7.151050866    6.915681930
    2.080801336    6.936754544    7.140088540    6.904863223
    2.087979967    6.925946656    7.129128738    6.894047938
    2.095158598    6.915142181    7.118171646    6.883236259
    2.102337229    6.904341301    7.107217452    6.872428369
    2.109515860    6.893544198    7.096266340    6.861624450
    2.116694491    6.882751052    7.085318493    6.850824682
    2.123873122    6.871962040    7.074374092    6.840029243
    2.131051753    6.861177339    7.063433317    6.829238309
    2.138230384    6.850397125    7.052496348    6.818452056
    2.145409015    6.839621570    7.041563362    6.807670657
    2.152587646    6.828850846    7.030634533    6.796894286
    2.159766277    6.818085125    7.019710036    6.786123111
    2.166944908    6.807324576    7.008790043    6.775357303
    2.174123539    6.796569365    6.997874727    6.764597029
    2.181302170    6.785819658    6.986964255    6.753842455
    2.188480801    6.775075621    6.976058797    6.743093746
    2.195659432    6.764337417    6.965158519    6.732351064
    2.202838063    6.753605205    6.954263587    6.721614572
    2.210016694    6.742879148    6.943374164    6.710884429
    2.217195326    6.732159403    6.932490413    6.700160794
    2.224373957    6.721446128    6.921612493    6.689443823
    2.231552588    6.710739477    6.910740566    6.678733674
    2.238731219    6.700039606    6.899874788    6.668030499
    2.245909850    6.689346666    6.889015317    6.657334451
    2.253088481    6.678660810    6.878162307    6.646645682
    2.260267112    6.667982187    6.867315912    6.635964342
    2.267445743    6.657310945    6.856476284    6.625290578
    2.274624374    6.646647231    6.845643574    6.614624537
    2.281803005    6.635991191    6.834817932    6.603966365
    2.288981636    6.625342969    6.823999505    6.593316206
    2.296160267    6.614702708    6.813188440    6.582674203
    2.303338898    6.604070548    6.802384882    6.572040496
    2.310517529    6.593446630    6.791588976    6.561415225
    2.317696160    6.582831092    6.780800862    6.550798529
    2.324874791    6.572224070    6.770020683    6.540190543
    2.332053422    6.561625702    6.759248578    6.529591405
    2.339232053    6.551036121    6.748484686    6.519001248
    2.346410684    6.540455459    6.737729142    6.508420204
    2.353589316    6.529883849    6.726982083    6.497848405
    2.360767947    6.519321421    6.716243643    6.487285981
    2.367946578    6.508768303    6.705513955    6.476733060
    2.375125209    6.498224623    6.694793150    6.466189770
    2.382303840    6.487690507    6.684081358    6.455656236
    2.389482471    6.477166079    6.673378709    6.445132584
    2.396661102    6.466651464    6.662685329    6.434618935
    2.403839733    6.456146783    6.652001345    6.424115412
    2.411018364    6.445652157    6.641326881    6.413622136
    2.418196995    6.435167706    6.630662062    6.403139225
    2.425375626    6.424693547    6.620007009    6.392666798
    2.432554257    6.414229798    6.609361843    6.382204971
    2.439732888    6.403776573    6.598726685    6.371753858
    2.446911519    6.393333989    6.588101652    6.361313575
    2.454090150    6.382902156    6.577486861    6.350884234
    2.461268781    6.372481188    6.566882429    6.340465946
    2.468447412    6.362071194    6.556288470    6.330058820
    2.475626043    6.351672284    6.545705097    6.319662967
    2.482804674    6.341284566    6.535132422    6.309278494
    2.489983306    6.330908146    6.524570556    6.298905506
    2.497161937    6.320543129    6.514019609    6.288544109
    2.504340568    6.310189621    6.503479689    6.278194407
    2.511519199    6.299847724    6.492950902    6.267856502
    2.518697830    6.289517540    6.482433356    6.257530495
    2.525876461    6.279199169    6.471927154    6.247216488
    2.533055092    6.268892710    6.461432400    6.236914577
    2.540233723    6.258598263    6.450949197    6.226624862
