# energy grid [eV]     ieps_x  ieps_y  ieps_z
#
    0.200000000    6.610035432    7.772865243    2.869202119
    0.207178631    6.608726314    7.771490042    2.868834075
    0.214357262    6.607371745    7.770066962    2.868453214
    0.221535893    6.605971797    7.768596066    2.868059552
    0.228714524    6.604526546    7.767077420    2.867653106
    0.235893155    6.603036071    7.765511090    2.867233894
    0.243071786    6.601500450    7.763897146    2.866801935
    0.250250417    6.599919766    7.762235660    2.866357246
    0.257429048    6.598294105    7.760526704    2.865899847
    0.264607679    6.596623553    7.758770355    2.865429757
    0.271786311    6.594908200    7.756966689    2.864946998
    0.278964942    6.593148137    7.755115785    2.864451590
    0.286143573    6.591343458    7.753217727    2.863943553
    0.293322204    6.589494259    7.751272596    2.863422911
    0.300500835    6.587600640    7.749280478    2.862889685
    0.307679466    6.585662700    7.747241462    2.862343898
    0.314858097    6.583680542    7.745155635    2.861785575
    0.322036728    6.581654272    7.743023090    2.861214737
    0.329215359    6.579583997    7.740843920    2.860631411
    0.336393990    6.577469827    7.738618221    2.860035621
    0.343572621    6.575311873    7.736346088    2.859427393
    0.350751252    6.573110248    7.734027622    2.858806752
    0.357929883    6.570865069    7.731662923    2.858173725
    0.365108514    6.568576454    7.729252094    2.857528338
    0.372287145    6.566244523    7.726795241    2.856870621
    0.379465776    6.563869398    7.724292469    2.856200599
    0.386644407    6.561451204    7.721743888    2.855518302
    0.393823038    6.558990066    7.719149607    2.854823759
    0.401001669    6.556486113    7.716509738    2.854116999
    0.408180301    6.553939476    7.713824397    2.853398051
    0.415358932    6.551350286    7.711093698    2.852666947
    0.422537563    6.548718679    7.708317759    2.851923717
    0.429716194    6.546044790    7.705496700    2.851168393
    0.436894825    6.543328757    7.702630642    2.850401005
    0.444073456    6.540570721    7.699719707    2.849621587
    0.451252087    6.537770823    7.696764021    2.848830171
    0.458430718    6.534929208    7.693763710    2.848026790
    0.465609349    6.532046021    7.690718902    2.847211478
    0.472787980    6.529121409    7.687629726    2.846384269
    0.479966611    6.526155523    7.684496315    2.845545196
    0.487145242    6.523148513    7.681318801    2.844694296
    0.494323873    6.520100533    7.678097320    2.843831604
    0.501502504    6.517011736    7.674832008    2.842957154
    0.508681135    6.513882280    7.671523002    2.842070985
    0.515859766    6.510712323    7.668170444    2.841173131
    0.523038397    6.507502024    7.664774473    2.840263630
    0.530217028    6.504251545    7.661335234    2.839342520
    0.537395659    6.500961050    7.657852870    2.838409839
    0.544574290    6.497630702    7.654327529    2.837465625
    0.551752922    6.494260670    7.650759356    2.836509916
    0.558931553    6.490851119    7.647148502    2.835542752
    0.566110184    6.487402221    7.643495117    2.834564172
    0.573288815    6.483914146    7.639799353    2.833574216
    0.580467446    6.480387067    7.636061365    2.832572924
    0.587646077    6.476821158    7.632281306    2.831560337
    0.594824708    6.473216594    7.628459334    2.830536497
    0.602003339    6.469573554    7.624595606    2.829501444
    0.609181970    6.465892214    7.620690283    2.828455220
    0.616360601    6.462172756    7.616743524    2.827397868
    0.623539232    6.458415361    7.612755492    2.826329429
    0.630717863    6.454620210    7.608726351    2.825249948
    0.637896494    6.450787489    7.604656265    2.824159467
    0.645075125    6.446917383    7.600545401    2.823058030
    0.652253756    6.443010078    7.596393925    2.821945680
    0.659432387    6.439065762    7.592202008    2.820822462
    0.666611018    6.435084624    7.587969819    2.819688421
    0.673789649    6.431066856    7.583697529    2.818543602
    0.680968280    6.427012647    7.579385312    2.817388049
    0.688146912    6.422922192    7.575033340    2.816221809
    0.695325543    6.418795684    7.570641789    2.815044928
    0.702504174    6.414633319    7.566210836    2.813857451
    0.709682805    6.410435291    7.561740658    2.812659426
    0.716861436    6.406201800    7.557231433    2.811450898
    0.724040067    6.401933043    7.552683341    2.810231916
    0.731218698    6.397629219    7.548096563    2.809002527
    0.738397329    6.393290529    7.543471281    2.807762778
    0.745575960    6.388917175    7.538807679    2.806512718
    0.752754591    6.384509359    7.534105939    2.805252395
    0.759933222    6.380067284    7.529366249    2.803981858
    0.767111853    6.375591154    7.524588793    2.802701155
    0.774290484    6.371081175    7.519773759    2.801410336
    0.781469115    6.366537553    7.514921335    2.800109450
    0.788647746    6.361960495    7.510031711    2.798798547
    0.795826377    6.357350209    7.505105078    2.797477676
    0.803005008    6.352706903    7.500141625    2.796146889
    0.810183639    6.348030786    7.495141545    2.794806235
    0.817362270    6.343322069    7.490105032    2.793455765
    0.824540902    6.338580963    7.485032279    2.792095530
    0.831719533    6.333807680    7.479923481    2.790725581
    0.838898164    6.329002431    7.474778833    2.789345970
    0.846076795    6.324165430    7.469598533    2.787956749
    0.853255426    6.319296890    7.464382778    2.786557968
    0.860434057    6.314397027    7.459131765    2.785149681
    0.867612688    6.309466054    7.453845694    2.783731939
    0.874791319    6.304504187    7.448524765    2.782304794
    0.881969950    6.299511643    7.443169178    2.780868301
    0.889148581    6.294488638    7.437779133    2.779422511
    0.896327212    6.289435389    7.432354834    2.777967477
    0.903505843    6.284352114    7.426896483    2.776503254
    0.910684474    6.279239031    7.421404283    2.775029893
    0.917863105    6.274096358    7.415878438    2.773547450
    0.925041736    6.268924316    7.410319153    2.772055977
    0.932220367    6.263723123    7.404726632    2.770555529
    0.939398998    6.258492999    7.399101083    2.769046159
    0.946577629    6.253234164    7.393442712    2.767527923
    0.953756260    6.247946839    7.387751725    2.766000874
    0.960934891    6.242631246    7.382028330    2.764465067
    0.968113523    6.237287604    7.376272735    2.762920557
    0.975292154    6.231916136    7.370485150    2.761367399
    0.982470785    6.226517064    7.364665783    2.759805647
    0.989649416    6.221090609    7.358814844    2.758235358
    0.996828047    6.215636994    7.352932543    2.756656586
    1.004006678    6.210156442    7.347019091    2.755069386
    1.011185309    6.204649175    7.341074700    2.753473814
    1.018363940    6.199115415    7.335099579    2.751869927
    1.025542571    6.193555387    7.329093943    2.750257779
    1.032721202    6.187969313    7.323058002    2.748637426
    1.039899833    6.182357416    7.316991970    2.747008925
    1.047078464    6.176719920    7.310896059    2.745372331
    1.054257095    6.171057048    7.304770483    2.743727701
    1.061435726    6.165369023    7.298615456    2.742075091
    1.068614357    6.159656070    7.292431192    2.740414558
    1.075792988    6.153918412    7.286217904    2.738746157
    1.082971619    6.148156272    7.279975809    2.737069945
    1.090150250    6.142369873    7.273705120    2.735385979
    1.097328881    6.136559440    7.267406052    2.733694315
    1.104507513    6.130725195    7.261078822    2.731995011
    1.111686144    6.124867363    7.254723644    2.730288122
    1.118864775    6.118986165    7.248340735    2.728573706
    1.126043406    6.113081826    7.241930309    2.726851820
    1.133222037    6.107154568    7.235492584    2.725122521
    1.140400668    6.101204615    7.229027776    2.723385864
    1.147579299    6.095232188    7.222536100    2.721641909
    1.154757930    6.089237511    7.216017774    2.719890711
    1.161936561    6.083220806    7.209473014    2.718132327
    1.169115192    6.077182295    7.202902036    2.716366816
    1.176293823    6.071122199    7.196305058    2.714594233
    1.183472454    6.065040741    7.189682296    2.712814636
    1.190651085    6.058938142    7.183033966    2.711028082
    1.197829716    6.052814623    7.176360287    2.709234629
    1.205008347    6.046670405    7.169661475    2.707434333
    1.212186978    6.040505708    7.162937746    2.705627252
    1.219365609    6.034320753    7.156189318    2.703813443
    1.226544240    6.028115760    7.149416407    2.701992964
    1.233722871    6.021890947    7.142619230    2.700165870
    1.240901503    6.015646534    7.135798004    2.698332220
    1.248080134    6.009382741    7.128952946    2.696492070
    1.255258765    6.003099785    7.122084271    2.694645479
    1.262437396    5.996797884    7.115192197    2.692792502
    1.269616027    5.990477256    7.108276940    2.690933197
    1.276794658    5.984138118    7.101338716    2.689067621
    1.283973289    5.977780687    7.094377741    2.687195832
    1.291151920    5.971405178    7.087394231    2.685317885
    1.298330551    5.965011808    7.080388402    2.683433839
    1.305509182    5.958600792    7.073360469    2.681543749
    1.312687813    5.952172345    7.066310648    2.679647673
    1.319866444    5.945726680    7.059239154    2.677745668
    1.327045075    5.939264012    7.052146201    2.675837791
    1.334223706    5.932784554    7.045032005    2.673924097
    1.341402337    5.926288518    7.037896780    2.672004645
    1.348580968    5.919776116    7.030740739    2.670079489
    1.355759599    5.913247560    7.023564098    2.668148688
    1.362938230    5.906703061    7.016367069    2.666212297
    1.370116861    5.900142829    7.009149867    2.664270373
    1.377295492    5.893567074    7.001912703    2.662322971
    1.384474124    5.886976004    6.994655791    2.660370149
    1.391652755    5.880369829    6.987379343    2.658411963
    1.398831386    5.873748755    6.980083571    2.656448468
    1.406010017    5.867112991    6.972768687    2.654479721
    1.413188648    5.860462743    6.965434902    2.652505777
    1.420367279    5.853798216    6.958082426    2.650526692
    1.427545910    5.847119616    6.950711472    2.648542522
    1.434724541    5.840427146    6.943322247    2.646553322
    1.441903172    5.833721012    6.935914964    2.644559149
    1.449081803    5.827001416    6.928489830    2.642560056
    1.456260434    5.820268559    6.921047054    2.640556101
    1.463439065    5.813522645    6.913586845    2.638547337
    1.470617696    5.806763873    6.906109412    2.636533820
    1.477796327    5.799992444    6.898614961    2.634515605
    1.484974958    5.793208558    6.891103699    2.632492747
    1.492153589    5.786412412    6.883575833    2.630465300
    1.499332220    5.779604204    6.876031570    2.628433319
    1.506510851    5.772784132    6.868471114    2.626396858
    1.513689482    5.765952393    6.860894671    2.624355973
    1.520868114    5.759109180    6.853302445    2.622310716
    1.528046745    5.752254690    6.845694641    2.620261142
    1.535225376    5.745389116    6.838071461    2.618207305
    1.542404007    5.738512651    6.830433109    2.616149259
    1.549582638    5.731625487    6.822779787    2.614087057
    1.556761269    5.724727816    6.815111697    2.612020753
    1.563939900    5.717819828    6.807429040    2.609950401
    1.571118531    5.710901713    6.799732017    2.607876053
    1.578297162    5.703973661    6.792020827    2.605797762
    1.585475793    5.697035858    6.784295670    2.603715582
    1.592654424    5.690088492    6.776556746    2.601629565
    1.599833055    5.683131750    6.768804251    2.599539765
    1.607011686    5.676165817    6.761038385    2.597446232
    1.614190317    5.669190878    6.753259343    2.595349020
    1.621368948    5.662207116    6.745467322    2.593248181
    1.628547579    5.655214714    6.737662518    2.591143766
    1.635726210    5.648213854    6.729845126    2.589035828
    1.642904841    5.641204717    6.722015340    2.586924418
    1.650083472    5.634187483    6.714173354    2.584809587
    1.657262104    5.627162332    6.706319361    2.582691388
    1.664440735    5.620129442    6.698453553    2.580569870
    1.671619366    5.613088989    6.690576121    2.578445085
    1.678797997    5.606041152    6.682687258    2.576317084
    1.685976628    5.598986104    6.674787152    2.574185917
    1.693155259    5.591924022    6.666875995    2.572051635
    1.700333890    5.584855078    6.658953973    2.569914288
    1.707512521    5.577779446    6.651021276    2.567773925
    1.714691152    5.570697297    6.643078092    2.565630598
    1.721869783    5.563608802    6.635124605    2.563484355
    1.729048414    5.556514131    6.627161003    2.561335245
    1.736227045    5.549413453    6.619187471    2.559183319
    1.743405676    5.542306937    6.611204193    2.557028626
    1.750584307    5.535194749    6.603211353    2.554871213
    1.757762938    5.528077056    6.595209133    2.552711131
    1.764941569    5.520954023    6.587197716    2.550548427
    1.772120200    5.513825814    6.579177284    2.548383149
    1.779298831    5.506692592    6.571148016    2.546215347
    1.786477462    5.499554520    6.563110092    2.544045067
    1.793656093    5.492411759    6.555063693    2.541872358
    1.800834725    5.485264470    6.547008995    2.539697267
    1.808013356    5.478112812    6.538946176    2.537519841
    1.815191987    5.470956944    6.530875414    2.535340128
    1.822370618    5.463797022    6.522796883    2.533158174
    1.829549249    5.456633205    6.514710759    2.530974026
    1.836727880    5.449465646    6.506617216    2.528787731
    1.843906511    5.442294502    6.498516428    2.526599335
    1.851085142    5.435119925    6.490408567    2.524408883
    1.858263773    5.427942068    6.482293805    2.522216423
    1.865442404    5.420761083    6.474172313    2.520021998
    1.872621035    5.413577121    6.466044261    2.517825656
    1.879799666    5.406390330    6.457909818    2.515627441
    1.886978297    5.399200861    6.449769153    2.513427398
    1.894156928    5.392008861    6.441622434    2.511225571
    1.901335559    5.384814476    6.433469826    2.509022007
    1.908514190    5.377617853    6.425311497    2.506816748
    1.915692821    5.370419136    6.417147611    2.504609839
    1.922871452    5.363218469    6.408978333    2.502401324
    1.930050083    5.356015996    6.400803826    2.500191247
    1.937228715    5.348811857    6.392624252    2.497979651
    1.944407346    5.341606194    6.384439773    2.495766579
    1.951585977    5.334399146    6.376250550    2.493552074
    1.958764608    5.327190854    6.368056743    2.491336180
    1.965943239    5.319981454    6.359858511    2.489118939
    1.973121870    5.312771084    6.351656013    2.486900393
    1.980300501    5.305559880    6.343449405    2.484680584
    1.987479132    5.298347977    6.335238844    2.482459555
    1.994657763    5.291135509    6.327024486    2.480237347
    2.001836394    5.283922609    6.318806486    2.478014001
    2.009015025    5.276709409    6.310584997    2.475789559
    2.016193656    5.269496041    6.302360172    2.473564062
    2.023372287    5.262282634    6.294132164    2.471337550
    2.030550918    5.255069319    6.285901124    2.469110064
    2.037729549    5.247856223    6.277667202    2.466881646
    2.044908180    5.240643473    6.269430547    2.464652333
    2.052086811    5.233431196    6.261191309    2.462422167
    2.059265442    5.226219517    6.252949635    2.460191188
    2.066444073    5.219008561    6.244705672    2.457959434
    2.073622705    5.211798451    6.236459565    2.455726945
    2.080801336    5.204589310    6.228211460    2.453493759
    2.087979967    5.197381260    6.219961501    2.451259917
    2.095158598    5.190174420    6.211709832    2.449025455
    2.102337229    5.182968910    6.203456594    2.446790413
    2.109515860    5.175764850    6.195201930    2.444554828
    2.116694491    5.168562357    6.186945979    2.442318738
    2.123873122    5.161361548    6.178688882    2.440082182
    2.131051753    5.154162539    6.170430777    2.437845195
    2.138230384    5.146965444    6.162171803    2.435607816
    2.145409015    5.139770378    6.153912097    2.433370081
    2.152587646    5.132577453    6.145651794    2.431132027
    2.159766277    5.125386783    6.137391030    2.428893691
    2.166944908    5.118198477    6.129129940    2.426655108
    2.174123539    5.111012647    6.120868656    2.424416315
    2.181302170    5.103829402    6.112607312    2.422177347
    2.188480801    5.096648850    6.104346040    2.419938241
    2.195659432    5.089471098    6.096084970    2.417699030
    2.202838063    5.082296254    6.087824232    2.415459751
    2.210016694    5.075124423    6.079563955    2.413220437
    2.217195326    5.067955709    6.071304267    2.410981125
    2.224373957    5.060790217    6.063045297    2.408741848
    2.231552588    5.053628050    6.054787170    2.406502639
    2.238731219    5.046469309    6.046530011    2.404263535
    2.245909850    5.039314095    6.038273947    2.402024567
    2.253088481    5.032162510    6.030019099    2.399785769
    2.260267112    5.025014653    6.021765592    2.397547175
    2.267445743    5.017870621    6.013513546    2.395308817
    2.274624374    5.010730512    6.005263085    2.393070729
    2.281803005    5.003594424    5.997014327    2.390832943
    2.288981636    4.996462452    5.988767392    2.388595491
    2.296160267    4.989334690    5.980522399    2.386358405
    2.303338898    4.982211234    5.972279465    2.384121717
    2.310517529    4.975092176    5.964038707    2.381885460
    2.317696160    4.967977609    5.955800241    2.379649663
    2.324874791    4.960867623    5.947564182    2.377414359
    2.332053422    4.953762311    5.939330645    2.375179578
    2.339232053    4.946661761    5.931099742    2.372945352
    2.346410684    4.939566062    5.922871586    2.370711710
    2.353589316    4.932475302    5.914646289    2.368478683
    2.360767947    4.925389570    5.906423962    2.366246301
    2.367946578    4.918308950    5.898204714    2.364014594
    2.375125209    4.911233529    5.889988654    2.361783591
    2.382303840    4.904163392    5.881775890    2.359553322
    2.389482471    4.897098621    5.873566531    2.357323817
    2.396661102    4.890039301    5.865360682    2.355095103
    2.403839733    4.882985514    5.857158449    2.352867210
    2.411018364    4.875937340    5.848959936    2.350640166
    2.418196995    4.868894861    5.840765248    2.348413999
    2.425375626    4.861858156    5.832574488    2.346188738
    2.432554257    4.854827304    5.824387759    2.343964411
    2.439732888    4.847802383    5.816205160    2.341741044
    2.446911519    4.840783472    5.808026794    2.339518666
    2.454090150    4.833770646    5.799852759    2.337297304
    2.461268781    4.826763981    5.791683156    2.335076984
    2.468447412    4.819763552    5.783518081    2.332857734
    2.475626043    4.812769433    5.775357632    2.330639579
    2.482804674    4.805781698    5.767201906    2.328422547
    2.489983306    4.798800420    5.759050998    2.326206663
    2.497161937    4.791825670    5.750905004    2.323991954
    2.504340568    4.784857519    5.742764016    2.321778444
    2.511519199    4.777896038    5.734628128    2.319566160
    2.518697830    4.770941296    5.726497434    2.317355126
    2.525876461    4.763993363    5.718372023    2.315145368
    2.533055092    4.757052306    5.710251988    2.312936911
    2.540233723    4.750118192    5.702137417    2.310729779
