# energy grid [eV]     ieps_x  ieps_y  ieps_z
#
    0.200000000    6.117594027    5.783002070    7.887394317
    0.207178631    6.116314466    5.781830141    7.885723374
    0.214357262    6.114990808    5.780617858    7.883994870
    0.221535893    6.113623154    5.779365319    7.882208939
    0.228714524    6.112211611    5.778072623    7.880365721
    0.235893155    6.110756288    5.776739871    7.878465357
    0.243071786    6.109257295    5.775367169    7.876507994
    0.250250417    6.107714748    5.773954623    7.874493781
    0.257429048    6.106128764    5.772502342    7.872422870
    0.264607679    6.104499463    5.771010438    7.870295418
    0.271786311    6.102826968    5.769479026    7.868111584
    0.278964942    6.101111403    5.767908221    7.865871531
    0.286143573    6.099352897    5.766298142    7.863575422
    0.293322204    6.097551581    5.764648910    7.861223428
    0.300500835    6.095707587    5.762960647    7.858815719
    0.307679466    6.093821052    5.761233478    7.856352469
    0.314858097    6.091892113    5.759467530    7.853833855
    0.322036728    6.089920910    5.757662932    7.851260057
    0.329215359    6.087907586    5.755819814    7.848631256
    0.336393990    6.085852286    5.753938308    7.845947637
    0.343572621    6.083755158    5.752018550    7.843209388
    0.350751252    6.081616350    5.750060674    7.840416697
    0.357929883    6.079436014    5.748064818    7.837569757
    0.365108514    6.077214303    5.746031122    7.834668761
    0.372287145    6.074951374    5.743959727    7.831713907
    0.379465776    6.072647383    5.741850775    7.828705391
    0.386644407    6.070302491    5.739704409    7.825643415
    0.393823038    6.067916859    5.737520775    7.822528181
    0.401001669    6.065490649    5.735300021    7.819359893
    0.408180301    6.063024028    5.733042293    7.816138759
    0.415358932    6.060517162    5.730747742    7.812864985
    0.422537563    6.057970220    5.728416517    7.809538781
    0.429716194    6.055383372    5.726048772    7.806160361
    0.436894825    6.052756790    5.723644659    7.802729935
    0.444073456    6.050090648    5.721204333    7.799247721
    0.451252087    6.047385120    5.718727949    7.795713933
    0.458430718    6.044640384    5.716215664    7.792128790
    0.465609349    6.041856618    5.713667635    7.788492512
    0.472787980    6.039034001    5.711084021    7.784805320
    0.479966611    6.036172714    5.708464982    7.781067436
    0.487145242    6.033272940    5.705810678    7.777279083
    0.494323873    6.030334862    5.703121272    7.773440487
    0.501502504    6.027358666    5.700396925    7.769551874
    0.508681135    6.024344537    5.697637801    7.765613472
    0.515859766    6.021292664    5.694844065    7.761625509
    0.523038397    6.018203235    5.692015881    7.757588215
    0.530217028    6.015076440    5.689153415    7.753501822
    0.537395659    6.011912469    5.686256835    7.749366562
    0.544574290    6.008711516    5.683326307    7.745182668
    0.551752922    6.005473772    5.680362000    7.740950374
    0.558931553    6.002199433    5.677364083    7.736669916
    0.566110184    5.998888694    5.674332724    7.732341530
    0.573288815    5.995541750    5.671268096    7.727965453
    0.580467446    5.992158800    5.668170367    7.723541924
    0.587646077    5.988740040    5.665039711    7.719071182
    0.594824708    5.985285670    5.661876299    7.714553468
    0.602003339    5.981795889    5.658680304    7.709989021
    0.609181970    5.978270899    5.655451899    7.705378084
    0.616360601    5.974710900    5.652191259    7.700720900
    0.623539232    5.971116095    5.648898557    7.696017712
    0.630717863    5.967486686    5.645573969    7.691268764
    0.637896494    5.963822878    5.642217670    7.686474302
    0.645075125    5.960124875    5.638829836    7.681634571
    0.652253756    5.956392881    5.635410643    7.676749817
    0.659432387    5.952627102    5.631960270    7.671820289
    0.666611018    5.948827745    5.628478892    7.666846233
    0.673789649    5.944995016    5.624966688    7.661827898
    0.680968280    5.941129123    5.621423836    7.656765535
    0.688146912    5.937230275    5.617850514    7.651659392
    0.695325543    5.933298678    5.614246903    7.646509721
    0.702504174    5.929334543    5.610613180    7.641316771
    0.709682805    5.925338079    5.606949527    7.636080797
    0.716861436    5.921309496    5.603256124    7.630802048
    0.724040067    5.917249004    5.599533150    7.625480780
    0.731218698    5.913156814    5.595780787    7.620117244
    0.738397329    5.909033138    5.591999216    7.614711696
    0.745575960    5.904878188    5.588188619    7.609264389
    0.752754591    5.900692174    5.584349177    7.603775580
    0.759933222    5.896475310    5.580481073    7.598245523
    0.767111853    5.892227808    5.576584490    7.592674474
    0.774290484    5.887949882    5.572659609    7.587062691
    0.781469115    5.883641743    5.568706615    7.581410429
    0.788647746    5.879303607    5.564725690    7.575717948
    0.795826377    5.874935687    5.560717017    7.569985504
    0.803005008    5.870538197    5.556680781    7.564213357
    0.810183639    5.866111350    5.552617166    7.558401764
    0.817362270    5.861655362    5.548526356    7.552550985
    0.824540902    5.857170447    5.544408535    7.546661280
    0.831719533    5.852656820    5.540263888    7.540732908
    0.838898164    5.848114696    5.536092600    7.534766130
    0.846076795    5.843544290    5.531894855    7.528761207
    0.853255426    5.838945816    5.527670839    7.522718399
    0.860434057    5.834319491    5.523420738    7.516637968
    0.867612688    5.829665529    5.519144737    7.510520175
    0.874791319    5.824984146    5.514843021    7.504365282
    0.881969950    5.820275557    5.510515776    7.498173552
    0.889148581    5.815539979    5.506163188    7.491945247
    0.896327212    5.810777625    5.501785443    7.485680629
    0.903505843    5.805988712    5.497382727    7.479379962
    0.910684474    5.801173455    5.492955227    7.473043508
    0.917863105    5.796332070    5.488503129    7.466671532
    0.925041736    5.791464772    5.484026618    7.460264296
    0.932220367    5.786571777    5.479525882    7.453822064
    0.939398998    5.781653299    5.475001107    7.447345101
    0.946577629    5.776709553    5.470452480    7.440833671
    0.953756260    5.771740756    5.465880187    7.434288037
    0.960934891    5.766747121    5.461284414    7.427708464
    0.968113523    5.761728864    5.456665349    7.421095217
    0.975292154    5.756686199    5.452023178    7.414448560
    0.982470785    5.751619341    5.447358087    7.407768758
    0.989649416    5.746528504    5.442670264    7.401056075
    0.996828047    5.741413903    5.437959894    7.394310778
    1.004006678    5.736275750    5.433227165    7.387533129
    1.011185309    5.731114261    5.428472263    7.380723395
    1.018363940    5.725929648    5.423695375    7.373881840
    1.025542571    5.720722125    5.418896686    7.367008729
    1.032721202    5.715491904    5.414076384    7.360104328
    1.039899833    5.710239200    5.409234654    7.353168900
    1.047078464    5.704964223    5.404371683    7.346202712
    1.054257095    5.699667187    5.399487657    7.339206027
    1.061435726    5.694348303    5.394582762    7.332179110
    1.068614357    5.689007783    5.389657184    7.325122227
    1.075792988    5.683645838    5.384711109    7.318035641
    1.082971619    5.678262679    5.379744722    7.310919618
    1.090150250    5.672858517    5.374758208    7.303774421
    1.097328881    5.667433562    5.369751754    7.296600315
    1.104507513    5.661988024    5.364725544    7.289397563
    1.111686144    5.656522112    5.359679763    7.282166430
    1.118864775    5.651036036    5.354614597    7.274907180
    1.126043406    5.645530003    5.349530229    7.267620076
    1.133222037    5.640004223    5.344426845    7.260305381
    1.140400668    5.634458904    5.339304628    7.252963358
    1.147579299    5.628894252    5.334163763    7.245594270
    1.154757930    5.623310475    5.329004433    7.238198380
    1.161936561    5.617707780    5.323826822    7.230775950
    1.169115192    5.612086371    5.318631113    7.223327242
    1.176293823    5.606446456    5.313417489    7.215852518
    1.183472454    5.600788239    5.308186134    7.208352040
    1.190651085    5.595111924    5.302937229    7.200826067
    1.197829716    5.589417717    5.297670957    7.193274862
    1.205008347    5.583705819    5.292387499    7.185698685
    1.212186978    5.577976435    5.287087039    7.178097795
    1.219365609    5.572229768    5.281769756    7.170472453
    1.226544240    5.566466018    5.276435831    7.162822917
    1.233722871    5.560685388    5.271085447    7.155149447
    1.240901503    5.554888078    5.265718782    7.147452301
    1.248080134    5.549074289    5.260336018    7.139731738
    1.255258765    5.543244220    5.254937332    7.131988014
    1.262437396    5.537398071    5.249522906    7.124221387
    1.269616027    5.531536040    5.244092918    7.116432113
    1.276794658    5.525658325    5.238647546    7.108620449
    1.283973289    5.519765123    5.233186969    7.100786651
    1.291151920    5.513856632    5.227711365    7.092930974
    1.298330551    5.507933047    5.222220910    7.085053671
    1.305509182    5.501994564    5.216715782    7.077154998
    1.312687813    5.496041377    5.211196158    7.069235209
    1.319866444    5.490073681    5.205662213    7.061294555
    1.327045075    5.484091670    5.200114123    7.053333290
    1.334223706    5.478095535    5.194552064    7.045351665
    1.341402337    5.472085470    5.188976211    7.037349932
    1.348580968    5.466061665    5.183386737    7.029328341
    1.355759599    5.460024313    5.177783816    7.021287142
    1.362938230    5.453973602    5.172167623    7.013226586
    1.370116861    5.447909722    5.166538330    7.005146920
    1.377295492    5.441832861    5.160896109    6.997048392
    1.384474124    5.435743209    5.155241132    6.988931251
    1.391652755    5.429640952    5.149573572    6.980795742
    1.398831386    5.423526277    5.143893598    6.972642112
    1.406010017    5.417399369    5.138201382    6.964470607
    1.413188648    5.411260414    5.132497093    6.956281471
    1.420367279    5.405109595    5.126780900    6.948074947
    1.427545910    5.398947098    5.121052973    6.939851280
    1.434724541    5.392773103    5.115313480    6.931610712
    1.441903172    5.386587794    5.109562588    6.923353484
    1.449081803    5.380391353    5.103800465    6.915079837
    1.456260434    5.374183958    5.098027277    6.906790012
    1.463439065    5.367965790    5.092243191    6.898484247
    1.470617696    5.361737029    5.086448372    6.890162782
    1.477796327    5.355497852    5.080642985    6.881825855
    1.484974958    5.349248437    5.074827195    6.873473702
    1.492153589    5.342988960    5.069001164    6.865106560
    1.499332220    5.336719598    5.063165056    6.856724663
    1.506510851    5.330440525    5.057319035    6.848328247
    1.513689482    5.324151915    5.051463261    6.839917545
    1.520868114    5.317853942    5.045597896    6.831492790
    1.528046745    5.311546778    5.039723100    6.823054214
    1.535225376    5.305230596    5.033839035    6.814602048
    1.542404007    5.298905566    5.027945859    6.806136522
    1.549582638    5.292571858    5.022043731    6.797657866
    1.556761269    5.286229642    5.016132809    6.789166307
    1.563939900    5.279879086    5.010213251    6.780662074
    1.571118531    5.273520358    5.004285214    6.772145393
    1.578297162    5.267153624    4.998348854    6.763616490
    1.585475793    5.260779050    4.992404326    6.755075589
    1.592654424    5.254396802    4.986451785    6.746522914
    1.599833055    5.248007044    4.980491387    6.737958689
    1.607011686    5.241609939    4.974523283    6.729383134
    1.614190317    5.235205649    4.968547628    6.720796472
    1.621368948    5.228794337    4.962564573    6.712198922
    1.628547579    5.222376162    4.956574270    6.703590703
    1.635726210    5.215951286    4.950576869    6.694972033
    1.642904841    5.209519867    4.944572521    6.686343129
    1.650083472    5.203082063    4.938561376    6.677704208
    1.657262104    5.196638032    4.932543581    6.669055485
    1.664440735    5.190187930    4.926519285    6.660397173
    1.671619366    5.183731913    4.920488636    6.651729485
    1.678797997    5.177270136    4.914451780    6.643052635
    1.685976628    5.170802751    4.908408862    6.634366832
    1.693155259    5.164329913    4.902360029    6.625672288
    1.700333890    5.157851774    4.896305424    6.616969210
    1.707512521    5.151368483    4.890245191    6.608257808
    1.714691152    5.144880193    4.884179473    6.599538288
    1.721869783    5.138387052    4.878108413    6.590810856
    1.729048414    5.131889210    4.872032152    6.582075716
    1.736227045    5.125386812    4.865950831    6.573333073
    1.743405676    5.118880007    4.859864590    6.564583130
    1.750584307    5.112368941    4.853773568    6.555826088
    1.757762938    5.105853757    4.847677904    6.547062149
    1.764941569    5.099334601    4.841577736    6.538291510
    1.772120200    5.092811615    4.835473200    6.529514372
    1.779298831    5.086284943    4.829364434    6.520730931
    1.786477462    5.079754724    4.823251572    6.511941385
    1.793656093    5.073221101    4.817134750    6.503145928
    1.800834725    5.066684212    4.811014101    6.494344754
    1.808013356    5.060144197    4.804889760    6.485538057
    1.815191987    5.053601192    4.798761858    6.476726029
    1.822370618    5.047055336    4.792630528    6.467908861
    1.829549249    5.040506764    4.786495900    6.459086743
    1.836727880    5.033955612    4.780358104    6.450259863
    1.843906511    5.027402013    4.774217271    6.441428409
    1.851085142    5.020846102    4.768073529    6.432592569
    1.858263773    5.014288010    4.761927006    6.423752526
    1.865442404    5.007727870    4.755777828    6.414908467
    1.872621035    5.001165811    4.749626124    6.406060573
    1.879799666    4.994601965    4.743472018    6.397209028
    1.886978297    4.988036459    4.737315635    6.388354012
    1.894156928    4.981469422    4.731157099    6.379495705
    1.901335559    4.974900982    4.724996534    6.370634287
    1.908514190    4.968331264    4.718834062    6.361769934
    1.915692821    4.961760393    4.712669805    6.352902824
    1.922871452    4.955188495    4.706503884    6.344033132
    1.930050083    4.948615693    4.700336419    6.335161033
    1.937228715    4.942042110    4.694167530    6.326286699
    1.944407346    4.935467867    4.687997336    6.317410304
    1.951585977    4.928893086    4.681825954    6.308532017
    1.958764608    4.922317887    4.675653501    6.299652009
    1.965943239    4.915742388    4.669480095    6.290770449
    1.973121870    4.909166709    4.663305850    6.281887505
    1.980300501    4.902590967    4.657130881    6.273003342
    1.987479132    4.896015278    4.650955302    6.264118127
    1.994657763    4.889439758    4.644779227    6.255232024
    2.001836394    4.882864522    4.638602769    6.246345196
    2.009015025    4.876289685    4.632426037    6.237457805
    2.016193656    4.869715358    4.626249145    6.228570012
    2.023372287    4.863141655    4.620072201    6.219681977
    2.030550918    4.856568687    4.613895316    6.210793859
    2.037729549    4.849996564    4.607718597    6.201905816
    2.044908180    4.843425396    4.601542153    6.193018003
    2.052086811    4.836855292    4.595366091    6.184130576
    2.059265442    4.830286360    4.589190517    6.175243690
    2.066444073    4.823718706    4.583015536    6.166357497
    2.073622705    4.817152438    4.576841253    6.157472151
    2.080801336    4.810587661    4.570667772    6.148587801
    2.087979967    4.804024479    4.564495197    6.139704597
    2.095158598    4.797462996    4.558323629    6.130822689
    2.102337229    4.790903314    4.552153171    6.121942224
    2.109515860    4.784345536    4.545983923    6.113063348
    2.116694491    4.777789764    4.539815986    6.104186206
    2.123873122    4.771236097    4.533649458    6.095310944
    2.131051753    4.764684635    4.527484439    6.086437704
    2.138230384    4.758135476    4.521321026    6.077566628
    2.145409015    4.751588719    4.515159316    6.068697858
    2.152587646    4.745044461    4.508999405    6.059831532
    2.159766277    4.738502797    4.502841390    6.050967791
    2.166944908    4.731963824    4.496685365    6.042106771
    2.174123539    4.725427635    4.490531424    6.033248610
    2.181302170    4.718894326    4.484379660    6.024393442
    2.188480801    4.712363987    4.478230166    6.015541403
    2.195659432    4.705836713    4.472083033    6.006692625
    2.202838063    4.699312593    4.465938354    5.997847241
    2.210016694    4.692791720    4.459796217    5.989005383
    2.217195326    4.686274181    4.453656712    5.980167179
    2.224373957    4.679760067    4.447519929    5.971332760
    2.231552588    4.673249466    4.441385955    5.962502253
    2.238731219    4.666742464    4.435254878    5.953675785
    2.245909850    4.660239149    4.429126785    5.944853482
    2.253088481    4.653739606    4.423001760    5.936035469
    2.260267112    4.647243921    4.416879890    5.927221869
    2.267445743    4.640752177    4.410761258    5.918412805
    2.274624374    4.634264457    4.404645949    5.909608399
    2.281803005    4.627780846    4.398534045    5.900808771
    2.288981636    4.621301424    4.392425628    5.892014041
    2.296160267    4.614826273    4.386320781    5.883224328
    2.303338898    4.608355473    4.380219583    5.874439747
    2.310517529    4.601889104    4.374122115    5.865660417
    2.317696160    4.595427244    4.368028456    5.856886452
    2.324874791    4.588969972    4.361938685    5.848117967
    2.332053422    4.582517365    4.355852880    5.839355075
    2.339232053    4.576069500    4.349771118    5.830597888
    2.346410684    4.569626453    4.343693475    5.821846518
    2.353589316    4.563188298    4.337620027    5.813101074
    2.360767947    4.556755110    4.331550850    5.804361666
    2.367946578    4.550326963    4.325486017    5.795628402
    2.375125209    4.543903930    4.319425603    5.786901389
    2.382303840    4.537486083    4.313369680    5.778180734
    2.389482471    4.531073493    4.307318321    5.769466541
    2.396661102    4.524666232    4.301271598    5.760758915
    2.403839733    4.518264369    4.295229581    5.752057959
    2.411018364    4.511867973    4.289192340    5.743363776
    2.418196995    4.505477114    4.283159946    5.734676465
    2.425375626    4.499091858    4.277132467    5.725996128
    2.432554257    4.492712274    4.271109971    5.717322865
    2.439732888    4.486338429    4.265092526    5.708656772
    2.446911519    4.479970386    4.259080199    5.699997948
    2.454090150    4.473608213    4.253073056    5.691346489
    2.461268781    4.467251973    4.247071163    5.682702490
    2.468447412    4.460901730    4.241074584    5.674066045
    2.475626043    4.454557547    4.235083384    5.665437249
    2.482804674    4.448219487    4.229097627    5.656816194
    2.489983306    4.441887611    4.223117375    5.648202971
    2.497161937    4.435561980    4.217142690    5.639597671
    2.504340568    4.429242656    4.211173635    5.631000383
    2.511519199    4.422929696    4.205210270    5.622411197
    2.518697830    4.416623162    4.199252656    5.613830201
    2.525876461    4.410323110    4.193300852    5.605257481
    2.533055092    4.404029599    4.187354918    5.596693123
    2.540233723    4.397742686    4.181414912    5.588137212
