# energy grid [eV]     ieps_x  ieps_y  ieps_z
#
    0.200000000   14.483305319   15.945911416   16.131286447
    0.207178631   14.476924694   15.939057557   16.124271690
    0.214357262   14.470348305   15.931993698   16.117043064
    0.221535893   14.463578705   15.924722531   16.109603414
    0.228714524   14.456618461   15.917246757   16.101955589
    0.235893155   14.449470156   15.909569078   16.094102442
    0.243071786   14.442136380   15.901692197   16.086046826
    0.250250417   14.434619729   15.893618810   16.077791584
    0.257429048   14.426922799   15.885351605   16.069339551
    0.264607679   14.419048182   15.876893253   16.060693544
    0.271786311   14.410998465   15.868246412   16.051856362
    0.278964942   14.402776224   15.859413718   16.042830782
    0.286143573   14.394384022   15.850397783   16.033619554
    0.293322204   14.385824407   15.841201193   16.024225401
    0.300500835   14.377099906   15.831826507   16.014651012
    0.307679466   14.368213026   15.822276251   16.004899042
    0.314858097   14.359166251   15.812552917   15.994972111
    0.322036728   14.349962037   15.802658965   15.984872800
    0.329215359   14.340602813   15.792596815   15.974603649
    0.336393990   14.331090978   15.782368852   15.964167158
    0.343572621   14.321428900   15.771977419   15.953565782
    0.350751252   14.311618913   15.761424820   15.942801932
    0.357929883   14.301663317   15.750713317   15.931877976
    0.365108514   14.291564377   15.739845132   15.920796234
    0.372287145   14.281324320   15.728822442   15.909558981
    0.379465776   14.270945338   15.717647384   15.898168445
    0.386644407   14.260429583   15.706322049   15.886626807
    0.393823038   14.249779168   15.694848487   15.874936202
    0.401001669   14.238996169   15.683228706   15.863098716
    0.408180301   14.228082620   15.671464669   15.851116392
    0.415358932   14.217040518   15.659558298   15.838991222
    0.422537563   14.205871818   15.647511471   15.826725156
    0.429716194   14.194578435   15.635326026   15.814320097
    0.436894825   14.183162247   15.623003760   15.801777904
    0.444073456   14.171625089   15.610546429   15.789100391
    0.451252087   14.159968760   15.597955749   15.776289329
    0.458430718   14.148195017   15.585233397   15.763346447
    0.465609349   14.136305580   15.572381012   15.750273432
    0.472787980   14.124302130   15.559400194   15.737071931
    0.479966611   14.112186311   15.546292509   15.723743550
    0.487145242   14.099959731   15.533059485   15.710289856
    0.494323873   14.087623959   15.519702616   15.696712381
    0.501502504   14.075180530   15.506223364   15.683012618
    0.508681135   14.062630942   15.492623154   15.669192025
    0.515859766   14.049976661   15.478903382   15.655252026
    0.523038397   14.037219118   15.465065414   15.641194010
    0.530217028   14.024359710   15.451110583   15.627019335
    0.537395659   14.011399805   15.437040195   15.612729329
    0.544574290   13.998340735   15.422855528   15.598325287
    0.551752922   13.985183806   15.408557832   15.583808476
    0.558931553   13.971930292   15.394148333   15.569180137
    0.566110184   13.958581437   15.379628229   15.554441481
    0.573288815   13.945138460   15.364998696   15.539593695
    0.580467446   13.931602550   15.350260886   15.524637940
    0.587646077   13.917974871   15.335415930   15.509575355
    0.594824708   13.904256561   15.320464937   15.494407055
    0.602003339   13.890448734   15.305408994   15.479134132
    0.609181970   13.876552478   15.290249170   15.463757658
    0.616360601   13.862568860   15.274986516   15.448278687
    0.623539232   13.848498925   15.259622062   15.432698250
    0.630717863   13.834343694   15.244156825   15.417017363
    0.637896494   13.820104169   15.228591803   15.401237024
    0.645075125   13.805781332   15.212927978   15.385358212
    0.652253756   13.791376145   15.197166320   15.369381894
    0.659432387   13.776889552   15.181307781   15.353309020
    0.666611018   13.762322480   15.165353303   15.337140525
    0.673789649   13.747675837   15.149303813   15.320877333
    0.680968280   13.732950516   15.133160227   15.304520353
    0.688146912   13.718147393   15.116923448   15.288070482
    0.695325543   13.703267332   15.100594371   15.271528608
    0.702504174   13.688311178   15.084173878   15.254895604
    0.709682805   13.673279765   15.067662841   15.238172337
    0.716861436   13.658173914   15.051062125   15.221359662
    0.724040067   13.642994433   15.034372585   15.204458425
    0.731218698   13.627742116   15.017595066   15.187469463
    0.738397329   13.612417747   15.000730408   15.170393606
    0.745575960   13.597022100   14.983779441   15.153231677
    0.752754591   13.581555936   14.966742991   15.135984489
    0.759933222   13.566020008   14.949621875   15.118652851
    0.767111853   13.550415059   14.932416904   15.101237564
    0.774290484   13.534741821   14.915128884   15.083739424
    0.781469115   13.519001020   14.897758615   15.066159221
    0.788647746   13.503193372   14.880306892   15.048497741
    0.795826377   13.487319586   14.862774505   15.030755762
    0.803005008   13.471380363   14.845162240   15.012934060
    0.810183639   13.455376397   14.827470878   14.995033407
    0.817362270   13.439308374   14.809701197   14.977054570
    0.824540902   13.423176977   14.791853968   14.958998311
    0.831719533   13.406982878   14.773929963   14.940865391
    0.838898164   13.390726748   14.755929948   14.922656567
    0.846076795   13.374409249   14.737854686   14.904372592
    0.853255426   13.358031040   14.719704938   14.886014217
    0.860434057   13.341592774   14.701481461   14.867582190
    0.867612688   13.325095098   14.683185010   14.849077256
    0.874791319   13.308538657   14.664816339   14.830500159
    0.881969950   13.291924091   14.646376196   14.811851641
    0.889148581   13.275252034   14.627865331   14.793132441
    0.896327212   13.258523120   14.609284489   14.774343295
    0.903505843   13.241737975   14.590634415   14.755484940
    0.910684474   13.224897226   14.571915850   14.736558109
    0.917863105   13.208001492   14.553129537   14.717563535
    0.925041736   13.191051393   14.534276213   14.698501949
    0.932220367   13.174047545   14.515356616   14.679374081
    0.939398998   13.156990558   14.496371481   14.660180658
    0.946577629   13.139881044   14.477321545   14.640922409
    0.953756260   13.122719611   14.458207538   14.621600058
    0.960934891   13.105506861   14.439030195   14.602214332
    0.968113523   13.088243400   14.419790244   14.582765953
    0.975292154   13.070929826   14.400488415   14.563255644
    0.982470785   13.053566739   14.381125437   14.543684128
    0.989649416   13.036154735   14.361702037   14.524052125
    0.996828047   13.018694407   14.342218939   14.504360355
    1.004006678   13.001186349   14.322676870   14.484609536
    1.011185309   12.983631151   14.303076552   14.464800388
    1.018363940   12.966029403   14.283418708   14.444933626
    1.025542571   12.948381692   14.263704059   14.425009968
    1.032721202   12.930688602   14.243933326   14.405030129
    1.039899833   12.912950720   14.224107227   14.384994823
    1.047078464   12.895168627   14.204226481   14.364904763
    1.054257095   12.877342904   14.184291805   14.344760663
    1.061435726   12.859474132   14.164303914   14.324563233
    1.068614357   12.841562888   14.144263523   14.304313186
    1.075792988   12.823609750   14.124171346   14.284011229
    1.082971619   12.805615293   14.104028094   14.263658073
    1.090150250   12.787580091   14.083834479   14.243254425
    1.097328881   12.769504717   14.063591210   14.222800991
    1.104507513   12.751389744   14.043298997   14.202298477
    1.111686144   12.733235741   14.022958546   14.181747587
    1.118864775   12.715043277   14.002570563   14.161149026
    1.126043406   12.696812920   13.982135754   14.140503494
    1.133222037   12.678545236   13.961654820   14.119811693
    1.140400668   12.660240791   13.941128464   14.099074322
    1.147579299   12.641900148   13.920557387   14.078292081
    1.154757930   12.623523870   13.899942287   14.057465665
    1.161936561   12.605112519   13.879283860   14.036595770
    1.169115192   12.586666653   13.858582804   14.015683092
    1.176293823   12.568186832   13.837839813   13.994728321
    1.183472454   12.549673612   13.817055578   13.973732151
    1.190651085   12.531127551   13.796230790   13.952695269
    1.197829716   12.512549201   13.775366139   13.931618366
    1.205008347   12.493939117   13.754462312   13.910502126
    1.212186978   12.475297850   13.733519994   13.889347235
    1.219365609   12.456625950   13.712539869   13.868154376
    1.226544240   12.437923967   13.691522618   13.846924230
    1.233722871   12.419192447   13.670468922   13.825657477
    1.240901503   12.400431937   13.649379459   13.804354794
    1.248080134   12.381642981   13.628254903   13.783016857
    1.255258765   12.362826121   13.607095930   13.761644340
    1.262437396   12.343981900   13.585903210   13.740237914
    1.269616027   12.325110857   13.564677412   13.718798250
    1.276794658   12.306213529   13.543419205   13.697326014
    1.283973289   12.287290454   13.522129254   13.675821873
    1.291151920   12.268342166   13.500808220   13.654286490
    1.298330551   12.249369199   13.479456765   13.632720526
    1.305509182   12.230372083   13.458075546   13.611124639
    1.312687813   12.211351349   13.436665220   13.589499487
    1.319866444   12.192307525   13.415226440   13.567845723
    1.327045075   12.173241136   13.393759855   13.546164000
    1.334223706   12.154152707   13.372266116   13.524454966
    1.341402337   12.135042761   13.350745868   13.502719269
    1.348580968   12.115911817   13.329199752   13.480957553
    1.355759599   12.096760396   13.307628412   13.459170459
    1.362938230   12.077589012   13.286032483   13.437358628
    1.370116861   12.058398182   13.264412601   13.415522695
    1.377295492   12.039188419   13.242769399   13.393663295
    1.384474124   12.019960232   13.221103507   13.371781058
    1.391652755   12.000714131   13.199415550   13.349876614
    1.398831386   11.981450622   13.177706154   13.327950587
    1.406010017   11.962170211   13.155975939   13.306003602
    1.413188648   11.942873399   13.134225523   13.284036277
    1.420367279   11.923560687   13.112455522   13.262049231
    1.427545910   11.904232574   13.090666548   13.240043076
    1.434724541   11.884889554   13.068859211   13.218018425
    1.441903172   11.865532123   13.047034116   13.195975886
    1.449081803   11.846160771   13.025191867   13.173916064
    1.456260434   11.826775989   13.003333064   13.151839561
    1.463439065   11.807378262   12.981458304   13.129746977
    1.470617696   11.787968076   12.959568181   13.107638907
    1.477796327   11.768545913   12.937663286   13.085515944
    1.484974958   11.749112253   12.915744205   13.063378678
    1.492153589   11.729667574   12.893811524   13.041227696
    1.499332220   11.710212351   12.871865823   13.019063581
    1.506510851   11.690747056   12.849907680   12.996886913
    1.513689482   11.671272161   12.827937670   12.974698269
    1.520868114   11.651788132   12.805956363   12.952498222
    1.528046745   11.632295437   12.783964327   12.930287343
    1.535225376   11.612794536   12.761962127   12.908066199
    1.542404007   11.593285891   12.739950325   12.885835353
    1.549582638   11.573769960   12.717929476   12.863595365
    1.556761269   11.554247198   12.695900137   12.841346792
    1.563939900   11.534718057   12.673862856   12.819090188
    1.571118531   11.515182989   12.651818183   12.796826101
    1.578297162   11.495642440   12.629766660   12.774555080
    1.585475793   11.476096854   12.607708829   12.752277667
    1.592654424   11.456546676   12.585645225   12.729994400
    1.599833055   11.436992344   12.563576383   12.707705817
    1.607011686   11.417434294   12.541502831   12.685412450
    1.614190317   11.397872962   12.519425097   12.663114828
    1.621368948   11.378308779   12.497343703   12.640813476
    1.628547579   11.358742174   12.475259168   12.618508916
    1.635726210   11.339173573   12.453172008   12.596201666
    1.642904841   11.319603399   12.431082735   12.573892241
    1.650083472   11.300032072   12.408991857   12.551581152
    1.657262104   11.280460012   12.386899878   12.529268907
    1.664440735   11.260887633   12.364807300   12.506956010
    1.671619366   11.241315347   12.342714621   12.484642960
    1.678797997   11.221743563   12.320622334   12.462330254
    1.685976628   11.202172690   12.298530929   12.440018386
    1.693155259   11.182603129   12.276440893   12.417707844
    1.700333890   11.163035284   12.254352709   12.395399114
    1.707512521   11.143469551   12.232266856   12.373092679
    1.714691152   11.123906327   12.210183809   12.350789017
    1.721869783   11.104346004   12.188104041   12.328488601
    1.729048414   11.084788972   12.166028020   12.306191904
    1.736227045   11.065235618   12.143956209   12.283899393
    1.743405676   11.045686326   12.121889071   12.261611531
    1.750584307   11.026141477   12.099827062   12.239328778
    1.757762938   11.006601450   12.077770635   12.217051590
    1.764941569   10.987066620   12.055720240   12.194780421
    1.772120200   10.967537359   12.033676324   12.172515718
    1.779298831   10.948014038   12.011639328   12.150257927
    1.786477462   10.928497024   11.989609692   12.128007490
    1.793656093   10.908986679   11.967587850   12.105764844
    1.800834725   10.889483366   11.945574234   12.083530423
    1.808013356   10.869987443   11.923569271   12.061304658
    1.815191987   10.850499265   11.901573385   12.039087975
    1.822370618   10.831019185   11.879586997   12.016880798
    1.829549249   10.811547551   11.857610523   11.994683546
    1.836727880   10.792084711   11.835644375   11.972496633
    1.843906511   10.772631009   11.813688964   11.950320474
    1.851085142   10.753186785   11.791744695   11.928155475
    1.858263773   10.733752377   11.769811969   11.906002041
    1.865442404   10.714328121   11.747891185   11.883860574
    1.872621035   10.694914349   11.725982737   11.861731471
    1.879799666   10.675511390   11.704087017   11.839615124
    1.886978297   10.656119570   11.682204411   11.817511925
    1.894156928   10.636739214   11.660335304   11.795422260
    1.901335559   10.617370641   11.638480075   11.773346510
    1.908514190   10.598014170   11.616639100   11.751285057
    1.915692821   10.578670116   11.594812754   11.729238274
    1.922871452   10.559338790   11.573001404   11.707206534
    1.930050083   10.540020503   11.551205416   11.685190205
    1.937228715   10.520715560   11.529425153   11.663189652
    1.944407346   10.501424265   11.507660973   11.641205236
    1.951585977   10.482146919   11.485913230   11.619237314
    1.958764608   10.462883819   11.464182277   11.597286240
    1.965943239   10.443635260   11.442468460   11.575352365
    1.973121870   10.424401536   11.420772125   11.553436036
    1.980300501   10.405182934   11.399093611   11.531537595
    1.987479132   10.385979742   11.377433256   11.509657383
    1.994657763   10.366792243   11.355791395   11.487795736
    2.001836394   10.347620719   11.334168356   11.465952986
    2.009015025   10.328465447   11.312564467   11.444129464
    2.016193656   10.309326703   11.290980050   11.422325494
    2.023372287   10.290204759   11.269415427   11.400541398
    2.030550918   10.271099885   11.247870913   11.378777497
    2.037729549   10.252012348   11.226346820   11.357034105
    2.044908180   10.232942413   11.204843460   11.335311534
    2.052086811   10.213890340   11.183361137   11.313610093
    2.059265442   10.194856389   11.161900155   11.291930087
    2.066444073   10.175840816   11.140460812   11.270271817
    2.073622705   10.156843874   11.119043405   11.248635583
    2.080801336   10.137865813   11.097648227   11.227021679
    2.087979967   10.118906882   11.076275567   11.205430397
    2.095158598   10.099967325   11.054925710   11.183862025
    2.102337229   10.081047386   11.033598939   11.162316848
    2.109515860   10.062147304   11.012295535   11.140795149
    2.116694491   10.043267316   10.991015772   11.119297205
    2.123873122   10.024407657   10.969759924   11.097823291
    2.131051753   10.005568558   10.948528261   11.076373680
    2.138230384    9.986750250   10.927321048   11.054948641
    2.145409015    9.967952958   10.906138549   11.033548438
    2.152587646    9.949176907   10.884981025   11.012173333
    2.159766277    9.930422317   10.863848730   10.990823587
    2.166944908    9.911689409   10.842741921   10.969499455
    2.174123539    9.892978398   10.821660846   10.948201189
    2.181302170    9.874289498   10.800605753   10.926929039
    2.188480801    9.855622919   10.779576887   10.905683252
    2.195659432    9.836978871   10.758574488   10.884464070
    2.202838063    9.818357560   10.737598794   10.863271735
    2.210016694    9.799759190   10.716650042   10.842106482
    2.217195326    9.781183960   10.695728461   10.820968547
    2.224373957    9.762632071   10.674834282   10.799858159
    2.231552588    9.744103717   10.653967731   10.778775548
    2.238731219    9.725599093   10.633129029   10.757720938
    2.245909850    9.707118390   10.612318398   10.736694551
    2.253088481    9.688661796   10.591536053   10.715696606
    2.260267112    9.670229498   10.570782210   10.694727319
    2.267445743    9.651821680   10.550057078   10.673786904
    2.274624374    9.633438523   10.529360867   10.652875570
    2.281803005    9.615080206   10.508693782   10.631993524
    2.288981636    9.596746906   10.488056024   10.611140972
    2.296160267    9.578438797   10.467447793   10.590318114
    2.303338898    9.560156052   10.446869287   10.569525149
    2.310517529    9.541898839   10.426320699   10.548762273
    2.317696160    9.523667327   10.405802219   10.528029679
    2.324874791    9.505461680   10.385314038   10.507327557
    2.332053422    9.487282062   10.364856338   10.486656095
    2.339232053    9.469128631   10.344429305   10.466015477
    2.346410684    9.451001548   10.324033117   10.445405885
    2.353589316    9.432900967   10.303667953   10.424827498
    2.360767947    9.414827043   10.283333986   10.404280493
    2.367946578    9.396779926   10.263031388   10.383765044
    2.375125209    9.378759766   10.242760330   10.363281321
    2.382303840    9.360766711   10.222520977   10.342829494
    2.389482471    9.342800904   10.202313493   10.322409727
    2.396661102    9.324862489   10.182138041   10.302022184
    2.403839733    9.306951606   10.161994779   10.281667026
    2.411018364    9.289068394   10.141883862   10.261344411
    2.418196995    9.271212989   10.121805446   10.241054493
    2.425375626    9.253385524   10.101759681   10.220797427
    2.432554257    9.235586133   10.081746716   10.200573362
    2.439732888    9.217814944   10.061766697   10.180382447
    2.446911519    9.200072086   10.041819767   10.160224826
    2.454090150    9.182357686   10.021906069   10.140100642
    2.461268781    9.164671865   10.002025741   10.120010037
    2.468447412    9.147014747    9.982178918   10.099953148
    2.475626043    9.129386450    9.962365737   10.079930110
    2.482804674    9.111787094    9.942586327   10.059941058
    2.489983306    9.094216793    9.922840819   10.039986121
    2.497161937    9.076675661    9.903129338   10.020065428
    2.504340568    9.059163810    9.883452011   10.000179106
    2.511519199    9.041681350    9.863808958    9.980327277
    2.518697830    9.024228388    9.844200301    9.960510065
    2.525876461    9.006805032    9.824626157    9.940727587
    2.533055092    8.989411384    9.805086640    9.920979961
    2.540233723    8.972047548    9.785581866    9.901267301
