# energy grid [eV]     epsr_x  epsr_y  epsr_z
#
    0.200000000   15.846816641   15.818197805    2.211577619
    0.207178631   15.850375243   15.821700409    2.211698366
    0.214357262   15.854061265   15.825328384    2.211823399
    0.221535893   15.857874910   15.829081925    2.211952721
    0.228714524   15.861816390   15.832961235    2.212086336
    0.235893155   15.865885922   15.836966523    2.212224246
    0.243071786   15.870083733   15.841098007    2.212366455
    0.250250417   15.874410056   15.845355910    2.212512967
    0.257429048   15.878865129   15.849740462    2.212663784
    0.264607679   15.883449202   15.854251903    2.212818910
    0.271786311   15.888162530   15.858890477    2.212978350
    0.278964942   15.893005374   15.863656437    2.213142106
    0.286143573   15.897978005   15.868550041    2.213310184
    0.293322204   15.903080701   15.873571557    2.213482586
    0.300500835   15.908313748   15.878721259    2.213659317
    0.307679466   15.913677438   15.883999428    2.213840382
    0.314858097   15.919172071   15.889406353    2.214025784
    0.322036728   15.924797958   15.894942330    2.214215529
    0.329215359   15.930555412   15.900607664    2.214409620
    0.336393990   15.936444760   15.906402664    2.214608063
    0.343572621   15.942466333   15.912327651    2.214810862
    0.350751252   15.948620470   15.918382950    2.215018022
    0.357929883   15.954907520   15.924568895    2.215229548
    0.365108514   15.961327839   15.930885828    2.215445445
    0.372287145   15.967881790   15.937334099    2.215665719
    0.379465776   15.974569747   15.943914065    2.215890375
    0.386644407   15.981392090   15.950626090    2.216119418
    0.393823038   15.988349207   15.957470549    2.216352854
    0.401001669   15.995441495   15.964447822    2.216590689
    0.408180301   16.002669361   15.971558299    2.216832927
    0.415358932   16.010033218   15.978802375    2.217079576
    0.422537563   16.017533488   15.986180458    2.217330641
    0.429716194   16.025170604   15.993692960    2.217586129
    0.436894825   16.032945004   16.001340302    2.217846045
    0.444073456   16.040857138   16.009122917    2.218110396
    0.451252087   16.048907462   16.017041241    2.218379189
    0.458430718   16.057096443   16.025095722    2.218652429
    0.465609349   16.065424557   16.033286815    2.218930124
    0.472787980   16.073892287   16.041614985    2.219212281
    0.479966611   16.082500127   16.050080705    2.219498906
    0.487145242   16.091248579   16.058684456    2.219790007
    0.494323873   16.100138156   16.067426730    2.220085590
    0.501502504   16.109169379   16.076308024    2.220385663
    0.508681135   16.118342778   16.085328848    2.220690233
    0.515859766   16.127658893   16.094489719    2.220999309
    0.523038397   16.137118275   16.103791164    2.221312896
    0.530217028   16.146721483   16.113233719    2.221631004
    0.537395659   16.156469087   16.122817929    2.221953640
    0.544574290   16.166361665   16.132544349    2.222280813
    0.551752922   16.176399808   16.142413542    2.222612529
    0.558931553   16.186584113   16.152426083    2.222948798
    0.566110184   16.196915192   16.162582556    2.223289628
    0.573288815   16.207393664   16.172883552    2.223635027
    0.580467446   16.218020160   16.183329676    2.223985004
    0.587646077   16.228795319   16.193921540    2.224339567
    0.594824708   16.239719794   16.204659768    2.224698727
    0.602003339   16.250794248   16.215544993    2.225062490
    0.609181970   16.262019352   16.226577859    2.225430868
    0.616360601   16.273395791   16.237759020    2.225803868
    0.623539232   16.284924260   16.249089140    2.226181501
    0.630717863   16.296605466   16.260568895    2.226563775
    0.637896494   16.308440126   16.272198970    2.226950701
    0.645075125   16.320428969   16.283980062    2.227342288
    0.652253756   16.332572737   16.295912880    2.227738546
    0.659432387   16.344872181   16.307998141    2.228139485
    0.666611018   16.357328066   16.320236576    2.228545115
    0.673789649   16.369941169   16.332628927    2.228955447
    0.680968280   16.382712277   16.345175945    2.229370491
    0.688146912   16.395642192   16.357878396    2.229790257
    0.695325543   16.408731726   16.370737056    2.230214757
    0.702504174   16.421981706   16.383752713    2.230644000
    0.709682805   16.435392970   16.396926166    2.231077999
    0.716861436   16.448966369   16.410258228    2.231516764
    0.724040067   16.462702767   16.423749724    2.231960306
    0.731218698   16.476603043   16.437401490    2.232408637
    0.738397329   16.490668087   16.451214376    2.232861769
    0.745575960   16.504898803   16.465189245    2.233319712
    0.752754591   16.519296111   16.479326970    2.233782479
    0.759933222   16.533860940   16.493628441    2.234250082
    0.767111853   16.548594239   16.508094558    2.234722533
    0.774290484   16.563496967   16.522726237    2.235199844
    0.781469115   16.578570099   16.537524406    2.235682027
    0.788647746   16.593814624   16.552490007    2.236169096
    0.795826377   16.609231546   16.567623995    2.236661062
    0.803005008   16.624821885   16.582927342    2.237157939
    0.810183639   16.640586675   16.598401030    2.237659739
    0.817362270   16.656526965   16.614046059    2.238166476
    0.824540902   16.672643820   16.629863443    2.238678164
    0.831719533   16.688938323   16.645854208    2.239194814
    0.838898164   16.705411570   16.662019399    2.239716442
    0.846076795   16.722064674   16.678360074    2.240243061
    0.853255426   16.738898766   16.694877307    2.240774684
    0.860434057   16.755914992   16.711572186    2.241311327
    0.867612688   16.773114515   16.728445818    2.241853002
    0.874791319   16.790498517   16.745499324    2.242399725
    0.881969950   16.808068195   16.762733841    2.242951510
    0.889148581   16.825824765   16.780150524    2.243508372
    0.896327212   16.843769462   16.797750543    2.244070326
    0.903505843   16.861903537   16.815535087    2.244637386
    0.910684474   16.880228260   16.833505360    2.245209569
    0.917863105   16.898744922   16.851662585    2.245786889
    0.925041736   16.917454829   16.870008002    2.246369361
    0.932220367   16.936359310   16.888542871    2.246957003
    0.939398998   16.955459712   16.907268466    2.247549829
    0.946577629   16.974757402   16.926186083    2.248147855
    0.953756260   16.994253766   16.945297036    2.248751099
    0.960934891   17.013950213   16.964602658    2.249359576
    0.968113523   17.033848171   16.984104300    2.249973303
    0.975292154   17.053949089   17.003803335    2.250592297
    0.982470785   17.074254439   17.023701154    2.251216575
    0.989649416   17.094765714   17.043799169    2.251846153
    0.996828047   17.115484428   17.064098813    2.252481050
    1.004006678   17.136412118   17.084601538    2.253121282
    1.011185309   17.157550346   17.105308819    2.253766868
    1.018363940   17.178900694   17.126222152    2.254417826
    1.025542571   17.200464770   17.147343054    2.255074173
    1.032721202   17.222244204   17.168673065    2.255735927
    1.039899833   17.244240652   17.190213748    2.256403108
    1.047078464   17.266455794   17.211966687    2.257075734
    1.054257095   17.288891336   17.233933491    2.257753824
    1.061435726   17.311549007   17.256115792    2.258437396
    1.068614357   17.334430565   17.278515246    2.259126471
    1.075792988   17.357537792   17.301133533    2.259821068
    1.082971619   17.380872500   17.323972358    2.260521205
    1.090150250   17.404436524   17.347033451    2.261226904
    1.097328881   17.428231731   17.370318568    2.261938184
    1.104507513   17.452260014   17.393829490    2.262655066
    1.111686144   17.476523295   17.417568025    2.263377570
    1.118864775   17.501023524   17.441536009    2.264105716
    1.126043406   17.525762684   17.465735304    2.264839527
    1.133222037   17.550742785   17.490167799    2.265579022
    1.140400668   17.575965870   17.514835413    2.266324224
    1.147579299   17.601434012   17.539740092    2.267075154
    1.154757930   17.627149316   17.564883814    2.267831833
    1.161936561   17.653113920   17.590268583    2.268594285
    1.169115192   17.679329995   17.615896435    2.269362530
    1.176293823   17.705799746   17.641769437    2.270136592
    1.183472454   17.732525410   17.667889688    2.270916494
    1.190651085   17.759509263   17.694259317    2.271702257
    1.197829716   17.786753611   17.720880486    2.272493907
    1.205008347   17.814260802   17.747755391    2.273291465
    1.212186978   17.842033216   17.774886259    2.274094956
    1.219365609   17.870073273   17.802275355    2.274904404
    1.226544240   17.898383431   17.829924975    2.275719833
    1.233722871   17.926966186   17.857837452    2.276541268
    1.240901503   17.955824076   17.886015156    2.277368732
    1.248080134   17.984959676   17.914460492    2.278202251
    1.255258765   18.014375604   17.943175904    2.279041851
    1.262437396   18.044074520   17.972163871    2.279887556
    1.269616027   18.074059127   18.001426915    2.280739393
    1.276794658   18.104332172   18.030967595    2.281597387
    1.283973289   18.134896444   18.060788509    2.282461565
    1.291151920   18.165754780   18.090892300    2.283331953
    1.298330551   18.196910062   18.121281648    2.284208578
    1.305509182   18.228365220   18.151959279    2.285091468
    1.312687813   18.260123231   18.182927962    2.285980649
    1.319866444   18.292187122   18.214190508    2.286876149
    1.327045075   18.324559970   18.245749775    2.287777996
    1.334223706   18.357244902   18.277608668    2.288686219
    1.341402337   18.390245098   18.309770135    2.289600845
    1.348580968   18.423563791   18.342237176    2.290521905
    1.355759599   18.457204269   18.375012836    2.291449426
    1.362938230   18.491169875   18.408100214    2.292383438
    1.370116861   18.525464007   18.441502455    2.293323972
    1.377295492   18.560090123   18.475222759    2.294271056
    1.384474124   18.595051738   18.509264377    2.295224722
    1.391652755   18.630352430   18.543630616    2.296185000
    1.398831386   18.665995836   18.578324834    2.297151921
    1.406010017   18.701985656   18.613350450    2.298125517
    1.413188648   18.738325656   18.648710937    2.299105818
    1.420367279   18.775019665   18.684409826    2.300092857
    1.427545910   18.812071582   18.720450709    2.301086667
    1.434724541   18.849485373   18.756837240    2.302087280
    1.441903172   18.887265073   18.793573133    2.303094728
    1.449081803   18.925414790   18.830662166    2.304109046
    1.456260434   18.963938706   18.868108182    2.305130267
    1.463439065   19.002841075   18.905915092    2.306158424
    1.470617696   19.042126221   18.944086869    2.307193553
    1.477796327   19.081798533   18.982627559    2.308235688
    1.484974958   19.121862461   19.021541270    2.309284865
    1.492153589   19.162322626   19.060832200    2.310341118
    1.499332220   19.203183767   19.100504625    2.311404483
    1.506510851   19.244450601   19.140562880    2.312474998
    1.513689482   19.286127926   19.181011375    2.313552699
    1.520868114   19.328220649   19.221854604    2.314637621
    1.528046745   19.370733781   19.263097138    2.315729804
    1.535225376   19.413672425   19.304743627    2.316829285
    1.542404007   19.457041784   19.346798793    2.317936102
    1.549582638   19.500847158   19.389267467    2.319050294
    1.556761269   19.545093947   19.432154616    2.320171900
    1.563939900   19.589787658   19.475465252    2.321300959
    1.571118531   19.634933900   19.519204453    2.322437512
    1.578297162   19.680538393   19.563377407    2.323581598
    1.585475793   19.726606968   19.607989401    2.324733258
    1.592654424   19.773145570   19.653045825    2.325892535
    1.599833055   19.820160262   19.698552173    2.327059469
    1.607011686   19.867657225   19.744514041    2.328234102
    1.614190317   19.915642767   19.790937130    2.329416478
    1.621368948   19.964123317   19.837827254    2.330606639
    1.628547579   20.013105439   19.885190337    2.331804628
    1.635726210   20.062595827   19.933032418    2.333010491
    1.642904841   20.112601312   19.981359652    2.334224271
    1.650083472   20.163128865   20.030178319    2.335446014
    1.657262104   20.214185601   20.079494817    2.336675765
    1.664440735   20.265778784   20.129315674    2.337913569
    1.671619366   20.317915828   20.179647538    2.339159475
    1.678797997   20.370604303   20.230497165    2.340413528
    1.685976628   20.423851940   20.281871403    2.341675775
    1.693155259   20.477666634   20.333777352    2.342946265
    1.700333890   20.532056452   20.386222416    2.344225048
    1.707512521   20.587029631   20.439213948    2.345512173
    1.714691152   20.642594589   20.492759383    2.346807690
    1.721869783   20.698759925   20.546866362    2.348111648
    1.729048414   20.755534424   20.601542703    2.349424099
    1.736227045   20.812927040   20.656796394    2.350745093
    1.743405676   20.870946873   20.712635585    2.352074684
    1.750584307   20.929603261   20.769068605    2.353412924
    1.757762938   20.988906032   20.826103990    2.354759866
    1.764941569   21.048865104   20.883750447    2.356115565
    1.772120200   21.109490422   20.942016847    2.357480074
    1.779298831   21.170792205   21.000912261    2.358853450
    1.786477462   21.232780955   21.060445963    2.360235748
    1.793656093   21.295467428   21.120627434    2.361627024
    1.800834725   21.358862637   21.181466365    2.363027336
    1.808013356   21.422977857   21.242972666    2.364436743
    1.815191987   21.487824630   21.305156468    2.365855301
    1.822370618   21.553414779   21.368028134    2.367283072
    1.829549249   21.619760409   21.431598263    2.368720114
    1.836727880   21.686873922   21.495877697    2.370166489
    1.843906511   21.754768028   21.560877532    2.371622258
    1.851085142   21.823455746   21.626609119    2.373087483
    1.858263773   21.892950426   21.693084081    2.374562228
    1.865442404   21.963265749   21.760314311    2.376046556
    1.872621035   22.034415747   21.828311989    2.377540531
    1.879799666   22.106414807   21.897089587    2.379044220
    1.886978297   22.179277691   21.966659879    2.380557687
    1.894156928   22.253019540   22.037035950    2.382081001
    1.901335559   22.327655896   22.108231207    2.383614229
    1.908514190   22.403202707   22.180259390    2.385157440
    1.915692821   22.479676349   22.253134579    2.386710704
    1.922871452   22.557093637   22.326871211    2.388274090
    1.930050083   22.635471840   22.401484089    2.389847670
    1.937228715   22.714828699   22.476988391    2.391431517
    1.944407346   22.795182445   22.553399690    2.393025704
    1.951585977   22.876551815   22.630733961    2.394630304
    1.958764608   22.958956069   22.709007597    2.396245394
    1.965943239   23.042415014   22.788237425    2.397871048
    1.973121870   23.126949021   22.868440718    2.399507345
    1.980300501   23.212579044   22.949635214    2.401154362
    1.987479132   23.299326631   23.031839123    2.402812178
    1.994657763   23.387213960   23.115071153    2.404480874
    2.001836394   23.476263918   23.199350545    2.406160531
    2.009015025   23.566500097   23.284697077    2.407851231
    2.016193656   23.657946726   23.371131038    2.409553058
    2.023372287   23.750628772   23.458673231    2.411266096
    2.030550918   23.844571984   23.547345041    2.412990431
    2.037729549   23.939802915   23.637168768    2.414726150
    2.044908180   24.036348948   23.728167355    2.416473342
    2.052086811   24.134238318   23.820364118    2.418232097
    2.059265442   24.233500107   23.913783079    2.420002503
    2.066444073   24.334164252   24.008449030    2.421784654
    2.073622705   24.436261861   24.104387518    2.423578640
    2.080801336   24.539825360   24.201624903    2.425384557
    2.087979967   24.644888050   24.300188398    2.427202504
    2.095158598   24.751484103   24.400106005    2.429032578
    2.102337229   24.859648867   24.501406585    2.430874876
    2.109515860   24.969418984   24.604119923    2.432729498
    2.116694491   25.080832395   24.708276763    2.434596546
    2.123873122   25.193928376   24.813908833    2.436476122
    2.131051753   25.308747582   24.921048868    2.438368332
    2.138230384   25.425332096   25.029730640    2.440273280
    2.145409015   25.543725624   25.139989176    2.442191075
    2.152587646   25.663973572   25.251860821    2.444121828
    2.159766277   25.786122846   25.365382904    2.446065650
    2.166944908   25.910222046   25.480593950    2.448022654
    2.174123539   26.036321809   25.597534017    2.449992952
    2.181302170   26.164474844   25.716244694    2.451976663
    2.188480801   26.294735681   25.836768829    2.453973903
    2.195659432   26.427160932   25.959150754    2.455984793
    2.202838063   26.561809488   26.083436440    2.458009453
    2.210016694   26.698742896   26.209673740    2.460048010
    2.217195326   26.838025242   26.337912308    2.462100591
    2.224373957   26.979722929   26.468203483    2.464167323
    2.231552588   27.123905083   26.600600563    2.466248335
    2.238731219   27.270644119   26.735158935    2.468343756
    2.245909850   27.420015755   26.871936147    2.470453712
    2.253088481   27.572098680   27.010992035    2.472578342
    2.260267112   27.726975244   27.152388837    2.474717804
    2.267445743   27.884731373   27.296191190    2.476872242
    2.274624374   28.045456837   27.442466504    2.479041792
    2.281803005   28.209245632   27.591285336    2.481226596
    2.288981636   28.376196186   27.742720873    2.483426801
    2.296160267   28.546411608   27.896849213    2.485642551
    2.303338898   28.720000012   28.053749861    2.487873994
    2.310517529   28.897074891   28.213506119    2.490121307
    2.317696160   29.077755352   28.376204899    2.492384663
    2.324874791   29.262166455   28.541936812    2.494664214
    2.332053422   29.450439675   28.710796631    2.496960123
    2.339232053   29.642713303   28.882883500    2.499272554
    2.346410684   29.839132968   29.058301247    2.501601680
    2.353589316   30.039852466   29.237159043    2.503947679
    2.360767947   30.245033943   29.419571268    2.506310734
    2.367946578   30.454848287   29.605657588    2.508691025
    2.375125209   30.669476095   29.795543691    2.511088737
    2.382303840   30.889108394   29.989361699    2.513504056
    2.389482471   31.113947345   30.187250562    2.515937177
    2.396661102   31.344207120   30.389356492    2.518388307
    2.403839733   31.580115185   30.595833354    2.520857651
    2.411018364   31.821912960   30.806843347    2.523345412
    2.418196995   32.069856635   31.022557784    2.525851799
    2.425375626   32.324219225   31.243157588    2.528377030
    2.432554257   32.585293118   31.468834685    2.530921325
    2.439732888   32.853388892   31.699791339    2.533484910
    2.446911519   33.128837370   31.936241162    2.536068017
    2.454090150   33.411992767   32.178410789    2.538670884
    2.461268781   33.703234699   32.426541236    2.541293753
    2.468447412   34.002970285   32.680888648    2.543936874
    2.475626043   34.311636651   32.941724861    2.546600502
    2.482804674   34.629703889   33.209339212    2.549284900
    2.489983306   34.957678283   33.484040362    2.551990336
    2.497161937   35.296105249   33.766157215    2.554717087
    2.504340568   35.645574284   34.056041032    2.557465433
    2.511519199   36.006728035   34.354069994    2.560235655
    2.518697830   36.380262487   34.660648726    2.563028033
    2.525876461   36.766930223   34.976209440    2.565842895
    2.533055092   37.167551448   35.301216942    2.568680611
    2.540233723   37.583021994   35.636171700    2.571541501
