# energy grid [eV]     ieps_x  ieps_y  ieps_z
#
    0.200000000    6.622090117    3.880825456    4.661649368
    0.207178631    6.620945998    3.880201517    4.660826991
    0.214357262    6.619762042    3.879555881    4.659976022
    0.221535893    6.618538302    3.878888580    4.659096502
    0.228714524    6.617274832    3.878199647    4.658188474
    0.235893155    6.615971687    3.877489114    4.657251984
    0.243071786    6.614628925    3.876757017    4.656287077
    0.250250417    6.613246604    3.876003390    4.655293799
    0.257429048    6.611824786    3.875228270    4.654272200
    0.264607679    6.610363533    3.874431695    4.653222330
    0.271786311    6.608862908    3.873613702    4.652144240
    0.278964942    6.607322978    3.872774332    4.651037981
    0.286143573    6.605743810    3.871913625    4.649903609
    0.293322204    6.604125473    3.871031622    4.648741178
    0.300500835    6.602468037    3.870128365    4.647550745
    0.307679466    6.600771576    3.869203898    4.646332367
    0.314858097    6.599036163    3.868258266    4.645086104
    0.322036728    6.597261873    3.867291513    4.643812016
    0.329215359    6.595448785    3.866303685    4.642510164
    0.336393990    6.593596976    3.865294831    4.641180611
    0.343572621    6.591706527    3.864264998    4.639823423
    0.350751252    6.589777520    3.863214235    4.638438663
    0.357929883    6.587810038    3.862142591    4.637026399
    0.365108514    6.585804168    3.861050120    4.635586698
    0.372287145    6.583759995    3.859936870    4.634119630
    0.379465776    6.581677607    3.858802897    4.632625264
    0.386644407    6.579557095    3.857648253    4.631103674
    0.393823038    6.577398551    3.856472993    4.629554930
    0.401001669    6.575202065    3.855277172    4.627979107
    0.408180301    6.572967734    3.854060847    4.626376281
    0.415358932    6.570695653    3.852824075    4.624746527
    0.422537563    6.568385919    3.851566914    4.623089923
    0.429716194    6.566038631    3.850289423    4.621406548
    0.436894825    6.563653889    3.848991662    4.619696481
    0.444073456    6.561231795    3.847673691    4.617959804
    0.451252087    6.558772453    3.846335573    4.616196597
    0.458430718    6.556275967    3.844977368    4.614406945
    0.465609349    6.553742443    3.843599142    4.612590932
    0.472787980    6.551171988    3.842200957    4.610748642
    0.479966611    6.548564711    3.840782878    4.608880163
    0.487145242    6.545920723    3.839344972    4.606985582
    0.494323873    6.543240135    3.837887303    4.605064987
    0.501502504    6.540523061    3.836409941    4.603118469
    0.508681135    6.537769614    3.834912952    4.601146117
    0.515859766    6.534979910    3.833396405    4.599148023
    0.523038397    6.532154067    3.831860371    4.597124281
    0.530217028    6.529292202    3.830304918    4.595074984
    0.537395659    6.526394436    3.828730119    4.593000227
    0.544574290    6.523460889    3.827136045    4.590900105
    0.551752922    6.520491683    3.825522769    4.588774715
    0.558931553    6.517486942    3.823890363    4.586624155
    0.566110184    6.514446791    3.822238902    4.584448523
    0.573288815    6.511371355    3.820568461    4.582247920
    0.580467446    6.508260763    3.818879114    4.580022445
    0.587646077    6.505115142    3.817170938    4.577772200
    0.594824708    6.501934621    3.815444010    4.575497288
    0.602003339    6.498719333    3.813698406    4.573197811
    0.609181970    6.495469408    3.811934206    4.570873874
    0.616360601    6.492184980    3.810151487    4.568525583
    0.623539232    6.488866183    3.808350329    4.566153042
    0.630717863    6.485513153    3.806530813    4.563756358
    0.637896494    6.482126027    3.804693018    4.561335640
    0.645075125    6.478704941    3.802837026    4.558890995
    0.652253756    6.475250035    3.800962919    4.556422533
    0.659432387    6.471761448    3.799070780    4.553930364
    0.666611018    6.468239321    3.797160690    4.551414598
    0.673789649    6.464683797    3.795232735    4.548875348
    0.680968280    6.461095019    3.793286998    4.546312725
    0.688146912    6.457473130    3.791323564    4.543726844
    0.695325543    6.453818275    3.789342518    4.541117817
    0.702504174    6.450130601    3.787343946    4.538485760
    0.709682805    6.446410254    3.785327935    4.535830787
    0.716861436    6.442657382    3.783294572    4.533153015
    0.724040067    6.438872135    3.781243943    4.530452561
    0.731218698    6.435054663    3.779176138    4.527729542
    0.738397329    6.431205115    3.777091244    4.524984076
    0.745575960    6.427323644    3.774989350    4.522216282
    0.752754591    6.423410402    3.772870547    4.519426279
    0.759933222    6.419465544    3.770734923    4.516614188
    0.767111853    6.415489222    3.768582569    4.513780128
    0.774290484    6.411481593    3.766413576    4.510924222
    0.781469115    6.407442813    3.764228036    4.508046592
    0.788647746    6.403373037    3.762026040    4.505147359
    0.795826377    6.399272425    3.759807679    4.502226647
    0.803005008    6.395141134    3.757573048    4.499284579
    0.810183639    6.390979324    3.755322238    4.496321280
    0.817362270    6.386787154    3.753055343    4.493336874
    0.824540902    6.382564786    3.750772457    4.490331487
    0.831719533    6.378312381    3.748473674    4.487305244
    0.838898164    6.374030101    3.746159089    4.484258271
    0.846076795    6.369718110    3.743828795    4.481190696
    0.853255426    6.365376570    3.741482890    4.478102644
    0.860434057    6.361005646    3.739121467    4.474994245
    0.867612688    6.356605503    3.736744623    4.471865626
    0.874791319    6.352176306    3.734352455    4.468716916
    0.881969950    6.347718223    3.731945058    4.465548243
    0.889148581    6.343231419    3.729522530    4.462359737
    0.896327212    6.338716062    3.727084967    4.459151528
    0.903505843    6.334172320    3.724632468    4.455923746
    0.910684474    6.329600363    3.722165129    4.452676521
    0.917863105    6.325000358    3.719683050    4.449409984
    0.925041736    6.320372476    3.717186327    4.446124268
    0.932220367    6.315716887    3.714675060    4.442819502
    0.939398998    6.311033762    3.712149347    4.439495820
    0.946577629    6.306323272    3.709609287    4.436153353
    0.953756260    6.301585589    3.707054979    4.432792234
    0.960934891    6.296820884    3.704486524    4.429412595
    0.968113523    6.292029332    3.701904020    4.426014571
    0.975292154    6.287211105    3.699307567    4.422598294
    0.982470785    6.282366376    3.696697265    4.419163898
    0.989649416    6.277495320    3.694073214    4.415711516
    0.996828047    6.272598111    3.691435516    4.412241284
    1.004006678    6.267674923    3.688784269    4.408753335
    1.011185309    6.262725933    3.686119576    4.405247803
    1.018363940    6.257751315    3.683441536    4.401724825
    1.025542571    6.252751245    3.680750251    4.398184533
    1.032721202    6.247725900    3.678045821    4.394627065
    1.039899833    6.242675457    3.675328349    4.391052554
    1.047078464    6.237600091    3.672597935    4.387461137
    1.054257095    6.232499980    3.669854680    4.383852949
    1.061435726    6.227375301    3.667098687    4.380228126
    1.068614357    6.222226233    3.664330057    4.376586803
    1.075792988    6.217052953    3.661548891    4.372929116
    1.082971619    6.211855639    3.658755292    4.369255202
    1.090150250    6.206634470    3.655949360    4.365565197
    1.097328881    6.201389624    3.653131199    4.361859237
    1.104507513    6.196121280    3.650300909    4.358137457
    1.111686144    6.190829618    3.647458594    4.354399996
    1.118864775    6.185514815    3.644604354    4.350646988
    1.126043406    6.180177052    3.641738292    4.346878570
    1.133222037    6.174816508    3.638860511    4.343094879
    1.140400668    6.169433362    3.635971111    4.339296051
    1.147579299    6.164027794    3.633070195    4.335482222
    1.154757930    6.158599985    3.630157865    4.331653530
    1.161936561    6.153150114    3.627234224    4.327810110
    1.169115192    6.147678360    3.624299372    4.323952099
    1.176293823    6.142184905    3.621353413    4.320079633
    1.183472454    6.136669927    3.618396447    4.316192848
    1.190651085    6.131133608    3.615428578    4.312291882
    1.197829716    6.125576128    3.612449907    4.308376869
    1.205008347    6.119997666    3.609460535    4.304447947
    1.212186978    6.114398403    3.606460564    4.300505250
    1.219365609    6.108778519    3.603450097    4.296548916
    1.226544240    6.103138194    3.600429234    4.292579080
    1.233722871    6.097477609    3.597398077    4.288595877
    1.240901503    6.091796943    3.594356728    4.284599443
    1.248080134    6.086096377    3.591305288    4.280589915
    1.255258765    6.080376091    3.588243857    4.276567426
    1.262437396    6.074636264    3.585172538    4.272532112
    1.269616027    6.068877077    3.582091431    4.268484109
    1.276794658    6.063098709    3.579000637    4.264423551
    1.283973289    6.057301339    3.575900256    4.260350573
    1.291151920    6.051485148    3.572790390    4.256265309
    1.298330551    6.045650315    3.569671138    4.252167893
    1.305509182    6.039797019    3.566542602    4.248058461
    1.312687813    6.033925438    3.563404880    4.243937145
    1.319866444    6.028035753    3.560258074    4.239804079
    1.327045075    6.022128141    3.557102283    4.235659397
    1.334223706    6.016202782    3.553937606    4.231503231
    1.341402337    6.010259853    3.550764143    4.227335716
    1.348580968    6.004299534    3.547581993    4.223156984
    1.355759599    5.998322000    3.544391256    4.218967166
    1.362938230    5.992327432    3.541192030    4.214766396
    1.370116861    5.986316005    3.537984414    4.210554805
    1.377295492    5.980287898    3.534768506    4.206332525
    1.384474124    5.974243286    3.531544405    4.202099688
    1.391652755    5.968182348    3.528312209    4.197856423
    1.398831386    5.962105259    3.525072015    4.193602863
    1.406010017    5.956012195    3.521823922    4.189339138
    1.413188648    5.949903333    3.518568026    4.185065377
    1.420367279    5.943778848    3.515304424    4.180781711
    1.427545910    5.937638915    3.512033214    4.176488269
    1.434724541    5.931483709    3.508754492    4.172185181
    1.441903172    5.925313404    3.505468355    4.167872574
    1.449081803    5.919128176    3.502174898    4.163550578
    1.456260434    5.912928197    3.498874218    4.159219321
    1.463439065    5.906713641    3.495566410    4.154878930
    1.470617696    5.900484682    3.492251569    4.150529533
    1.477796327    5.894241492    3.488929791    4.146171257
    1.484974958    5.887984244    3.485601170    4.141804229
    1.492153589    5.881713110    3.482265800    4.137428574
    1.499332220    5.875428261    3.478923777    4.133044419
    1.506510851    5.869129869    3.475575193    4.128651889
    1.513689482    5.862818104    3.472220143    4.124251109
    1.520868114    5.856493136    3.468858719    4.119842205
    1.528046745    5.850155137    3.465491016    4.115425299
    1.535225376    5.843804274    3.462117124    4.111000516
    1.542404007    5.837440718    3.458737137    4.106567980
    1.549582638    5.831064637    3.455351148    4.102127813
    1.556761269    5.824676198    3.451959246    4.097680137
    1.563939900    5.818275570    3.448561525    4.093225076
    1.571118531    5.811862920    3.445158075    4.088762750
    1.578297162    5.805438415    3.441748986    4.084293281
    1.585475793    5.799002220    3.438334350    4.079816790
    1.592654424    5.792554502    3.434914257    4.075333397
    1.599833055    5.786095426    3.431488795    4.070843221
    1.607011686    5.779625156    3.428058055    4.066346382
    1.614190317    5.773143857    3.424622125    4.061843000
    1.621368948    5.766651692    3.421181095    4.057333192
    1.628547579    5.760148824    3.417735052    4.052817076
    1.635726210    5.753635417    3.414284085    4.048294770
    1.642904841    5.747111632    3.410828281    4.043766391
    1.650083472    5.740577630    3.407367728    4.039232055
    1.657262104    5.734033573    3.403902512    4.034691878
    1.664440735    5.727479621    3.400432720    4.030145976
    1.671619366    5.720915934    3.396958438    4.025594464
    1.678797997    5.714342671    3.393479752    4.021037456
    1.685976628    5.707759991    3.389996747    4.016475066
    1.693155259    5.701168052    3.386509509    4.011907408
    1.700333890    5.694567012    3.383018122    4.007334595
    1.707512521    5.687957027    3.379522670    4.002756738
    1.714691152    5.681338254    3.376023237    3.998173950
    1.721869783    5.674710848    3.372519908    3.993586343
    1.729048414    5.668074965    3.369012764    3.988994026
    1.736227045    5.661430760    3.365501889    3.984397111
    1.743405676    5.654778385    3.361987365    3.979795708
    1.750584307    5.648117995    3.358469273    3.975189924
    1.757762938    5.641449742    3.354947696    3.970579870
    1.764941569    5.634773778    3.351422715    3.965965653
    1.772120200    5.628090255    3.347894410    3.961347381
    1.779298831    5.621399323    3.344362862    3.956725161
    1.786477462    5.614701133    3.340828151    3.952099100
    1.793656093    5.607995833    3.337290356    3.947469302
    1.800834725    5.601283573    3.333749556    3.942835875
    1.808013356    5.594564502    3.330205830    3.938198922
    1.815191987    5.587838765    3.326659257    3.933558549
    1.822370618    5.581106511    3.323109914    3.928914858
    1.829549249    5.574367886    3.319557878    3.924267953
    1.836727880    5.567623034    3.316003228    3.919617937
    1.843906511    5.560872102    3.312446039    3.914964911
    1.851085142    5.554115232    3.308886388    3.910308977
    1.858263773    5.547352570    3.305324350    3.905650237
    1.865442404    5.540584256    3.301760001    3.900988789
    1.872621035    5.533810435    3.298193417    3.896324735
    1.879799666    5.527031246    3.294624671    3.891658173
    1.886978297    5.520246831    3.291053837    3.886989201
    1.894156928    5.513457330    3.287480990    3.882317919
    1.901335559    5.506662883    3.283906203    3.877644423
    1.908514190    5.499863627    3.280329549    3.872968811
    1.915692821    5.493059701    3.276751099    3.868291178
    1.922871452    5.486251243    3.273170927    3.863611620
    1.930050083    5.479438388    3.269589103    3.858930233
    1.937228715    5.472621274    3.266005699    3.854247111
    1.944407346    5.465800034    3.262420786    3.849562349
    1.951585977    5.458974803    3.258834434    3.844876038
    1.958764608    5.452145716    3.255246712    3.840188273
    1.965943239    5.445312905    3.251657691    3.835499146
    1.973121870    5.438476502    3.248067439    3.830808747
    1.980300501    5.431636639    3.244476025    3.826117170
    1.987479132    5.424793447    3.240883517    3.821424502
    1.994657763    5.417947057    3.237289983    3.816730836
    2.001836394    5.411097597    3.233695490    3.812036259
    2.009015025    5.404245196    3.230100105    3.807340861
    2.016193656    5.397389982    3.226503895    3.802644730
    2.023372287    5.390532083    3.222906925    3.797947954
    2.030550918    5.383671625    3.219309262    3.793250618
    2.037729549    5.376808734    3.215710969    3.788552811
    2.044908180    5.369943535    3.212112113    3.783854617
    2.052086811    5.363076152    3.208512757    3.779156122
    2.059265442    5.356206709    3.204912965    3.774457410
    2.066444073    5.349335329    3.201312801    3.769758565
    2.073622705    5.342462134    3.197712327    3.765059672
    2.080801336    5.335587245    3.194111606    3.760360812
    2.087979967    5.328710783    3.190510701    3.755662068
    2.095158598    5.321832868    3.186909673    3.750963521
    2.102337229    5.314953619    3.183308584    3.746265254
    2.109515860    5.308073155    3.179707493    3.741567345
    2.116694491    5.301191594    3.176106462    3.736869876
    2.123873122    5.294309051    3.172505551    3.732172926
    2.131051753    5.287425645    3.168904820    3.727476573
    2.138230384    5.280541489    3.165304326    3.722780895
    2.145409015    5.273656700    3.161704130    3.718085970
    2.152587646    5.266771390    3.158104289    3.713391876
    2.159766277    5.259885674    3.154504861    3.708698688
    2.166944908    5.252999664    3.150905905    3.704006483
    2.174123539    5.246113472    3.147307476    3.699315336
    2.181302170    5.239227208    3.143709631    3.694625321
    2.188480801    5.232340984    3.140112427    3.689936512
    2.195659432    5.225454908    3.136515919    3.685248984
    2.202838063    5.218569090    3.132920163    3.680562809
    2.210016694    5.211683639    3.129325214    3.675878060
    2.217195326    5.204798660    3.125731125    3.671194808
    2.224373957    5.197914261    3.122137952    3.666513124
    2.231552588    5.191030549    3.118545748    3.661833080
    2.238731219    5.184147627    3.114954565    3.657154746
    2.245909850    5.177265601    3.111364458    3.652478191
    2.253088481    5.170384575    3.107775477    3.647803483
    2.260267112    5.163504651    3.104187676    3.643130693
    2.267445743    5.156625932    3.100601106    3.638459887
    2.274624374    5.149748519    3.097015818    3.633791132
    2.281803005    5.142872513    3.093431863    3.629124496
    2.288981636    5.135998014    3.089849291    3.624460044
    2.296160267    5.129125122    3.086268152    3.619797843
    2.303338898    5.122253935    3.082688495    3.615137957
    2.310517529    5.115384551    3.079110371    3.610480451
    2.317696160    5.108517068    3.075533826    3.605825389
    2.324874791    5.101651581    3.071958911    3.601172835
    2.332053422    5.094788187    3.068385672    3.596522850
    2.339232053    5.087926981    3.064814157    3.591875498
    2.346410684    5.081068056    3.061244414    3.587230840
    2.353589316    5.074211508    3.057676488    3.582588937
    2.360767947    5.067357427    3.054110427    3.577949851
    2.367946578    5.060505907    3.050546276    3.573313641
    2.375125209    5.053657040    3.046984081    3.568680367
    2.382303840    5.046810915    3.043423887    3.564050088
    2.389482471    5.039967623    3.039865738    3.559422862
    2.396661102    5.033127253    3.036309679    3.554798748
    2.403839733    5.026289894    3.032755754    3.550177803
    2.411018364    5.019455633    3.029204006    3.545560084
    2.418196995    5.012624559    3.025654478    3.540945647
    2.425375626    5.005796757    3.022107215    3.536334548
    2.432554257    4.998972313    3.018562256    3.531726843
    2.439732888    4.992151313    3.015019646    3.527122586
    2.446911519    4.985333840    3.011479424    3.522521832
    2.454090150    4.978519979    3.007941634    3.517924635
    2.461268781    4.971709813    3.004406315    3.513331047
    2.468447412    4.964903423    3.000873507    3.508741122
    2.475626043    4.958100892    2.997343252    3.504154911
    2.482804674    4.951302301    2.993815588    3.499572467
    2.489983306    4.944507729    2.990290556    3.494993841
    2.497161937    4.937717257    2.986768194    3.490419084
    2.504340568    4.930930963    2.983248540    3.485848245
    2.511519199    4.924148926    2.979731633    3.481281375
    2.518697830    4.917371222    2.976217511    3.476718522
    2.525876461    4.910597930    2.972706212    3.472159736
    2.533055092    4.903829125    2.969197772    3.467605065
    2.540233723    4.897064883    2.965692228    3.463054555
