# energy grid [eV]     epsr_x  epsr_y  epsr_z
#
    0.200000000   15.358445939   15.035638930   15.822250269
    0.207178631   15.362355103   15.039522325   15.826331567
    0.214357262   15.366404931   15.043545559   15.830559659
    0.221535893   15.370595723   15.047708940   15.834934853
    0.228714524   15.374927788   15.052012787   15.839457464
    0.235893155   15.379401448   15.056457432   15.844127820
    0.243071786   15.384017037   15.061043219   15.848946260
    0.250250417   15.388774898   15.065770502   15.853913135
    0.257429048   15.393675389   15.070639649   15.859028807
    0.264607679   15.398718876   15.075651039   15.864293650
    0.271786311   15.403905741   15.080805063   15.869708051
    0.278964942   15.409236374   15.086102126   15.875272407
    0.286143573   15.414711181   15.091542645   15.880987128
    0.293322204   15.420330576   15.097127048   15.886852637
    0.300500835   15.426094990   15.102855778   15.892869369
    0.307679466   15.432004863   15.108729291   15.899037771
    0.314858097   15.438060650   15.114748054   15.905358302
    0.322036728   15.444262818   15.120912551   15.911831436
    0.329215359   15.450611848   15.127223277   15.918457657
    0.336393990   15.457108233   15.133680742   15.925237466
    0.343572621   15.463752481   15.140285469   15.932171373
    0.350751252   15.470545114   15.147037997   15.939259905
    0.357929883   15.477486665   15.153938877   15.946503601
    0.365108514   15.484577685   15.160988678   15.953903014
    0.372287145   15.491818739   15.168187982   15.961458711
    0.379465776   15.499210403   15.175537385   15.969171273
    0.386644407   15.506753273   15.183037502   15.977041296
    0.393823038   15.514447956   15.190688962   15.985069390
    0.401001669   15.522295078   15.198492408   15.993256182
    0.408180301   15.530295279   15.206448504   16.001602311
    0.415358932   15.538449216   15.214557926   16.010108434
    0.422537563   15.546757562   15.222821371   16.018775221
    0.429716194   15.555221005   15.231239552   16.027603361
    0.436894825   15.563840255   15.239813198   16.036593557
    0.444073456   15.572616035   15.248543059   16.045746530
    0.451252087   15.581549089   15.257429902   16.055063016
    0.458430718   15.590640177   15.266474514   16.064543769
    0.465609349   15.599890080   15.275677701   16.074189562
    0.472787980   15.609299597   15.285040287   16.084001182
    0.479966611   15.618869547   15.294563121   16.093979439
    0.487145242   15.628600770   15.304247068   16.104125158
    0.494323873   15.638494126   15.314093017   16.114439184
    0.501502504   15.648550497   15.324101879   16.124922381
    0.508681135   15.658770787   15.334274587   16.135575633
    0.515859766   15.669155922   15.344612098   16.146399845
    0.523038397   15.679706853   15.355115391   16.157395942
    0.530217028   15.690424552   15.365785471   16.168564870
    0.537395659   15.701310020   15.376623369   16.179907598
    0.544574290   15.712364280   15.387630140   16.191425114
    0.551752922   15.723588382   15.398806866   16.203118433
    0.558931553   15.734983405   15.410154659   16.214988590
    0.566110184   15.746550455   15.421674658   16.227036648
    0.573288815   15.758290667   15.433368029   16.239263690
    0.580467446   15.770205208   15.445235973   16.251670828
    0.587646077   15.782295274   15.457279718   16.264259199
    0.594824708   15.794562095   15.469500529   16.277029967
    0.602003339   15.807006936   15.481899701   16.289984324
    0.609181970   15.819631095   15.494478566   16.303123491
    0.616360601   15.832435909   15.507238492   16.316448717
    0.623539232   15.845422752   15.520180883   16.329961284
    0.630717863   15.858593039   15.533307185   16.343662504
    0.637896494   15.871948226   15.546618883   16.357553723
    0.645075125   15.885489814   15.560117505   16.371636320
    0.652253756   15.899219349   15.573804622   16.385911709
    0.659432387   15.913138427   15.587681854   16.400381342
    0.666611018   15.927248693   15.601750866   16.415046708
    0.673789649   15.941551847   15.616013376   16.429909336
    0.680968280   15.956049645   15.630471153   16.444970795
    0.688146912   15.970743901   15.645126023   16.460232699
    0.695325543   15.985636494   15.659979869   16.475696705
    0.702504174   16.000729369   15.675034635   16.491364518
    0.709682805   16.016024542   15.690292330   16.507237891
    0.716861436   16.031524105   15.705755030   16.523318630
    0.724040067   16.047230228   15.721424882   16.539608594
    0.731218698   16.063145168   15.737304110   16.556109699
    0.738397329   16.079271275   15.753395015   16.572823920
    0.745575960   16.095610993   15.769699985   16.589753296
    0.752754591   16.112166876   15.786221496   16.606899933
    0.759933222   16.128941587   15.802962120   16.624266005
    0.767111853   16.145937914   15.819924529   16.641853764
    0.774290484   16.163158774   15.837111504   16.659665538
    0.781469115   16.180607230   15.854525941   16.677703742
    0.788647746   16.198286497   15.872170859   16.695970879
    0.795826377   16.216199962   15.890049410   16.714469551
    0.803005008   16.234351194   15.908164887   16.733202459
    0.810183639   16.252743964   15.926520738   16.752172418
    0.817362270   16.271382267   15.945120573   16.771382361
    0.824540902   16.290270340   15.963968183   16.790835348
    0.831719533   16.309412691   15.983067550   16.810534581
    0.838898164   16.328814126   16.002422870   16.830483411
    0.846076795   16.348479785   16.022038564   16.850685354
    0.853255426   16.368415179   16.041919307   16.871144107
    0.860434057   16.388626236   16.062070045   16.891863561
    0.867612688   16.409119352   16.082496029   16.912847826
    0.874791319   16.429901453   16.103202842   16.934101252
    0.881969950   16.450980064   16.124196435   16.955628452
    0.889148581   16.472363398   16.145483171   16.977434337
    0.896327212   16.494060450   16.167069868   16.999524148
    0.903505843   16.516081119   16.188963861   17.021903499
    0.910684474   16.538436350   16.211173061   17.044578423
    0.917863105   16.561138306   16.233706033   17.067555432
    0.925041736   16.584200574   16.256572088   17.090841587
    0.932220367   16.607638424   16.279781392   17.114444575
    0.939398998   16.631469121   16.303345091   17.138372816
    0.946577629   16.655712314   16.327275476   17.162635581
    0.953756260   16.680390530   16.351586170   17.187243142
    0.960934891   16.705529786   16.376292371   17.212206965
    0.968113523   16.731160382   16.401411149   17.237539940
    0.975292154   16.757317916   16.426961822   17.263256687
    0.982470785   16.784044611   16.452966438   17.289373934
    0.989649416   16.811391066   16.479450396   17.315911028
    0.996828047   16.839418586   16.506443267   17.342890593
    1.004006678   16.868202339   16.533979874   17.370339412
    1.011185309   16.897835669   16.562101757   17.398289631
    1.018363940   16.928436071   16.590859173   17.426780398
    1.025542571   16.960153545   16.620313854   17.455860140
    1.032721202   16.993182328   16.650542852   17.485589748
    1.039899833   17.027777311   16.681643866   17.516046989
    1.047078464   17.064276272   16.713742424   17.547332477
    1.054257095   17.103127062   16.747000643   17.579576969
    1.061435726   17.144909074   16.781624257   17.612947232
    1.068614357   17.190298883   16.817852267   17.647637506
    1.075792988   17.239773791   16.855864876   17.683793054
    1.082971619   17.292226328   16.895351671   17.721151264
    1.090150250   17.339375533   16.933768373   17.757592304
    1.097328881   17.348713717   16.961016469   17.784715254
    1.104507513   17.262412701   16.959102563   17.787555659
    1.111686144   17.142757674   16.947517475   17.782323732
    1.118864775   17.120635641   16.967164214   17.803040859
    1.126043406   17.164112519   17.008150004   17.841494572
    1.133222037   17.225052419   17.055536531   17.885287107
    1.140400668   17.288323473   17.104699669   17.930609218
    1.147579299   17.351454547   17.155006264   17.976969294
    1.154757930   17.414917005   17.206875136   18.024678799
    1.161936561   17.478490766   17.261005545   18.073904429
    1.169115192   17.536232800   17.318180278   18.123299523
    1.176293823   17.563128805   17.379106405   18.166309349
    1.183472454   17.517041974   17.444376713   18.191646564
    1.190651085   17.451431494   17.515302420   18.214176393
    1.197829716   17.459222554   17.591120633   18.257784625
    1.205008347   17.506377815   17.659023642   18.303456828
    1.212186978   17.538849366   17.679883126   18.307963649
    1.219365609   17.537801846   17.636426568   18.254210035
    1.226544240   17.552846418   17.628423802   18.232236430
    1.233722871   17.600843965   17.657812760   18.269690604
    1.240901503   17.660341885   17.608739747   18.323983533
    1.248080134   17.721424134   17.503263405   18.379202513
    1.255258765   17.783041424   17.510793022   18.442319023
    1.262437396   17.845308549   17.612926917   18.511921412
    1.269616027   17.907948691   17.739925900   18.583241348
    1.276794658   17.968429236   17.840216503   18.649174589
    1.283973289   18.018670245   17.828515250   18.692505188
    1.291151920   18.057822825   17.694198878   18.711903840
    1.298330551   18.107611668   17.651197799   18.755983432
    1.305509182   18.162717375   17.710597612   18.831682102
    1.312687813   18.195164816   17.710756671   18.910329895
    1.319866444   18.219810792   17.576278693   18.966007570
    1.327045075   18.280761155   17.442112420   19.014887569
    1.334223706   18.366151760   17.461995091   19.098328780
    1.341402337   18.438766081   17.561498511   19.176998705
    1.348580968   18.425268302   17.612191557   19.127802007
    1.355759599   18.268246351   17.545973745   18.840519580
    1.362938230   18.147770132   17.500357192   18.587683129
    1.370116861   18.170509791   17.551245913   18.575696839
    1.377295492   18.248103246   17.612478605   18.675025032
    1.384474124   18.334663941   17.660034448   18.797660891
    1.391652755   18.433830851   17.738528176   18.923682289
    1.398831386   18.542425221   17.841405930   19.049794150
    1.406010017   18.652890782   17.950271565   19.173829249
    1.413188648   18.749274825   18.057815775   19.282941420
    1.420367279   18.784154568   18.154499108   19.329402427
    1.427545910   18.723882355   18.216385067   19.250572431
    1.434724541   18.678881370   18.225019221   19.092860050
    1.441903172   18.720277444   18.238589398   18.995242123
    1.449081803   18.798807656   18.288014911   18.985137183
    1.456260434   18.833466756   18.322929469   18.996095066
    1.463439065   18.723776881   18.284364946   19.041568930
    1.470617696   18.476037858   18.158032513   19.103452110
    1.477796327   18.373984956   18.114619717   19.181782817
    1.484974958   18.438585418   18.183332646   19.273233972
    1.492153589   18.554685585   18.290081130   19.365915597
    1.499332220   18.673907126   18.401038490   19.455589779
    1.506510851   18.779110947   18.503428839   19.541184299
    1.513689482   18.852648468   18.582848450   19.620867474
    1.520868114   18.899450864   18.642670558   19.696171645
    1.528046745   18.961391540   18.713904895   19.774057197
    1.535225376   19.029427271   18.781295674   19.851793731
    1.542404007   19.079816877   18.836024562   19.924964539
    1.549582638   19.118547302   18.901884499   19.994278516
    1.556761269   19.162611963   18.932600862   20.050580708
    1.563939900   19.200668084   18.849998724   20.069393114
    1.571118531   19.243153767   18.750295534   20.072254770
    1.578297162   19.311730623   18.741469122   20.076867618
    1.585475793   19.393186499   18.783348992   20.087452633
    1.592654424   19.477771005   18.864330158   20.142262916
    1.599833055   19.562754462   18.962157799   20.224363528
    1.607011686   19.647722850   19.060813286   20.312657023
    1.614190317   19.732006801   19.156166296   20.400262268
    1.621368948   19.811428763   19.247324464   20.484129738
    1.628547579   19.878231024   19.333528700   20.560973657
    1.635726210   19.938847205   19.418239954   20.634872662
    1.642904841   19.992979809   19.505091626   20.708273954
    1.650083472   20.008999592   19.590975376   20.769963972
    1.657262104   20.017202827   19.676019829   20.829082222
    1.664440735   20.071409594   19.754833489   20.900417603
    1.671619366   20.147798507   19.794225566   20.964860797
    1.678797997   20.222227484   19.773130870   21.007497695
    1.685976628   20.301392327   19.777094925   21.060646279
    1.693155259   20.390233348   19.844287949   21.139349980
    1.700333890   20.483713603   19.937503436   21.228933440
    1.707512521   20.579598633   20.036571922   21.321598843
    1.714691152   20.677695174   20.136491994   21.415505527
    1.721869783   20.776932484   20.235500330   21.509549234
    1.729048414   20.870057462   20.327498856   21.598658228
    1.736227045   20.932361391   20.391748337   21.665765061
    1.743405676   20.942701641   20.410448182   21.696194322
    1.750584307   20.968913299   20.440867045   21.736389185
    1.757762938   21.053711003   20.518913712   21.815394789
    1.764941569   21.167240434   20.619022883   21.912182441
    1.772120200   21.291499668   20.725462288   22.013680673
    1.779298831   21.423177773   20.834710498   22.116696320
    1.786477462   21.563611905   20.947038131   22.221083990
    1.793656093   21.714355739   21.063246544   22.327285218
    1.800834725   21.871526323   21.182100300   22.435136666
    1.808013356   22.006393873   21.292754985   22.541301652
    1.815191987   22.008330454   21.352731851   22.632005184
    1.822370618   21.694163802   21.291536216   22.684234712
    1.829549249   21.294293825   21.198274388   22.727578476
    1.836727880   21.211528109   21.228591846   22.813569571
    1.843906511   21.325986243   21.336426188   22.927300316
    1.851085142   21.487124724   21.463904073   23.050015087
    1.858263773   21.648078300   21.593199521   23.176217295
    1.865442404   21.800139727   21.721262924   23.305364505
    1.872621035   21.943898943   21.848702656   23.438235386
    1.879799666   22.081635314   21.976875985   23.576013586
    1.886978297   22.215591019   22.107260183   23.720139477
    1.894156928   22.347695373   22.241398623   23.872372864
    1.901335559   22.479617883   22.380994072   24.034925881
    1.908514190   22.612844365   22.528034472   24.210601669
    1.915692821   22.748582744   22.684866566   24.402770084
    1.922871452   22.887000938   22.853952375   24.614525496
    1.930050083   23.024824493   23.036443607   24.845195050
    1.937228715   23.155860651   23.227842693   25.083911857
    1.944407346   23.283168130   23.402525213   25.292260587
    1.951585977   23.384423768   23.451408143   25.292675851
    1.958764608   23.378411817   23.156369704   24.727143271
    1.965943239   23.294279532   22.676582019   23.885181254
    1.973121870   23.321604070   22.538214236   23.611112518
    1.980300501   23.453591708   22.675507740   23.771797789
    1.987479132   23.617793077   22.889160418   24.048956760
    1.994657763   23.784344869   23.104405868   24.327763268
    2.001836394   23.936819245   23.289669509   24.565134539
    2.009015025   24.059800563   23.421193179   24.732814768
    2.016193656   24.167544230   23.523038505   24.862105540
    2.023372287   24.300443949   23.655508744   25.021906677
    2.030550918   24.461525262   23.820306101   25.203380037
    2.037729549   24.634433926   23.992321833   25.378130270
    2.044908180   24.819262946   24.175266536   25.579190189
    2.052086811   25.011698434   24.366812199   25.805686923
    2.059265442   25.190058202   24.552834361   26.023714026
    2.066444073   25.299224289   24.712081544   26.177965437
    2.073622705   25.292623844   24.845166514   26.219837071
    2.080801336   25.287222239   24.997024166   26.249720437
    2.087979967   25.390421242   25.179877499   26.379539633
    2.095158598   25.533427268   25.353247129   26.539316143
    2.102337229   25.695888124   25.505754417   26.727486145
    2.109515860   25.877101092   25.682205641   26.965130065
    2.116694491   26.018782438   25.858507640   27.213230144
    2.123873122   26.144251209   26.025101668   27.453778797
    2.131051753   26.335416928   26.185311702   27.661636269
    2.138230384   26.561369529   26.243494073   27.759908706
    2.145409015   26.786408738   26.272907366   27.793099403
    2.152587646   26.997505027   26.368127291   27.822443391
    2.159766277   27.215699582   26.479141014   27.939922523
    2.166944908   27.421821157   26.575963919   28.187097082
    2.174123539   27.537429496   26.715750900   28.446936586
    2.181302170   27.526517692   26.843088632   28.577497769
    2.188480801   27.365760830   26.886421440   28.528617449
    2.195659432   27.309051682   27.000039760   28.572533777
    2.202838063   27.437922926   27.156623778   28.805677231
    2.210016694   27.597812077   27.257007155   29.082174269
    2.217195326   27.805406237   27.410687160   29.341789311
    2.224373957   28.079619389   27.663108843   29.607507976
    2.231552588   28.376043365   27.953135430   29.866330861
    2.238731219   28.677097802   28.236589634   30.134844676
    2.245909850   28.937330466   28.434345172   30.350470543
    2.253088481   29.093303976   28.544010567   30.457505532
    2.260267112   29.211580613   28.733288541   30.597758504
    2.267445743   29.423376517   28.986820198   30.826217363
    2.274624374   29.636002601   29.159331796   31.010545604
    2.281803005   29.729806150   29.236709249   31.086026761
    2.288981636   29.828533302   29.391524091   31.238364369
    2.296160267   30.007874493   29.589897096   31.511707658
    2.303338898   30.247053641   29.810784678   31.824741449
    2.310517529   30.569926209   30.110648992   32.180197984
    2.317696160   30.915497009   30.428335437   32.551216758
    2.324874791   31.209068461   30.699099137   32.895631330
    2.332053422   31.466782303   30.990358399   33.247266423
    2.339232053   31.725256205   31.314318857   33.626300550
    2.346410684   31.978766156   31.630797203   34.009235303
    2.353589316   32.274835069   31.962144275   34.410314731
    2.360767947   32.616627449   32.306414183   34.821581413
    2.367946578   32.981658398   32.674905935   35.205959437
    2.375125209   33.379184410   33.072338207   35.582883080
    2.382303840   33.825292887   33.486053482   36.010497271
    2.389482471   34.303320972   33.906400821   36.505815449
    2.396661102   34.798697145   34.308689719   37.025524450
    2.403839733   35.310865467   34.755335179   37.568371841
    2.411018364   35.826281421   35.254534290   38.080899700
    2.418196995   36.316958287   35.750218335   38.469709217
    2.425375626   36.710939333   36.161806596   38.568874104
    2.432554257   37.058922849   36.537918696   38.537823395
    2.439732888   37.532729034   37.039503491   38.875876226
    2.446911519   38.145608954   37.636357062   39.503525093
    2.454090150   38.844265881   38.224216312   40.211943557
    2.461268781   39.550590927   38.720078299   40.922736123
    2.468447412   40.189022954   39.142412808   41.602386154
    2.475626043   40.761240331   39.657170599   42.288027614
    2.482804674   41.380111116   40.367347503   43.074030293
    2.489983306   42.277131198   41.216148054   43.977019723
    2.497161937   43.345785500   42.112995336   44.956348509
    2.504340568   44.032038168   42.895892340   45.867922709
    2.511519199   43.452964305   43.347894663   46.442833602
    2.518697830   42.317515306   43.745070191   46.906676249
    2.525876461   42.628453174   44.639025359   47.877370770
    2.533055092   43.998763232   45.881804728   49.224525220
    2.540233723   45.430115517   47.112997808   50.594423363
