# energy grid [eV]     epsr_x  epsr_y  epsr_z
#
    0.200000000   11.831611914    7.181486459   12.679736178
    0.207178631   11.834150012    7.182741333   12.682473832
    0.214357262   11.836779184    7.184041250   12.685309745
    0.221535893   11.839499598    7.185386294   12.688244103
    0.228714524   11.842311426    7.186776554   12.691277095
    0.235893155   11.845214848    7.188212121   12.694408919
    0.243071786   11.848210052    7.189693090   12.697639779
    0.250250417   11.851297229    7.191219559   12.700969887
    0.257429048   11.854476579    7.192791630   12.704399462
    0.264607679   11.857748308    7.194409408   12.707928731
    0.271786311   11.861112627    7.196073003   12.711557928
    0.278964942   11.864569757    7.197782526   12.715287292
    0.286143573   11.868119924    7.199538094   12.719117074
    0.293322204   11.871763359    7.201339826   12.723047531
    0.300500835   11.875500305    7.203187848   12.727078926
    0.307679466   11.879331007    7.205082286   12.731211533
    0.314858097   11.883255720    7.207023272   12.735445632
    0.322036728   11.887274705    7.209010942   12.739781513
    0.329215359   11.891388233    7.211045436   12.744219472
    0.336393990   11.895596579    7.213126899   12.748759815
    0.343572621   11.899900028    7.215255478   12.753402858
    0.350751252   11.904298872    7.217431327   12.758148924
    0.357929883   11.908793412    7.219654605   12.762998346
    0.365108514   11.913383956    7.221925472   12.767951465
    0.372287145   11.918070821    7.224244096   12.773008634
    0.379465776   11.922854331    7.226610649   12.778170212
    0.386644407   11.927734821    7.229025309   12.783436572
    0.393823038   11.932712633    7.231488257   12.788808094
    0.401001669   11.937788118    7.233999682   12.794285169
    0.408180301   11.942961638    7.236559776   12.799868200
    0.415358932   11.948233561    7.239168738   12.805557599
    0.422537563   11.953604269    7.241826773   12.811353791
    0.429716194   11.959074151    7.244534091   12.817257211
    0.436894825   11.964643606    7.247290910   12.823268307
    0.444073456   11.970313044    7.250097453   12.829387538
    0.451252087   11.976082887    7.252953950   12.835615377
    0.458430718   11.981953567    7.255860638   12.841952308
    0.465609349   11.987925525    7.258817761   12.848398829
    0.472787980   11.993999218    7.261825571   12.854955454
    0.479966611   12.000175112    7.264884327   12.861622708
    0.487145242   12.006453686    7.267994296   12.868401133
    0.494323873   12.012835432    7.271155755   12.875291285
    0.501502504   12.019320856    7.274368988   12.882293736
    0.508681135   12.025910477    7.277634289   12.889409076
    0.515859766   12.032604827    7.280951961   12.896637911
    0.523038397   12.039404456    7.284322317   12.903980864
    0.530217028   12.046309926    7.287745681   12.911438578
    0.537395659   12.053321817    7.291222388   12.919011716
    0.544574290   12.060440725    7.294752784   12.926700959
    0.551752922   12.067667265    7.298337227   12.934507012
    0.558931553   12.075002066    7.301976089   12.942430602
    0.566110184   12.082445782    7.305669755   12.950472477
    0.573288815   12.089999081    7.309418622   12.958633412
    0.580467446   12.097662657    7.313223106   12.966914208
    0.587646077   12.105437223    7.317083636   12.975315693
    0.594824708   12.113323515    7.321000659   12.983838723
    0.602003339   12.121322296    7.324974640   12.992484188
    0.609181970   12.129434353    7.329006063   13.001253006
    0.616360601   12.137660501    7.333095433   13.010146134
    0.623539232   12.146001584    7.337243275   13.019164564
    0.630717863   12.154458476    7.341450140   13.028309326
    0.637896494   12.163032086    7.345716602   13.037581495
    0.645075125   12.171723356    7.350043264   13.046982189
    0.652253756   12.180533268    7.354430754   13.056512574
    0.659432387   12.189462841    7.358879736   13.066173870
    0.666611018   12.198513141    7.363390904   13.075967351
    0.673789649   12.207685277    7.367964990   13.085894352
    0.680968280   12.216980410    7.372602765   13.095956274
    0.688146912   12.226399756    7.377305045   13.106154589
    0.695325543   12.235944589    7.382072689   13.116490845
    0.702504174   12.245616248    7.386906611   13.126966675
    0.709682805   12.255416139    7.391807778   13.137583803
    0.716861436   12.265345748    7.396777220   13.148344056
    0.724040067   12.275406643    7.401816034   13.159249369
    0.731218698   12.285600483    7.406925393   13.170301801
    0.738397329   12.295929030    7.412106550   13.181503544
    0.745575960   12.306394157    7.417360851   13.192856942
    0.752754591   12.316997862    7.422689743   13.204364501
    0.759933222   12.327742280    7.428094788   13.216028917
    0.767111853   12.338629701    7.433577673   13.227853089
    0.774290484   12.349662590    7.439140229   13.239840151
    0.781469115   12.360843603    7.444784449   13.251993499
    0.788647746   12.372175617    7.450512505   13.264316824
    0.795826377   12.383661760    7.456326778   13.276814155
    0.803005008   12.395305440    7.462229883   13.289489904
    0.810183639   12.407110391    7.468224706   13.302348922
    0.817362270   12.419080715    7.474314441   13.315396564
    0.824540902   12.431220946    7.480502640   13.328638768
    0.831719533   12.443536112    7.486793270   13.342082147
    0.838898164   12.456031819    7.493190781   13.355734105
    0.846076795   12.468714349    7.499700188   13.369602968
    0.853255426   12.481590783    7.506327177   13.383698151
    0.860434057   12.494669142    7.513078221   13.398030366
    0.867612688   12.507958576    7.519960741   13.412611862
    0.874791319   12.521469584    7.526983288   13.427456745
    0.881969950   12.535214296    7.534155786   13.442581362
    0.889148581   12.549206834    7.541489829   13.458004796
    0.896327212   12.563463760    7.548999061   13.473749491
    0.903505843   12.578004662    7.556699671   13.489842056
    0.910684474   12.592852911    7.564611026   13.506314315
    0.917863105   12.608036652    7.572756507   13.523204678
    0.925041736   12.623590125    7.581164620   13.540559968
    0.932220367   12.639555433    7.589870484   13.558437867
    0.939398998   12.655984946    7.598917851   13.576910245
    0.946577629   12.672944610    7.608361892   13.596067742
    0.953756260   12.690518543    7.618273064   13.616026137
    0.960934891   12.708815493    7.628742544   13.636935294
    0.968113523   12.727977957    7.639889897   13.658991794
    0.975292154   12.748194975    7.651873847   13.682456675
    0.982470785   12.769719593    7.664906967   13.707679633
    0.989649416   12.792890472    7.679273858   13.735128969
    0.996828047   12.818149967    7.695346362   13.765416646
    1.004006678   12.846021800    7.713564775   13.799267296
    1.011185309   12.876896110    7.734256966   13.837220039
    1.018363940   12.910010946    7.756781341   13.878215759
    1.025542571   12.939303729    7.776036004   13.913842990
    1.032721202   12.940211161    7.771351381   13.910029174
    1.039899833   12.864022385    7.701738615   13.799208360
    1.047078464   12.749153596    7.599522841   13.634660147
    1.054257095   12.710386361    7.561287635   13.575582991
    1.061435726   12.729095320    7.571359706   13.596137626
    1.068614357   12.762790188    7.593984228   13.637382749
    1.075792988   12.797013430    7.616994705   13.679257342
    1.082971619   12.828834403    7.637923876   13.717686472
    1.090150250   12.858219042    7.656741579   13.752610408
    1.097328881   12.885684096    7.673880794   13.784730291
    1.104507513   12.911751415    7.689778328   13.814750210
    1.111686144   12.936849191    7.704791549   13.843238818
    1.118864775   12.961317299    7.719202644   13.870634762
    1.126043406   12.985432157    7.733239201   13.897278371
    1.133222037   13.009431652    7.747094721   13.923442303
    1.140400668   13.033537117    7.760946456   13.949356625
    1.147579299   13.057972723    7.774970912   13.975228894
    1.154757930   13.082981014    7.789356165   14.001259405
    1.161936561   13.108823672    7.804303001   14.027646262
    1.169115192   13.135718900    7.819978921   14.054553582
    1.176293823   13.163517560    7.836278370   14.081932223
    1.183472454   13.190351876    7.851821284   14.108763492
    1.190651085   13.208077624    7.860574647   14.130503524
    1.197829716   13.197885775    7.848599633   14.136622437
    1.205008347   13.166812155    7.821115674   14.131087148
    1.212186978   13.162146464    7.813181716   14.140445532
    1.219365609   13.182716988    7.823933303   14.164057400
    1.226544240   13.210665688    7.840136974   14.191920892
    1.233722871   13.239263882    7.856809635   14.220277570
    1.240901503   13.267060967    7.872881231   14.248330233
    1.248080134   13.293980563    7.888301039   14.276053251
    1.255258765   13.320220069    7.903222083   14.303575632
    1.262437396   13.345990064    7.917808176   14.331035314
    1.269616027   13.371463976    7.932196851   14.358551486
    1.276794658   13.396777108    7.946498971   14.386224729
    1.283973289   13.422035145    7.960805438   14.414142637
    1.291151920   13.447322701    7.975194081   14.442385709
    1.298330551   13.472710200    7.989735471   14.471032647
    1.305509182   13.498259215    8.004497848   14.500165271
    1.312687813   13.524026768    8.019551633   14.529873534
    1.319866444   13.550069085    8.034974046   14.560261231
    1.327045075   13.576445282    8.050854394   14.591453076
    1.334223706   13.603221404    8.067300658   14.623603998
    1.341402337   13.630475272    8.084448084   14.656911637
    1.348580968   13.658302446    8.102470299   14.691632779
    1.355759599   13.686822966    8.121592185   14.728102534
    1.362938230   13.716185586    8.142097911   14.766746308
    1.370116861   13.746554550    8.164304331   14.808039651
    1.377295492   13.778017838    8.188378070   14.852232635
    1.384474124   13.810172952    8.213510449   14.898106706
    1.391652755   13.840500583    8.234678312   14.938094064
    1.398831386   13.859947184    8.233845930   14.945021010
    1.406010017   13.856606413    8.187297470   14.883156806
    1.413188648   13.852467850    8.138829525   14.818500120
    1.420367279   13.871982815    8.137144121   14.824444139
    1.427545910   13.904135157    8.160305704   14.867950168
    1.434724541   13.939333612    8.189220172   14.920266941
    1.441903172   13.974846651    8.218460303   14.973244772
    1.449081803   14.010261306    8.247222278   15.025712489
    1.456260434   14.045726665    8.275828879   15.078213344
    1.463439065   14.081506246    8.304840455   15.131671150
    1.470617696   14.117881383    8.334867016   15.187110381
    1.477796327   14.155130203    8.366536663   15.245594330
    1.484974958   14.193475822    8.400422047   15.308021620
    1.492153589   14.232828034    8.436626139   15.374088161
    1.499332220   14.271715274    8.473015052   15.437978448
    1.506510851   14.304031256    8.499788843   15.475219456
    1.513689482   14.319045468    8.499540300   15.442751457
    1.520868114   14.329255978    8.494062344   15.391683787
    1.528046745   14.359380203    8.525772858   15.422628675
    1.535225376   14.403306177    8.584827477   15.510841977
    1.542404007   14.451951314    8.653277409   15.616344015
    1.549582638   14.501090461    8.707738486   15.705159693
    1.556761269   14.544287939    8.676454633   15.689817497
    1.563939900   14.571642546    8.441933727   15.428947708
    1.571118531   14.596898154    8.151088359   15.099819439
    1.578297162   14.643418254    8.062649673   15.014247489
    1.585475793   14.702783677    8.100175856   15.079749425
    1.592654424   14.756484693    8.166079417   15.175939972
    1.599833055   14.770388243    8.226843839   15.253558299
    1.607011686   14.719693161    8.273306998   15.296486496
    1.614190317   14.659934411    8.308708411   15.330547344
    1.621368948   14.626172756    8.338550592   15.371525373
    1.628547579   14.645454595    8.373582874   15.426812993
    1.635726210   14.701859448    8.413420874   15.490715775
    1.642904841   14.767960530    8.453564318   15.554612966
    1.650083472   14.834317453    8.492723702   15.615950905
    1.657262104   14.899466328    8.531092775   15.674718130
    1.664440735   14.963975001    8.569220346   15.731452197
    1.671619366   15.028816740    8.607722424   15.786714513
    1.678797997   15.095028746    8.647246608   15.840992000
    1.685976628   15.163692214    8.688499776   15.894699364
    1.693155259   15.235976142    8.732284205   15.948197771
    1.700333890   15.313122733    8.779491536   16.001799496
    1.707512521   15.396096723    8.830881926   16.055707799
    1.714691152   15.483877874    8.885988127   16.109711978
    1.721869783   15.567898985    8.939519081   16.162201312
    1.729048414   15.630661293    8.980396116   16.209965779
    1.736227045   15.692135711    9.021367682   16.256701128
    1.743405676   15.791087157    9.085492167   16.310659832
    1.750584307   15.879191169    9.132323365   16.369454468
    1.757762938   15.810154030    9.039160149   16.426355159
    1.764941569   15.448845906    8.703946371   16.470834828
    1.772120200   15.089021019    8.414532576   16.497867084
    1.779298831   14.980889495    8.355941817   16.529058706
    1.786477462   15.034443751    8.404236051   16.573040293
    1.793656093   15.118209419    8.466553704   16.605866423
    1.800834725   15.190737234    8.521835973   16.631673962
    1.808013356   15.263720748    8.582946540   16.675199921
    1.815191987   15.306732746    8.645491895   16.724381251
    1.822370618   15.351007441    8.705719674   16.779555528
    1.829549249   15.433432848    8.764545622   16.847680664
    1.836727880   15.533018049    8.822398376   16.923152501
    1.843906511   15.634742393    8.880206337   17.002388039
    1.851085142   15.733973973    8.939113840   17.083873037
    1.858263773   15.823636518    8.999214420   17.162209679
    1.865442404   15.881646924    9.056013244   17.218661925
    1.872621035   15.893505276    9.092623531   17.232740039
    1.879799666   15.907206267    9.078711912   17.224051251
    1.886978297   15.920529346    8.999856785   17.201249182
    1.894156928   15.923413636    8.903041278   17.181809460
    1.901335559   15.971168118    8.888462862   17.223492417
    1.908514190   16.054637077    8.936829178   17.308478587
    1.915692821   16.142519640    8.995449322   17.397031573
    1.922871452   16.208545355    9.024555687   17.450481589
    1.930050083   16.230000373    8.991778064   17.432432586
    1.937228715   16.249788393    8.955843519   17.412367542
    1.944407346   16.311452618    8.976505712   17.460633802
    1.951585977   16.394642194    9.025465513   17.543579641
    1.958764608   16.482862642    9.079693443   17.633808670
    1.965943239   16.571945888    9.133073594   17.723928838
    1.973121870   16.661855777    9.185079870   17.813167538
    1.980300501   16.753612440    9.236500852   17.902303947
    1.987479132   16.848460888    9.288260192   17.992243451
    1.994657763   16.947325610    9.340682479   18.083068045
    2.001836394   17.049119393    9.391453158   18.171380476
    2.009015025   17.145639020    9.430401133   18.243951265
    2.016193656   17.216532359    9.442723787   18.286578450
    2.023372287   17.225435403    9.429323749   18.323126900
    2.030550918   17.136255160    9.384552096   18.365173803
    2.037729549   17.079638334    9.360241995   18.426341581
    2.044908180   17.135382253    9.388807988   18.510888652
    2.052086811   17.233515432    9.438260695   18.596136143
    2.059265442   17.342250242    9.492512474   18.685966436
    2.066444073   17.441678582    9.546354351   18.776383088
    2.073622705   17.472775672    9.589588009   18.822494489
    2.080801336   17.420011270    9.615622809   18.810882352
    2.087979967   17.418464251    9.634346777   18.838394338
    2.095158598   17.491562957    9.655403306   18.918632971
    2.102337229   17.569707962    9.694582050   18.994509252
    2.109515860   17.640835769    9.748255055   19.063243558
    2.116694491   17.736059040    9.810422475   19.163424075
    2.123873122   17.848248566    9.876925155   19.285632457
    2.131051753   17.963512740    9.941406385   19.405728246
    2.138230384   18.074768893    9.986639040   19.489834759
    2.145409015   18.178294736    9.996721273   19.512807024
    2.152587646   18.279904183   10.007716023   19.549896672
    2.159766277   18.376314238   10.018511812   19.637573560
    2.166944908   18.456611824    9.972420799   19.728362462
    2.174123539   18.532205643    9.891810797   19.811884631
    2.181302170   18.633116195    9.881087185   19.918924319
    2.188480801   18.753271828    9.934227034   20.048404321
    2.195659432   18.863378937    9.994785160   20.156913943
    2.202838063   18.921151939   10.007668822   20.163080148
    2.210016694   18.945928520    9.981414576   20.093993676
    2.217195326   19.027061848    9.981259746   20.124943902
    2.224373957   19.160164062   10.023261194   20.255028569
    2.231552588   19.301862819   10.088938268   20.415944049
    2.238731219   19.401216650   10.139583445   20.565371935
    2.245909850   19.422601216   10.153378572   20.673915844
    2.253088481   19.434067918   10.167425524   20.735189169
    2.260267112   19.455716547   10.190753982   20.729243693
    2.267445743   19.484104123   10.214881222   20.698704835
    2.274624374   19.580995545   10.263753550   20.765327294
    2.281803005   19.713368955   10.329923718   20.897396722
    2.288981636   19.831700460   10.398769720   21.030861219
    2.296160267   19.959962502   10.469357889   21.172323493
    2.303338898   20.118943853   10.543215090   21.333915811
    2.310517529   20.291352869   10.617697925   21.501132044
    2.317696160   20.461882189   10.685018853   21.657611504
    2.324874791   20.623354421   10.729918955   21.799169769
    2.332053422   20.789740092   10.759315898   21.948879812
    2.339232053   20.972402135   10.811405762   22.097213911
    2.346410684   21.151413811   10.880204416   22.219075468
    2.353589316   21.271408683   10.933571552   22.314587250
    2.360767947   21.202210645   10.921818104   22.326320190
    2.367946578   20.994128007   10.859977099   22.294961783
    2.375125209   20.965056291   10.833464112   22.348126651
    2.382303840   21.111443487   10.847502946   22.477658516
    2.389482471   21.306893059   10.883379675   22.649963887
    2.396661102   21.515173841   10.939168800   22.840904281
    2.403839733   21.736470563   11.021358659   23.030123246
    2.411018364   21.927687802   11.105065820   23.194609849
    2.418196995   22.017679464   11.164838042   23.345210305
    2.425375626   22.024561879   11.207380051   23.511584954
    2.432554257   22.118367023   11.260501409   23.691739448
    2.439732888   22.314775797   11.332213849   23.885239860
    2.446911519   22.552106770   11.410495974   24.092035673
    2.454090150   22.795912266   11.463321536   24.296008528
    2.461268781   23.048141084   11.487289098   24.491630453
    2.468447412   23.314376699   11.495103370   24.682919275
    2.475626043   23.583265608   11.541127859   24.895599612
    2.482804674   23.834864085   11.626528303   25.123501870
    2.489983306   24.085928292   11.727085776   25.357249211
    2.497161937   24.352592413   11.837080359   25.584981004
    2.504340568   24.581896747   11.929766826   25.750400543
    2.511519199   24.773819558   11.989204468   25.890275366
    2.518697830   24.842842656   12.017711790   26.085801881
    2.525876461   24.655459569   12.015296292   26.281465112
    2.533055092   24.430038541   12.049785097   26.472761745
    2.540233723   24.505945677   12.102282897   26.719753997
