# energy grid [eV]     ieps_x  ieps_y  ieps_z
#
    0.200000000    7.234346645    4.441481791    7.892217774
    0.207178631    7.232826328    4.440746063    7.890558040
    0.214357262    7.231253346    4.439984855    7.888840814
    0.221535893    7.229627795    4.439198214    7.887066203
    0.228714524    7.227949775    4.438386189    7.885234315
    0.235893155    7.226219387    4.437548828    7.883345262
    0.243071786    7.224436737    4.436686184    7.881399158
    0.250250417    7.222601932    4.435798308    7.879396122
    0.257429048    7.220715085    4.434885254    7.877336275
    0.264607679    7.218776309    4.433947078    7.875219741
    0.271786311    7.216785720    4.432983835    7.873046648
    0.278964942    7.214743438    4.431995585    7.870817126
    0.286143573    7.212649585    4.430982385    7.868531310
    0.293322204    7.210504287    4.429944296    7.866189334
    0.300500835    7.208307671    4.428881379    7.863791340
    0.307679466    7.206059868    4.427793698    7.861337468
    0.314858097    7.203761011    4.426681316    7.858827865
    0.322036728    7.201411237    4.425544299    7.856262679
    0.329215359    7.199010682    4.424382711    7.853642060
    0.336393990    7.196559490    4.423196623    7.850966161
    0.343572621    7.194057802    4.421986100    7.848235140
    0.350751252    7.191505766    4.420751215    7.845449156
    0.357929883    7.188903530    4.419492036    7.842608370
    0.365108514    7.186251245    4.418208636    7.839712947
    0.372287145    7.183549065    4.416901089    7.836763053
    0.379465776    7.180797146    4.415569467    7.833758859
    0.386644407    7.177995645    4.414213847    7.830700536
    0.393823038    7.175144725    4.412834303    7.827588260
    0.401001669    7.172244548    4.411430914    7.824422207
    0.408180301    7.169295279    4.410003756    7.821202556
    0.415358932    7.166297085    4.408552910    7.817929490
    0.422537563    7.163250138    4.407078454    7.814603194
    0.429716194    7.160154608    4.405580470    7.811223852
    0.436894825    7.157010670    4.404059039    7.807791656
    0.444073456    7.153818500    4.402514244    7.804306795
    0.451252087    7.150578276    4.400946168    7.800769464
    0.458430718    7.147290180    4.399354896    7.797179857
    0.465609349    7.143954393    4.397740513    7.793538173
    0.472787980    7.140571100    4.396103104    7.789844612
    0.479966611    7.137140489    4.394442756    7.786099375
    0.487145242    7.133662746    4.392759558    7.782302667
    0.494323873    7.130138063    4.391053597    7.778454693
    0.501502504    7.126566631    4.389324962    7.774555662
    0.508681135    7.122948646    4.387573743    7.770605784
    0.515859766    7.119284303    4.385800031    7.766605271
    0.523038397    7.115573800    4.384003917    7.762554337
    0.530217028    7.111817337    4.382185493    7.758453198
    0.537395659    7.108015115    4.380344851    7.754302070
    0.544574290    7.104167336    4.378482085    7.750101175
    0.551752922    7.100274206    4.376597289    7.745850732
    0.558931553    7.096335932    4.374690558    7.741550965
    0.566110184    7.092352720    4.372761986    7.737202098
    0.573288815    7.088324782    4.370811669    7.732804358
    0.580467446    7.084252328    4.368839705    7.728357973
    0.587646077    7.080135570    4.366846189    7.723863172
    0.594824708    7.075974724    4.364831220    7.719320187
    0.602003339    7.071770005    4.362794896    7.714729250
    0.609181970    7.067521630    4.360737315    7.710090595
    0.616360601    7.063229819    4.358658577    7.705404460
    0.623539232    7.058894790    4.356558781    7.700671080
    0.630717863    7.054516766    4.354438028    7.695890694
    0.637896494    7.050095969    4.352296418    7.691063543
    0.645075125    7.045632624    4.350134053    7.686189868
    0.652253756    7.041126955    4.347951035    7.681269913
    0.659432387    7.036579191    4.345747466    7.676303920
    0.666611018    7.031989558    4.343523447    7.671292137
    0.673789649    7.027358286    4.341279084    7.666234809
    0.680968280    7.022685605    4.339014478    7.661132185
    0.688146912    7.017971747    4.336729734    7.655984513
    0.695325543    7.013216945    4.334424957    7.650792046
    0.702504174    7.008421432    4.332100250    7.645555033
    0.709682805    7.003585442    4.329755720    7.640273728
    0.716861436    6.998709213    4.327391472    7.634948385
    0.724040067    6.993792981    4.325007611    7.629579259
    0.731218698    6.988836984    4.322604244    7.624166605
    0.738397329    6.983841461    4.320181478    7.618710681
    0.745575960    6.978806651    4.317739419    7.613211745
    0.752754591    6.973732796    4.315278175    7.607670055
    0.759933222    6.968620137    4.312797853    7.602085873
    0.767111853    6.963468918    4.310298561    7.596459458
    0.774290484    6.958279380    4.307780408    7.590791073
    0.781469115    6.953051770    4.305243501    7.585080981
    0.788647746    6.947786331    4.302687950    7.579329444
    0.795826377    6.942483310    4.300113864    7.573536727
    0.803005008    6.937142953    4.297521351    7.567703095
    0.810183639    6.931765507    4.294910522    7.561828815
    0.817362270    6.926351221    4.292281486    7.555914153
    0.824540902    6.920900344    4.289634354    7.549959376
    0.831719533    6.915413124    4.286969234    7.543964752
    0.838898164    6.909889813    4.284286239    7.537930551
    0.846076795    6.904330659    4.281585479    7.531857042
    0.853255426    6.898735916    4.278867064    7.525744494
    0.860434057    6.893105833    4.276131106    7.519593178
    0.867612688    6.887440665    4.273377715    7.513403367
    0.874791319    6.881740663    4.270607004    7.507175330
    0.881969950    6.876006080    4.267819084    7.500909341
    0.889148581    6.870237172    4.265014066    7.494605673
    0.896327212    6.864434191    4.262192064    7.488264599
    0.903505843    6.858597393    4.259353187    7.481886392
    0.910684474    6.852727033    4.256497550    7.475471328
    0.917863105    6.846823365    4.253625264    7.469019679
    0.925041736    6.840886647    4.250736441    7.462531722
    0.932220367    6.834917133    4.247831195    7.456007732
    0.939398998    6.828915081    4.244909638    7.449447984
    0.946577629    6.822880746    4.241971882    7.442852755
    0.953756260    6.816814387    4.239018041    7.436222321
    0.960934891    6.810716260    4.236048227    7.429556959
    0.968113523    6.804586623    4.233062554    7.422856944
    0.975292154    6.798425733    4.230061134    7.416122556
    0.982470785    6.792233848    4.227044082    7.409354070
    0.989649416    6.786011226    4.224011509    7.402551764
    0.996828047    6.779758126    4.220963529    7.395715917
    1.004006678    6.773474805    4.217900256    7.388846805
    1.011185309    6.767161521    4.214821804    7.381944707
    1.018363940    6.760818535    4.211728284    7.375009901
    1.025542571    6.754446102    4.208619811    7.368042665
    1.032721202    6.748044483    4.205496498    7.361043277
    1.039899833    6.741613936    4.202358459    7.354012015
    1.047078464    6.735154719    4.199205807    7.346949158
    1.054257095    6.728667091    4.196038655    7.339854984
    1.061435726    6.722151309    4.192857117    7.332729771
    1.068614357    6.715607634    4.189661306    7.325573797
    1.075792988    6.709036322    4.186451335    7.318387341
    1.082971619    6.702437632    4.183227319    7.311170681
    1.090150250    6.695811822    4.179989369    7.303924094
    1.097328881    6.689159151    4.176737600    7.296647858
    1.104507513    6.682479875    4.173472124    7.289342252
    1.111686144    6.675774252    4.170193056    7.282007552
    1.118864775    6.669042540    4.166900507    7.274644036
    1.126043406    6.662284996    4.163594591    7.267251982
    1.133222037    6.655501877    4.160275420    7.259831666
    1.140400668    6.648693440    4.156943109    7.252383364
    1.147579299    6.641859941    4.153597768    7.244907354
    1.154757930    6.635001636    4.150239512    7.237403912
    1.161936561    6.628118781    4.146868452    7.229873313
    1.169115192    6.621211632    4.143484702    7.222315833
    1.176293823    6.614280443    4.140088373    7.214731748
    1.183472454    6.607325471    4.136679578    7.207121332
    1.190651085    6.600346968    4.133258429    7.199484861
    1.197829716    6.593345190    4.129825037    7.191822607
    1.205008347    6.586320390    4.126379516    7.184134846
    1.212186978    6.579272821    4.122921976    7.176421851
    1.219365609    6.572202736    4.119452529    7.168683894
    1.226544240    6.565110388    4.115971286    7.160921249
    1.233722871    6.557996028    4.112478360    7.153134186
    1.240901503    6.550859908    4.108973860    7.145322979
    1.248080134    6.543702280    4.105457899    7.137487898
    1.255258765    6.536523392    4.101930586    7.129629214
    1.262437396    6.529323496    4.098392033    7.121747197
    1.269616027    6.522102841    4.094842349    7.113842116
    1.276794658    6.514861676    4.091281646    7.105914241
    1.283973289    6.507600248    4.087710033    7.097963840
    1.291151920    6.500318806    4.084127620    7.089991182
    1.298330551    6.493017597    4.080534517    7.081996532
    1.305509182    6.485696867    4.076930833    7.073980159
    1.312687813    6.478356862    4.073316677    7.065942327
    1.319866444    6.470997828    4.069692159    7.057883304
    1.327045075    6.463620009    4.066057388    7.049803352
    1.334223706    6.456223649    4.062412472    7.041702737
    1.341402337    6.448808991    4.058757519    7.033581722
    1.348580968    6.441376279    4.055092637    7.025440570
    1.355759599    6.433925753    4.051417935    7.017279542
    1.362938230    6.426457655    4.047733521    7.009098901
    1.370116861    6.418972226    4.044039501    7.000898906
    1.377295492    6.411469705    4.040335983    6.992679818
    1.384474124    6.403950331    4.036623073    6.984441896
    1.391652755    6.396414343    4.032900880    6.976185397
    1.398831386    6.388861978    4.029169508    6.967910580
    1.406010017    6.381293473    4.025429064    6.959617701
    1.413188648    6.373709063    4.021679653    6.951307017
    1.420367279    6.366108984    4.017921383    6.942978782
    1.427545910    6.358493471    4.014154357    6.934633251
    1.434724541    6.350862756    4.010378681    6.926270677
    1.441903172    6.343217073    4.006594460    6.917891312
    1.449081803    6.335556653    4.002801798    6.909495410
    1.456260434    6.327881727    3.999000799    6.901083220
    1.463439065    6.320192525    3.995191568    6.892654992
    1.470617696    6.312489277    3.991374207    6.884210976
    1.477796327    6.304772211    3.987548820    6.875751420
    1.484974958    6.297041555    3.983715510    6.867276571
    1.492153589    6.289297535    3.979874380    6.858786676
    1.499332220    6.281540377    3.976025531    6.850281980
    1.506510851    6.273770305    3.972169067    6.841762727
    1.513689482    6.265987545    3.968305089    6.833229162
    1.520868114    6.258192317    3.964433697    6.824681527
    1.528046745    6.250384846    3.960554994    6.816120063
    1.535225376    6.242565351    3.956669080    6.807545011
    1.542404007    6.234734053    3.952776055    6.798956611
    1.549582638    6.226891171    3.948876019    6.790355102
    1.556761269    6.219036924    3.944969072    6.781740721
    1.563939900    6.211171528    3.941055313    6.773113704
    1.571118531    6.203295200    3.937134842    6.764474289
    1.578297162    6.195408155    3.933207757    6.755822709
    1.585475793    6.187510608    3.929274156    6.747159198
    1.592654424    6.179602772    3.925334138    6.738483989
    1.599833055    6.171684858    3.921387799    6.729797313
    1.607011686    6.163757080    3.917435238    6.721099400
    1.614190317    6.155819646    3.913476550    6.712390481
    1.621368948    6.147872766    3.909511833    6.703670783
    1.628547579    6.139916648    3.905541183    6.694940534
    1.635726210    6.131951500    3.901564695    6.686199960
    1.642904841    6.123977527    3.897582465    6.677449287
    1.650083472    6.115994935    3.893594588    6.668688737
    1.657262104    6.108003929    3.889601159    6.659918535
    1.664440735    6.100004710    3.885602271    6.651138902
    1.671619366    6.091997481    3.881598019    6.642350060
    1.678797997    6.083982443    3.877588495    6.633552226
    1.685976628    6.075959796    3.873573795    6.624745621
    1.693155259    6.067929739    3.869554009    6.615930462
    1.700333890    6.059892469    3.865529230    6.607106964
    1.707512521    6.051848183    3.861499551    6.598275344
    1.714691152    6.043797076    3.857465062    6.589435814
    1.721869783    6.035739344    3.853425855    6.580588589
    1.729048414    6.027675179    3.849382021    6.571733880
    1.736227045    6.019604774    3.845333650    6.562871897
    1.743405676    6.011528320    3.841280832    6.554002850
    1.750584307    6.003446007    3.837223656    6.545126947
    1.757762938    5.995358025    3.833162212    6.536244395
    1.764941569    5.987264560    3.829096589    6.527355401
    1.772120200    5.979165801    3.825026873    6.518460170
    1.779298831    5.971061932    3.820953155    6.509558904
    1.786477462    5.962953139    3.816875520    6.500651806
    1.793656093    5.954839605    3.812794057    6.491739078
    1.800834725    5.946721512    3.808708851    6.482820921
    1.808013356    5.938599042    3.804619989    6.473897532
    1.815191987    5.930472375    3.800527557    6.464969109
    1.822370618    5.922341689    3.796431640    6.456035850
    1.829549249    5.914207164    3.792332324    6.447097950
    1.836727880    5.906068975    3.788229692    6.438155603
    1.843906511    5.897927298    3.784123829    6.429209002
    1.851085142    5.889782309    3.780014819    6.420258339
    1.858263773    5.881634179    3.775902744    6.411303804
    1.865442404    5.873483083    3.771787689    6.402345588
    1.872621035    5.865329190    3.767669734    6.393383878
    1.879799666    5.857172672    3.763548963    6.384418862
    1.886978297    5.849013696    3.759425457    6.375450725
    1.894156928    5.840852432    3.755299296    6.366479652
    1.901335559    5.832689045    3.751170562    6.357505827
    1.908514190    5.824523701    3.747039336    6.348529432
    1.915692821    5.816356565    3.742905696    6.339550648
    1.922871452    5.808187800    3.738769722    6.330569655
    1.930050083    5.800017568    3.734631493    6.321586632
    1.937228715    5.791846030    3.730491088    6.312601756
    1.944407346    5.783673347    3.726348585    6.303615204
    1.951585977    5.775499676    3.722204062    6.294627150
    1.958764608    5.767325177    3.718057595    6.285637770
    1.965943239    5.759150004    3.713909262    6.276647234
    1.973121870    5.750974315    3.709759139    6.267655716
    1.980300501    5.742798263    3.705607302    6.258663385
    1.987479132    5.734622001    3.701453826    6.249670410
    1.994657763    5.726445681    3.697298787    6.240676959
    2.001836394    5.718269455    3.693142259    6.231683200
    2.009015025    5.710093472    3.688984316    6.222689297
    2.016193656    5.701917882    3.684825032    6.213695415
    2.023372287    5.693742831    3.680664480    6.204701717
    2.030550918    5.685568466    3.676502734    6.195708365
    2.037729549    5.677394933    3.672339865    6.186715520
    2.044908180    5.669222375    3.668175945    6.177723342
    2.052086811    5.661050937    3.664011047    6.168731988
    2.059265442    5.652880760    3.659845241    6.159741616
    2.066444073    5.644711985    3.655678598    6.150752382
    2.073622705    5.636544752    3.651511188    6.141764441
    2.080801336    5.628379200    3.647343081    6.132777947
    2.087979967    5.620215466    3.643174346    6.123793051
    2.095158598    5.612053687    3.639005052    6.114809905
    2.102337229    5.603893998    3.634835268    6.105828660
    2.109515860    5.595736534    3.630665062    6.096849465
    2.116694491    5.587581429    3.626494501    6.087872466
    2.123873122    5.579428814    3.622323652    6.078897811
    2.131051753    5.571278820    3.618152582    6.069925645
    2.138230384    5.563131577    3.613981357    6.060956112
    2.145409015    5.554987215    3.609810044    6.051989356
    2.152587646    5.546845862    3.605638707    6.043025518
    2.159766277    5.538707643    3.601467412    6.034064739
    2.166944908    5.530572685    3.597296222    6.025107159
    2.174123539    5.522441113    3.593125203    6.016152916
    2.181302170    5.514313050    3.588954418    6.007202148
    2.188480801    5.506188618    3.584783930    5.998254991
    2.195659432    5.498067940    3.580613801    5.989311579
    2.202838063    5.489951135    3.576444095    5.980372047
    2.210016694    5.481838322    3.572274872    5.971436527
    2.217195326    5.473729621    3.568106195    5.962505152
    2.224373957    5.465625149    3.563938125    5.953578051
    2.231552588    5.457525021    3.559770722    5.944655354
    2.238731219    5.449429353    3.555604046    5.935737189
    2.245909850    5.441338259    3.551438157    5.926823684
    2.253088481    5.433251852    3.547273115    5.917914964
    2.260267112    5.425170245    3.543108978    5.909011154
    2.267445743    5.417093548    3.538945805    5.900112378
    2.274624374    5.409021871    3.534783654    5.891218758
    2.281803005    5.400955323    3.530622582    5.882330417
    2.288981636    5.392894013    3.526462646    5.873447474
    2.296160267    5.384838047    3.522303905    5.864570050
    2.303338898    5.376787531    3.518146412    5.855698262
    2.310517529    5.368742571    3.513990226    5.846832227
    2.317696160    5.360703270    3.509835401    5.837972062
    2.324874791    5.352669731    3.505681992    5.829117881
    2.332053422    5.344642056    3.501530053    5.820269799
    2.339232053    5.336620347    3.497379640    5.811427929
    2.346410684    5.328604703    3.493230806    5.802592382
    2.353589316    5.320595224    3.489083604    5.793763269
    2.360767947    5.312592007    3.484938087    5.784940699
    2.367946578    5.304595150    3.480794309    5.776124782
    2.375125209    5.296604748    3.476652320    5.767315625
    2.382303840    5.288620897    3.472512173    5.758513334
    2.389482471    5.280643691    3.468373919    5.749718016
    2.396661102    5.272673224    3.464237609    5.740929773
    2.403839733    5.264709587    3.460103293    5.732148711
    2.411018364    5.256752872    3.455971023    5.723374931
    2.418196995    5.248803170    3.451840846    5.714608534
    2.425375626    5.240860569    3.447712813    5.705849621
    2.432554257    5.232925159    3.443586972    5.697098292
    2.439732888    5.224997028    3.439463373    5.688354644
    2.446911519    5.217076261    3.435342062    5.679618775
    2.454090150    5.209162944    3.431223088    5.670890781
    2.461268781    5.201257164    3.427106498    5.662170757
    2.468447412    5.193359002    3.422992339    5.653458798
    2.475626043    5.185468543    3.418880657    5.644754998
    2.482804674    5.177585869    3.414771499    5.636059448
    2.489983306    5.169711061    3.410664909    5.627372239
    2.497161937    5.161844199    3.406560934    5.618693463
    2.504340568    5.153985362    3.402459618    5.610023209
    2.511519199    5.146134630    3.398361006    5.601361564
    2.518697830    5.138292080    3.394265142    5.592708618
    2.525876461    5.130457789    3.390172069    5.584064455
    2.533055092    5.122631833    3.386081832    5.575429162
    2.540233723    5.114814287    3.381994472    5.566802823
