# energy grid [eV]     ieps_x  ieps_y  ieps_z
#
    0.200000000    8.782465944    8.669353254    9.347965161
    0.207178631    8.780515414    8.667490212    9.345835833
    0.214357262    8.778497203    8.665562485    9.343632641
    0.221535893    8.776411426    8.663570177    9.341355710
    0.228714524    8.774258198    8.661513397    9.339005170
    0.235893155    8.772037640    8.659392253    9.336581155
    0.243071786    8.769749875    8.657206860    9.334083802
    0.250250417    8.767395031    8.654957336    9.331513253
    0.257429048    8.764973240    8.652643801    9.328869652
    0.264607679    8.762484636    8.650266378    9.326153150
    0.271786311    8.759929357    8.647825195    9.323363900
    0.278964942    8.757307544    8.645320382    9.320502059
    0.286143573    8.754619344    8.642752073    9.317567788
    0.293322204    8.751864906    8.640120405    9.314561253
    0.300500835    8.749044380    8.637425517    9.311482623
    0.307679466    8.746157924    8.634667554    9.308332070
    0.314858097    8.743205695    8.631846661    9.305109772
    0.322036728    8.740187858    8.628962988    9.301815907
    0.329215359    8.737104578    8.626016688    9.298450662
    0.336393990    8.733956023    8.623007917    9.295014222
    0.343572621    8.730742368    8.619936833    9.291506781
    0.350751252    8.727463787    8.616803598    9.287928533
    0.357929883    8.724120460    8.613608379    9.284279677
    0.365108514    8.720712570    8.610351341    9.280560415
    0.372287145    8.717240302    8.607032658    9.276770954
    0.379465776    8.713703845    8.603652502    9.272911504
    0.386644407    8.710103392    8.600211051    9.268982276
    0.393823038    8.706439137    8.596708484    9.264983489
    0.401001669    8.702711280    8.593144985    9.260915361
    0.408180301    8.698920021    8.589520739    9.256778118
    0.415358932    8.695065566    8.585835934    9.252571984
    0.422537563    8.691148121    8.582090762    9.248297192
    0.429716194    8.687167898    8.578285417    9.243953973
    0.436894825    8.683125111    8.574420097    9.239542566
    0.444073456    8.679019975    8.570494999    9.235063211
    0.451252087    8.674852711    8.566510329    9.230516150
    0.458430718    8.670623540    8.562466289    9.225901630
    0.465609349    8.666332688    8.558363088    9.221219902
    0.472787980    8.661980384    8.554200937    9.216471218
    0.479966611    8.657566858    8.549980048    9.211655834
    0.487145242    8.653092344    8.545700637    9.206774009
    0.494323873    8.648557078    8.541362923    9.201826005
    0.501502504    8.643961299    8.536967125    9.196812087
    0.508681135    8.639305249    8.532513468    9.191732524
    0.515859766    8.634589174    8.528002176    9.186587585
    0.523038397    8.629813319    8.523433479    9.181377546
    0.530217028    8.624977934    8.518807606    9.176102682
    0.537395659    8.620083272    8.514124791    9.170763274
    0.544574290    8.615129587    8.509385268    9.165359602
    0.551752922    8.610117137    8.504589276    9.159891953
    0.558931553    8.605046181    8.499737054    9.154360614
    0.566110184    8.599916981    8.494828845    9.148765875
    0.573288815    8.594729802    8.489864893    9.143108029
    0.580467446    8.589484910    8.484845444    9.137387371
    0.587646077    8.584182574    8.479770747    9.131604200
    0.594824708    8.578823066    8.474641054    9.125758816
    0.602003339    8.573406660    8.469456617    9.119851522
    0.609181970    8.567933630    8.464217692    9.113882624
    0.616360601    8.562404255    8.458924536    9.107852429
    0.623539232    8.556818816    8.453577407    9.101761247
    0.630717863    8.551177593    8.448176567    9.095609391
    0.637896494    8.545480872    8.442722280    9.089397175
    0.645075125    8.539728939    8.437214810    9.083124916
    0.652253756    8.533922082    8.431654424    9.076792934
    0.659432387    8.528060591    8.426041391    9.070401550
    0.666611018    8.522144758    8.420375982    9.063951087
    0.673789649    8.516174878    8.414658470    9.057441870
    0.680968280    8.510151245    8.408889127    9.050874227
    0.688146912    8.504074159    8.403068232    9.044248487
    0.695325543    8.497943918    8.397196060    9.037564981
    0.702504174    8.491760823    8.391272891    9.030824044
    0.709682805    8.485525178    8.385299007    9.024026009
    0.716861436    8.479237286    8.379274690    9.017171214
    0.724040067    8.472897455    8.373200223    9.010259998
    0.731218698    8.466505991    8.367075894    9.003292700
    0.738397329    8.460063205    8.360901988    8.996269664
    0.745575960    8.453569407    8.354678795    8.989191233
    0.752754591    8.447024909    8.348406604    8.982057752
    0.759933222    8.440430025    8.342085707    8.974869568
    0.767111853    8.433785071    8.335716398    8.967627031
    0.774290484    8.427090363    8.329298969    8.960330489
    0.781469115    8.420346218    8.322833717    8.952980295
    0.788647746    8.413552957    8.316320939    8.945576801
    0.795826377    8.406710900    8.309760932    8.938120361
    0.803005008    8.399820368    8.303153996    8.930611332
    0.810183639    8.392881685    8.296500432    8.923050070
    0.817362270    8.385895174    8.289800540    8.915436934
    0.824540902    8.378861161    8.283054624    8.907772282
    0.831719533    8.371779972    8.276262987    8.900056476
    0.838898164    8.364651935    8.269425935    8.892289876
    0.846076795    8.357477378    8.262543773    8.884472847
    0.853255426    8.350256630    8.255616807    8.876605751
    0.860434057    8.342990022    8.248645347    8.868688954
    0.867612688    8.335677885    8.241629700    8.860722822
    0.874791319    8.328320551    8.234570177    8.852707720
    0.881969950    8.320918354    8.227467087    8.844644018
    0.889148581    8.313471626    8.220320742    8.836532084
    0.896327212    8.305980703    8.213131455    8.828372287
    0.903505843    8.298445921    8.205899538    8.820164997
    0.910684474    8.290867614    8.198625304    8.811910586
    0.917863105    8.283246120    8.191309069    8.803609424
    0.925041736    8.275581777    8.183951147    8.795261885
    0.932220367    8.267874921    8.176551855    8.786868341
    0.939398998    8.260125893    8.169111507    8.778429166
    0.946577629    8.252335030    8.161630421    8.769944735
    0.953756260    8.244502673    8.154108915    8.761415421
    0.960934891    8.236629161    8.146547307    8.752841600
    0.968113523    8.228714836    8.138945915    8.744223647
    0.975292154    8.220760038    8.131305057    8.735561940
    0.982470785    8.212765109    8.123625054    8.726856853
    0.989649416    8.204730389    8.115906225    8.718108765
    0.996828047    8.196656222    8.108148891    8.709318051
    1.004006678    8.188542950    8.100353371    8.700485090
    1.011185309    8.180390914    8.092519986    8.691610259
    1.018363940    8.172200458    8.084649058    8.682693935
    1.025542571    8.163971926    8.076740909    8.673736497
    1.032721202    8.155705659    8.068795859    8.664738324
    1.039899833    8.147402001    8.060814230    8.655699792
    1.047078464    8.139061295    8.052796345    8.646621281
    1.054257095    8.130683886    8.044742525    8.637503169
    1.061435726    8.122270116    8.036653093    8.628345834
    1.068614357    8.113820329    8.028528372    8.619149655
    1.075792988    8.105334868    8.020368683    8.609915010
    1.082971619    8.096814077    8.012174349    8.600642276
    1.090150250    8.088258299    8.003945693    8.591331833
    1.097328881    8.079667877    7.995683037    8.581984057
    1.104507513    8.071043155    7.987386703    8.572599327
    1.111686144    8.062384475    7.979057014    8.563178020
    1.118864775    8.053692180    7.970694293    8.553720514
    1.126043406    8.044966612    7.962298860    8.544227184
    1.133222037    8.036208114    7.953871039    8.534698409
    1.140400668    8.027417028    7.945411151    8.525134564
    1.147579299    8.018593696    7.936919518    8.515536026
    1.154757930    8.009738459    7.928396461    8.505903169
    1.161936561    8.000851657    7.919842302    8.496236368
    1.169115192    7.991933632    7.911257361    8.486536000
    1.176293823    7.982984724    7.902641959    8.476802437
    1.183472454    7.974005273    7.893996417    8.467036053
    1.190651085    7.964995618    7.885321054    8.457237222
    1.197829716    7.955956097    7.876616190    8.447406316
    1.205008347    7.946887051    7.867882144    8.437543707
    1.212186978    7.937788815    7.859119236    8.427649767
    1.219365609    7.928661728    7.850327783    8.417724865
    1.226544240    7.919506126    7.841508104    8.407769372
    1.233722871    7.910322346    7.832660516    8.397783658
    1.240901503    7.901110723    7.823785336    8.387768091
    1.248080134    7.891871592    7.814882881    8.377723039
    1.255258765    7.882605287    7.805953467    8.367648869
    1.262437396    7.873312142    7.796997409    8.357545947
    1.269616027    7.863992489    7.788015021    8.347414638
    1.276794658    7.854646662    7.779006619    8.337255308
    1.283973289    7.845274990    7.769972516    8.327068320
    1.291151920    7.835877805    7.760913024    8.316854037
    1.298330551    7.826455436    7.751828457    8.306612821
    1.305509182    7.817008213    7.742719126    8.296345033
    1.312687813    7.807536463    7.733585341    8.286051033
    1.319866444    7.798040515    7.724427413    8.275731180
    1.327045075    7.788520694    7.715245652    8.265385832
    1.334223706    7.778977326    7.706040366    8.255015346
    1.341402337    7.769410735    7.696811864    8.244620079
    1.348580968    7.759821246    7.687560452    8.234200384
    1.355759599    7.750209181    7.678286437    8.223756617
    1.362938230    7.740574861    7.668990124    8.213289129
    1.370116861    7.730918609    7.659671819    8.202798273
    1.377295492    7.721240743    7.650331825    8.192284399
    1.384474124    7.711541582    7.640970445    8.181747857
    1.391652755    7.701821444    7.631587982    8.171188994
    1.398831386    7.692080647    7.622184736    8.160608157
    1.406010017    7.682319504    7.612761008    8.150005692
    1.413188648    7.672538332    7.603317097    8.139381945
    1.420367279    7.662737444    7.593853302    8.128737257
    1.427545910    7.652917152    7.584369920    8.118071972
    1.434724541    7.643077766    7.574867248    8.107386430
    1.441903172    7.633219599    7.565345580    8.096680970
    1.449081803    7.623342957    7.555805213    8.085955930
    1.456260434    7.613448150    7.546246438    8.075211648
    1.463439065    7.603535483    7.536669549    8.064448458
    1.470617696    7.593605263    7.527074836    8.053666696
    1.477796327    7.583657793    7.517462591    8.042866693
    1.484974958    7.573693376    7.507833102    8.032048781
    1.492153589    7.563712314    7.498186658    8.021213291
    1.499332220    7.553714908    7.488523545    8.010360550
    1.506510851    7.543701457    7.478844049    7.999490886
    1.513689482    7.533672258    7.469148456    7.988604624
    1.520868114    7.523627609    7.459437049    7.977702089
    1.528046745    7.513567804    7.449710110    7.966783603
    1.535225376    7.503493139    7.439967921    7.955849488
    1.542404007    7.493403905    7.430210762    7.944900064
    1.549582638    7.483300394    7.420438912    7.933935649
    1.556761269    7.473182896    7.410652648    7.922956560
    1.563939900    7.463051700    7.400852249    7.911963112
    1.571118531    7.452907094    7.391037988    7.900955618
    1.578297162    7.442749363    7.381210140    7.889934392
    1.585475793    7.432578791    7.371368978    7.878899744
    1.592654424    7.422395663    7.361514774    7.867851983
    1.599833055    7.412200260    7.351647798    7.856791416
    1.607011686    7.401992862    7.341768319    7.845718350
    1.614190317    7.391773749    7.331876606    7.834633089
    1.621368948    7.381543199    7.321972924    7.823535935
    1.628547579    7.371301486    7.312057540    7.812427191
    1.635726210    7.361048887    7.302130718    7.801307155
    1.642904841    7.350785674    7.292192720    7.790176125
    1.650083472    7.340512120    7.282243807    7.779034399
    1.657262104    7.330228494    7.272284241    7.767882270
    1.664440735    7.319935066    7.262314279    7.756720032
    1.671619366    7.309632103    7.252334180    7.745547976
    1.678797997    7.299319872    7.242344200    7.734366392
    1.685976628    7.288998636    7.232344592    7.723175568
    1.693155259    7.278668659    7.222335612    7.711975791
    1.700333890    7.268330203    7.212317511    7.700767345
    1.707512521    7.257983527    7.202290540    7.689550513
    1.714691152    7.247628890    7.192254948    7.678325578
    1.721869783    7.237266549    7.182210984    7.667092818
    1.729048414    7.226896760    7.172158894    7.655852512
    1.736227045    7.216519776    7.162098923    7.644604936
    1.743405676    7.206135851    7.152031316    7.633350364
    1.750584307    7.195745235    7.141956314    7.622089071
    1.757762938    7.185348177    7.131874160    7.610821327
    1.764941569    7.174944926    7.121785093    7.599547401
    1.772120200    7.164535728    7.111689352    7.588267562
    1.779298831    7.154120828    7.101587172    7.576982076
    1.786477462    7.143700469    7.091478791    7.565691207
    1.793656093    7.133274893    7.081364441    7.554395218
    1.800834725    7.122844341    7.071244356    7.543094369
    1.808013356    7.112409050    7.061118768    7.531788920
    1.815191987    7.101969258    7.050987905    7.520479129
    1.822370618    7.091525201    7.040851997    7.509165252
    1.829549249    7.081077113    7.030711270    7.497847542
    1.836727880    7.070625226    7.020565951    7.486526252
    1.843906511    7.060169770    7.010416262    7.475201632
    1.851085142    7.049710977    7.000262429    7.463873932
    1.858263773    7.039249073    6.990104670    7.452543398
    1.865442404    7.028784284    6.979943207    7.441210276
    1.872621035    7.018316836    6.969778258    7.429874809
    1.879799666    7.007846951    6.959610040    7.418537240
    1.886978297    6.997374851    6.949438768    7.407197809
    1.894156928    6.986900757    6.939264657    7.395856755
    1.901335559    6.976424886    6.929087919    7.384514313
    1.908514190    6.965947455    6.918908766    7.373170719
    1.915692821    6.955468680    6.908727408    7.361826207
    1.922871452    6.944988775    6.898544052    7.350481007
    1.930050083    6.934507952    6.888358907    7.339135350
    1.937228715    6.924026421    6.878172176    7.327789464
    1.944407346    6.913544392    6.867984065    7.316443575
    1.951585977    6.903062072    6.857794777    7.305097908
    1.958764608    6.892579667    6.847604511    7.293752686
    1.965943239    6.882097382    6.837413468    7.282408129
    1.973121870    6.871615420    6.827221847    7.271064458
    1.980300501    6.861133981    6.817029844    7.259721891
    1.987479132    6.850653267    6.806837655    7.248380642
    1.994657763    6.840173474    6.796645473    7.237040927
    2.001836394    6.829694801    6.786453491    7.225702958
    2.009015025    6.819217441    6.776261901    7.214366946
    2.016193656    6.808741589    6.766070891    7.203033100
    2.023372287    6.798267436    6.755880651    7.191701629
    2.030550918    6.787795174    6.745691367    7.180372736
    2.037729549    6.777324991    6.735503224    7.169046628
    2.044908180    6.766857075    6.725316406    7.157723506
    2.052086811    6.756391612    6.715131097    7.146403570
    2.059265442    6.745928786    6.704947476    7.135087021
    2.066444073    6.735468780    6.694765725    7.123774054
    2.073622705    6.725011776    6.684586020    7.112464867
    2.080801336    6.714557954    6.674408539    7.101159653
    2.087979967    6.704107492    6.664233458    7.089858604
    2.095158598    6.693660566    6.654060950    7.078561911
    2.102337229    6.683217353    6.643891188    7.067269763
    2.109515860    6.672778026    6.633724343    7.055982347
    2.116694491    6.662342757    6.623560585    7.044699850
    2.123873122    6.651911718    6.613400083    7.033422455
    2.131051753    6.641485078    6.603243003    7.022150344
    2.138230384    6.631063005    6.593089512    7.010883699
    2.145409015    6.620645665    6.582939772    6.999622699
    2.152587646    6.610233223    6.572793948    6.988367521
    2.159766277    6.599825843    6.562652201    6.977118340
    2.166944908    6.589423687    6.552514691    6.965875332
    2.174123539    6.579026915    6.542381576    6.954638670
    2.181302170    6.568635687    6.532253014    6.943408523
    2.188480801    6.558250160    6.522129161    6.932185062
    2.195659432    6.547870491    6.512010171    6.920968454
    2.202838063    6.537496834    6.501896198    6.909758866
    2.210016694    6.527129343    6.491787393    6.898556463
    2.217195326    6.516768169    6.481683908    6.887361407
    2.224373957    6.506413463    6.471585891    6.876173860
    2.231552588    6.496065375    6.461493490    6.864993983
    2.238731219    6.485724051    6.451406852    6.853821933
    2.245909850    6.475389638    6.441326122    6.842657868
    2.253088481    6.465062281    6.431251444    6.831501942
    2.260267112    6.454742124    6.421182960    6.820354311
    2.267445743    6.444429308    6.411120811    6.809215125
    2.274624374    6.434123973    6.401065138    6.798084536
    2.281803005    6.423826261    6.391016079    6.786962693
    2.288981636    6.413536307    6.380973770    6.775849744
    2.296160267    6.403254249    6.370938349    6.764745834
    2.303338898    6.392980222    6.360909950    6.753651109
    2.310517529    6.382714360    6.350888706    6.742565712
    2.317696160    6.372456795    6.340874749    6.731489784
    2.324874791    6.362207658    6.330868211    6.720423465
    2.332053422    6.351967079    6.320869219    6.709366895
    2.339232053    6.341735186    6.310877904    6.698320211
    2.346410684    6.331512107    6.300894392    6.687283549
    2.353589316    6.321297967    6.290918808    6.676257042
    2.360767947    6.311092890    6.280951277    6.665240824
    2.367946578    6.300897000    6.270991922    6.654235027
    2.375125209    6.290710419    6.261040865    6.643239780
    2.382303840    6.280533267    6.251098228    6.632255211
    2.389482471    6.270365664    6.241164128    6.621281450
    2.396661102    6.260207726    6.231238686    6.610318620
    2.403839733    6.250059571    6.221322017    6.599366846
    2.411018364    6.239921315    6.211414237    6.588426252
    2.418196995    6.229793071    6.201515462    6.577496959
    2.425375626    6.219674952    6.191625804    6.566579087
    2.432554257    6.209567070    6.181745376    6.555672756
    2.439732888    6.199469535    6.171874289    6.544778082
    2.446911519    6.189382457    6.162012653    6.533895182
    2.454090150    6.179305942    6.152160575    6.523024170
    2.461268781    6.169240098    6.142318164    6.512165160
    2.468447412    6.159185031    6.132485526    6.501318264
    2.475626043    6.149140843    6.122662767    6.490483593
    2.482804674    6.139107639    6.112849989    6.479661256
    2.489983306    6.129085520    6.103047296    6.468851361
    2.497161937    6.119074587    6.093254789    6.458054016
    2.504340568    6.109074939    6.083472569    6.447269325
    2.511519199    6.099086674    6.073700736    6.436497393
    2.518697830    6.089109889    6.063939387    6.425738323
    2.525876461    6.079144681    6.054188620    6.414992217
    2.533055092    6.069191143    6.044448530    6.404259174
    2.540233723    6.059249370    6.034719213    6.393539294
