# energy grid [eV]     ieps_x  ieps_y  ieps_z
#
    0.200000000    2.517355700    5.251853428    4.922421745
    0.207178631    2.516988861    5.250980265    4.921520117
    0.214357262    2.516609283    5.250076696    4.920587152
    0.221535893    2.516216987    5.249142763    4.919622895
    0.228714524    2.515811994    5.248178507    4.918627396
    0.235893155    2.515394324    5.247183968    4.917600703
    0.243071786    2.514964002    5.246159192    4.916542868
    0.250250417    2.514521048    5.245104222    4.915453945
    0.257429048    2.514065488    5.244019106    4.914333987
    0.264607679    2.513597344    5.242903889    4.913183050
    0.271786311    2.513116642    5.241758621    4.912001192
    0.278964942    2.512623407    5.240583352    4.910788471
    0.286143573    2.512117666    5.239378133    4.909544949
    0.293322204    2.511599444    5.238143016    4.908270686
    0.300500835    2.511068770    5.236878055    4.906965745
    0.307679466    2.510525671    5.235583305    4.905630192
    0.314858097    2.509970176    5.234258822    4.904264093
    0.322036728    2.509402314    5.232904664    4.902867515
    0.329215359    2.508822115    5.231520889    4.901440528
    0.336393990    2.508229609    5.230107557    4.899983200
    0.343572621    2.507624828    5.228664729    4.898495606
    0.350751252    2.507007802    5.227192467    4.896977816
    0.357929883    2.506378565    5.225690836    4.895429908
    0.365108514    2.505737148    5.224159899    4.893851955
    0.372287145    2.505083586    5.222599722    4.892244036
    0.379465776    2.504417912    5.221010373    4.890606229
    0.386644407    2.503740161    5.219391919    4.888938615
    0.393823038    2.503050368    5.217744430    4.887241274
    0.401001669    2.502348569    5.216067978    4.885514290
    0.408180301    2.501634800    5.214362632    4.883757747
    0.415358932    2.500909097    5.212628466    4.881971729
    0.422537563    2.500171499    5.210865555    4.880156324
    0.429716194    2.499422042    5.209073973    4.878311620
    0.436894825    2.498660767    5.207253796    4.876437706
    0.444073456    2.497887711    5.205405102    4.874534672
    0.451252087    2.497102914    5.203527969    4.872602610
    0.458430718    2.496306416    5.201622477    4.870641613
    0.465609349    2.495498258    5.199688707    4.868651776
    0.472787980    2.494678481    5.197726739    4.866633193
    0.479966611    2.493847127    5.195736658    4.864585962
    0.487145242    2.493004237    5.193718546    4.862510181
    0.494323873    2.492149855    5.191672488    4.860405948
    0.501502504    2.491284024    5.189598572    4.858273364
    0.508681135    2.490406786    5.187496882    4.856112530
    0.515859766    2.489518187    5.185367508    4.853923548
    0.523038397    2.488618271    5.183210539    4.851706523
    0.530217028    2.487707083    5.181026064    4.849461560
    0.537395659    2.486784669    5.178814175    4.847188763
    0.544574290    2.485851074    5.176574963    4.844888241
    0.551752922    2.484906346    5.174308521    4.842560101
    0.558931553    2.483950530    5.172014945    4.840204453
    0.566110184    2.482983675    5.169694327    4.837821406
    0.573288815    2.482005828    5.167346765    4.835411073
    0.580467446    2.481017037    5.164972355    4.832973565
    0.587646077    2.480017352    5.162571195    4.830508997
    0.594824708    2.479006821    5.160143383    4.828017481
    0.602003339    2.477985494    5.157689019    4.825499135
    0.609181970    2.476953421    5.155208204    4.822954073
    0.616360601    2.475910652    5.152701038    4.820382414
    0.623539232    2.474857238    5.150167625    4.817784276
    0.630717863    2.473793230    5.147608067    4.815159778
    0.637896494    2.472718680    5.145022469    4.812509041
    0.645075125    2.471633639    5.142410934    4.809832185
    0.652253756    2.470538160    5.139773570    4.807129332
    0.659432387    2.469432295    5.137110481    4.804400605
    0.666611018    2.468316098    5.134421777    4.801646129
    0.673789649    2.467189622    5.131707564    4.798866028
    0.680968280    2.466052921    5.128967951    4.796060427
    0.688146912    2.464906048    5.126203049    4.793229453
    0.695325543    2.463749058    5.123412968    4.790373232
    0.702504174    2.462582007    5.120597820    4.787491894
    0.709682805    2.461404948    5.117757715    4.784585566
    0.716861436    2.460217937    5.114892768    4.781654379
    0.724040067    2.459021031    5.112003091    4.778698462
    0.731218698    2.457814285    5.109088799    4.775717946
    0.738397329    2.456597755    5.106150007    4.772712964
    0.745575960    2.455371498    5.103186830    4.769683648
    0.752754591    2.454135571    5.100199384    4.766630132
    0.759933222    2.452890031    5.097187788    4.763552548
    0.767111853    2.451634936    5.094152158    4.760451033
    0.774290484    2.450370343    5.091092613    4.757325720
    0.781469115    2.449096310    5.088009271    4.754176747
    0.788647746    2.447812896    5.084902253    4.751004250
    0.795826377    2.446520159    5.081771679    4.747808365
    0.803005008    2.445218157    5.078617670    4.744589232
    0.810183639    2.443906950    5.075440346    4.741346987
    0.817362270    2.442586598    5.072239831    4.738081772
    0.824540902    2.441257158    5.069016247    4.734793724
    0.831719533    2.439918692    5.065769716    4.731482984
    0.838898164    2.438571259    5.062500364    4.728149693
    0.846076795    2.437214919    5.059208314    4.724793992
    0.853255426    2.435849732    5.055893691    4.721416023
    0.860434057    2.434475759    5.052556621    4.718015928
    0.867612688    2.433093060    5.049197229    4.714593850
    0.874791319    2.431701696    5.045815642    4.711149932
    0.881969950    2.430301729    5.042411987    4.707684317
    0.889148581    2.428893219    5.038986391    4.704197151
    0.896327212    2.427476229    5.035538983    4.700688577
    0.903505843    2.426050818    5.032069890    4.697158740
    0.910684474    2.424617050    5.028579241    4.693607786
    0.917863105    2.423174985    5.025067166    4.690035861
    0.925041736    2.421724686    5.021533794    4.686443110
    0.932220367    2.420266215    5.017979256    4.682829681
    0.939398998    2.418799634    5.014403681    4.679195719
    0.946577629    2.417325006    5.010807201    4.675541373
    0.953756260    2.415842392    5.007189947    4.671866790
    0.960934891    2.414351856    5.003552051    4.668172118
    0.968113523    2.412853460    4.999893644    4.664457504
    0.975292154    2.411347267    4.996214859    4.660723097
    0.982470785    2.409833339    4.992515829    4.656969047
    0.989649416    2.408311740    4.988796687    4.653195501
    0.996828047    2.406782532    4.985057565    4.649402609
    1.004006678    2.405245780    4.981298599    4.645590521
    1.011185309    2.403701545    4.977519921    4.641759385
    1.018363940    2.402149891    4.973721666    4.637909353
    1.025542571    2.400590882    4.969903968    4.634040574
    1.032721202    2.399024580    4.966066963    4.630153198
    1.039899833    2.397451049    4.962210785    4.626247375
    1.047078464    2.395870353    4.958335570    4.622323257
    1.054257095    2.394282555    4.954441452    4.618380993
    1.061435726    2.392687719    4.950528569    4.614420735
    1.068614357    2.391085907    4.946597055    4.610442634
    1.075792988    2.389477184    4.942647048    4.606446840
    1.082971619    2.387861613    4.938678682    4.602433505
    1.090150250    2.386239258    4.934692096    4.598402779
    1.097328881    2.384610182    4.930687425    4.594354815
    1.104507513    2.382974448    4.926664806    4.590289763
    1.111686144    2.381332121    4.922624377    4.586207776
    1.118864775    2.379683263    4.918566275    4.582109003
    1.126043406    2.378027939    4.914490636    4.577993597
    1.133222037    2.376366212    4.910397599    4.573861709
    1.140400668    2.374698145    4.906287301    4.569713491
    1.147579299    2.373023802    4.902159879    4.565549093
    1.154757930    2.371343246    4.898015472    4.561368668
    1.161936561    2.369656541    4.893854217    4.557172367
    1.169115192    2.367963749    4.889676252    4.552960340
    1.176293823    2.366264934    4.885481714    4.548732740
    1.183472454    2.364560160    4.881270743    4.544489717
    1.190651085    2.362849489    4.877043475    4.540231423
    1.197829716    2.361132985    4.872800050    4.535958008
    1.205008347    2.359410711    4.868540604    4.531669623
    1.212186978    2.357682728    4.864265277    4.527366420
    1.219365609    2.355949102    4.859974207    4.523048548
    1.226544240    2.354209893    4.855667531    4.518716159
    1.233722871    2.352465165    4.851345387    4.514369402
    1.240901503    2.350714980    4.847007914    4.510008429
    1.248080134    2.348959402    4.842655250    4.505633388
    1.255258765    2.347198492    4.838287533    4.501244430
    1.262437396    2.345432312    4.833904901    4.496841704
    1.269616027    2.343660925    4.829507491    4.492425361
    1.276794658    2.341884393    4.825095442    4.487995549
    1.283973289    2.340102778    4.820668891    4.483552417
    1.291151920    2.338316141    4.816227976    4.479096115
    1.298330551    2.336524545    4.811772835    4.474626790
    1.305509182    2.334728050    4.807303605    4.470144592
    1.312687813    2.332926719    4.802820424    4.465649668
    1.319866444    2.331120613    4.798323428    4.461142167
    1.327045075    2.329309793    4.793812755    4.456622235
    1.334223706    2.327494319    4.789288543    4.452090020
    1.341402337    2.325674253    4.784750927    4.447545670
    1.348580968    2.323849656    4.780200045    4.442989330
    1.355759599    2.322020587    4.775636033    4.438421148
    1.362938230    2.320187109    4.771059027    4.433841269
    1.370116861    2.318349279    4.766469164    4.429249839
    1.377295492    2.316507160    4.761866581    4.424647004
    1.384474124    2.314660810    4.757251412    4.420032909
    1.391652755    2.312810290    4.752623793    4.415407699
    1.398831386    2.310955659    4.747983860    4.410771517
    1.406010017    2.309096976    4.743331748    4.406124509
    1.413188648    2.307234301    4.738667593    4.401466817
    1.420367279    2.305367692    4.733991528    4.396798586
    1.427545910    2.303497209    4.729303689    4.392119957
    1.434724541    2.301622910    4.724604210    4.387431074
    1.441903172    2.299744854    4.719893225    4.382732079
    1.449081803    2.297863098    4.715170868    4.378023113
    1.456260434    2.295977701    4.710437272    4.373304317
    1.463439065    2.294088721    4.705692571    4.368575834
    1.470617696    2.292196216    4.700936897    4.363837802
    1.477796327    2.290300242    4.696170384    4.359090363
    1.484974958    2.288400857    4.691393164    4.354333655
    1.492153589    2.286498119    4.686605369    4.349567818
    1.499332220    2.284592083    4.681807131    4.344792991
    1.506510851    2.282682807    4.676998582    4.340009311
    1.513689482    2.280770346    4.672179852    4.335216917
    1.520868114    2.278854758    4.667351073    4.330415946
    1.528046745    2.276936098    4.662512376    4.325606535
    1.535225376    2.275014421    4.657663890    4.320788819
    1.542404007    2.273089783    4.652805745    4.315962935
    1.549582638    2.271162239    4.647938072    4.311129019
    1.556761269    2.269231845    4.643060999    4.306287205
    1.563939900    2.267298655    4.638174656    4.301437627
    1.571118531    2.265362724    4.633279170    4.296580419
    1.578297162    2.263424105    4.628374670    4.291715715
    1.585475793    2.261482853    4.623461284    4.286843647
    1.592654424    2.259539022    4.618539139    4.281964348
    1.599833055    2.257592665    4.613608362    4.277077950
    1.607011686    2.255643836    4.608669080    4.272184582
    1.614190317    2.253692588    4.603721419    4.267284378
    1.621368948    2.251738973    4.598765505    4.262377465
    1.628547579    2.249783044    4.593801464    4.257463974
    1.635726210    2.247824853    4.588829420    4.252544035
    1.642904841    2.245864452    4.583849498    4.247617774
    1.650083472    2.243901894    4.578861822    4.242685321
    1.657262104    2.241937229    4.573866517    4.237746803
    1.664440735    2.239970510    4.568863704    4.232802345
    1.671619366    2.238001786    4.563853509    4.227852076
    1.678797997    2.236031109    4.558836052    4.222896119
    1.685976628    2.234058529    4.553811456    4.217934601
    1.693155259    2.232084096    4.548779843    4.212967645
    1.700333890    2.230107861    4.543741333    4.207995376
    1.707512521    2.228129872    4.538696048    4.203017916
    1.714691152    2.226150180    4.533644108    4.198035389
    1.721869783    2.224168834    4.528585632    4.193047916
    1.729048414    2.222185882    4.523520740    4.188055618
    1.736227045    2.220201373    4.518449551    4.183058618
    1.743405676    2.218215355    4.513372184    4.178057034
    1.750584307    2.216227877    4.508288755    4.173050987
    1.757762938    2.214238986    4.503199383    4.168040595
    1.764941569    2.212248729    4.498104184    4.163025978
    1.772120200    2.210257155    4.493003276    4.158007252
    1.779298831    2.208264309    4.487896773    4.152984535
    1.786477462    2.206270238    4.482784792    4.147957943
    1.793656093    2.204274990    4.477667448    4.142927593
    1.800834725    2.202278609    4.472544854    4.137893599
    1.808013356    2.200281142    4.467417126    4.132856076
    1.815191987    2.198282634    4.462284376    4.127815139
    1.822370618    2.196283131    4.457146718    4.122770900
    1.829549249    2.194282678    4.452004264    4.117723473
    1.836727880    2.192281319    4.446857125    4.112672969
    1.843906511    2.190279098    4.441705415    4.107619499
    1.851085142    2.188276060    4.436549242    4.102563176
    1.858263773    2.186272249    4.431388719    4.097504108
    1.865442404    2.184267708    4.426223954    4.092442406
    1.872621035    2.182262480    4.421055058    4.087378178
    1.879799666    2.180256609    4.415882138    4.082311533
    1.886978297    2.178250137    4.410705304    4.077242578
    1.894156928    2.176243106    4.405524663    4.072171420
    1.901335559    2.174235559    4.400340322    4.067098165
    1.908514190    2.172227538    4.395152388    4.062022919
    1.915692821    2.170219084    4.389960968    4.056945787
    1.922871452    2.168210238    4.384766166    4.051866873
    1.930050083    2.166201041    4.379568088    4.046786281
    1.937228715    2.164191535    4.374366839    4.041704114
    1.944407346    2.162181758    4.369162522    4.036620475
    1.951585977    2.160171753    4.363955241    4.031535464
    1.958764608    2.158161558    4.358745099    4.026449183
    1.965943239    2.156151212    4.353532198    4.021361733
    1.973121870    2.154140756    4.348316640    4.016273213
    1.980300501    2.152130229    4.343098527    4.011183722
    1.987479132    2.150119668    4.337877958    4.006093358
    1.994657763    2.148109112    4.332655034    4.001002220
    2.001836394    2.146098600    4.327429856    3.995910404
    2.009015025    2.144088169    4.322202520    3.990818007
    2.016193656    2.142077857    4.316973128    3.985725125
    2.023372287    2.140067701    4.311741775    3.980631852
    2.030550918    2.138057738    4.306508559    3.975538283
    2.037729549    2.136048005    4.301273578    3.970444512
    2.044908180    2.134038538    4.296036927    3.965350633
    2.052086811    2.132029373    4.290798702    3.960256736
    2.059265442    2.130020546    4.285558998    3.955162915
    2.066444073    2.128012093    4.280317910    3.950069260
    2.073622705    2.126004050    4.275075532    3.944975863
    2.080801336    2.123996450    4.269831956    3.939882812
    2.087979967    2.121989328    4.264587276    3.934790197
    2.095158598    2.119982720    4.259341584    3.929698106
    2.102337229    2.117976660    4.254094972    3.924606628
    2.109515860    2.115971180    4.248847531    3.919515849
    2.116694491    2.113966315    4.243599351    3.914425856
    2.123873122    2.111962098    4.238350523    3.909336735
    2.131051753    2.109958563    4.233101135    3.904248571
    2.138230384    2.107955741    4.227851277    3.899161449
    2.145409015    2.105953666    4.222601037    3.894075453
    2.152587646    2.103952369    4.217350502    3.888990666
    2.159766277    2.101951883    4.212099759    3.883907171
    2.166944908    2.099952239    4.206848896    3.878825049
    2.174123539    2.097953468    4.201597998    3.873744382
    2.181302170    2.095955602    4.196347151    3.868665251
    2.188480801    2.093958672    4.191096439    3.863587736
    2.195659432    2.091962708    4.185845946    3.858511916
    2.202838063    2.089967740    4.180595757    3.853437870
    2.210016694    2.087973799    4.175345955    3.848365676
    2.217195326    2.085980914    4.170096621    3.843295411
    2.224373957    2.083989114    4.164847838    3.838227153
    2.231552588    2.081998429    4.159599688    3.833160978
    2.238731219    2.080008889    4.154352251    3.828096961
    2.245909850    2.078020520    4.149105607    3.823035178
    2.253088481    2.076033353    4.143859837    3.817975702
    2.260267112    2.074047415    4.138615019    3.812918607
    2.267445743    2.072062733    4.133371232    3.807863967
    2.274624374    2.070079337    4.128128554    3.802811853
    2.281803005    2.068097252    4.122887062    3.797762338
    2.288981636    2.066116506    4.117646834    3.792715493
    2.296160267    2.064137127    4.112407945    3.787671388
    2.303338898    2.062159140    4.107170472    3.782630094
    2.310517529    2.060182572    4.101934489    3.777591679
    2.317696160    2.058207449    4.096700072    3.772556213
    2.324874791    2.056233796    4.091467293    3.767523764
    2.332053422    2.054261640    4.086236228    3.762494398
    2.339232053    2.052291006    4.081006948    3.757468183
    2.346410684    2.050321918    4.075779526    3.752445186
    2.353589316    2.048354402    4.070554034    3.747425471
    2.360767947    2.046388483    4.065330544    3.742409105
    2.367946578    2.044424183    4.060109125    3.737396151
    2.375125209    2.042461528    4.054889849    3.732386673
    2.382303840    2.040500541    4.049672784    3.727380735
    2.389482471    2.038541247    4.044458001    3.722378399
    2.396661102    2.036583667    4.039245566    3.717379728
    2.403839733    2.034627826    4.034035550    3.712384782
    2.411018364    2.032673746    4.028828017    3.707393624
    2.418196995    2.030721449    4.023623037    3.702406312
    2.425375626    2.028770959    4.018420675    3.697422908
    2.432554257    2.026822297    4.013220996    3.692443469
    2.439732888    2.024875485    4.008024067    3.687468055
    2.446911519    2.022930544    4.002829951    3.682496724
    2.454090150    2.020987497    3.997638713    3.677529533
    2.461268781    2.019046364    3.992450417    3.672566539
    2.468447412    2.017107167    3.987265126    3.667607798
    2.475626043    2.015169925    3.982082902    3.662653367
    2.482804674    2.013234660    3.976903807    3.657703299
    2.489983306    2.011301391    3.971727903    3.652757650
    2.497161937    2.009370139    3.966555251    3.647816474
    2.504340568    2.007440924    3.961385912    3.642879825
    2.511519199    2.005513765    3.956219944    3.637947754
    2.518697830    2.003588681    3.951057408    3.633020315
    2.525876461    2.001665691    3.945898363    3.628097560
    2.533055092    1.999744815    3.940742866    3.623179539
    2.540233723    1.997826071    3.935590976    3.618266304
