# energy grid [eV]     epsr_x  epsr_y  epsr_z
#
    0.200000000   13.824012649   14.509316773   13.136086883
    0.207178631   13.827445279   14.512985948   13.139201243
    0.214357262   13.831001664   14.516787754   13.142428326
    0.221535893   13.834682094   14.520722541   13.145768449
    0.228714524   13.838486871   14.524790674   13.149221938
    0.235893155   13.842416308   14.528992532   13.152789136
    0.243071786   13.846470730   14.533328510   13.156470397
    0.250250417   13.850650473   14.537799016   13.160266090
    0.257429048   13.854955885   14.542404475   13.164176598
    0.264607679   13.859387327   14.547145326   13.168202319
    0.271786311   13.863945173   14.552022026   13.172343665
    0.278964942   13.868629806   14.557035048   13.176601063
    0.286143573   13.873441627   14.562184879   13.180974957
    0.293322204   13.878381045   14.567472027   13.185465805
    0.300500835   13.883448485   14.572897014   13.190074083
    0.307679466   13.888644386   14.578460383   13.194800284
    0.314858097   13.893969198   14.584162694   13.199644917
    0.322036728   13.899423389   14.590004526   13.204608509
    0.329215359   13.905007438   14.595986478   13.209691607
    0.336393990   13.910721839   14.602109168   13.214894777
    0.343572621   13.916567104   14.608373235   13.220218601
    0.350751252   13.922543758   14.614779341   13.225663686
    0.357929883   13.928652341   14.621328169   13.231230657
    0.365108514   13.934893411   14.628020422   13.236920161
    0.372287145   13.941267542   14.634856831   13.242732868
    0.379465776   13.947775325   14.641838148   13.248669471
    0.386644407   13.954417369   14.648965152   13.254730687
    0.393823038   13.961194299   14.656238645   13.260917258
    0.401001669   13.968106761   14.663659461   13.267229952
    0.408180301   13.975155419   14.671228456   13.273669563
    0.415358932   13.982340956   14.678946521   13.280236915
    0.422537563   13.989664077   14.686814572   13.286932859
    0.429716194   13.997125505   14.694833560   13.293758279
    0.436894825   14.004725989   14.703004467   13.300714088
    0.444073456   14.012466297   14.711328310   13.307801234
    0.451252087   14.020347220   14.719806143   13.315020700
    0.458430718   14.028369576   14.728439053   13.322373503
    0.465609349   14.036534205   14.737228171   13.329860701
    0.472787980   14.044841975   14.746174667   13.337483391
    0.479966611   14.053293778   14.755279754   13.345242710
    0.487145242   14.061890539   14.764544689   13.353139841
    0.494323873   14.070633206   14.773970778   13.361176013
    0.501502504   14.079522764   14.783559377   13.369352504
    0.508681135   14.088560225   14.793311894   13.377670642
    0.515859766   14.097746636   14.803229793   13.386131811
    0.523038397   14.107083079   14.813314595   13.394737451
    0.530217028   14.116570673   14.823567886   13.403489063
    0.537395659   14.126210575   14.833991315   13.412388213
    0.544574290   14.136003982   14.844586603   13.421436534
    0.551752922   14.145952135   14.855355542   13.430635731
    0.558931553   14.156056318   14.866300007   13.439987587
    0.566110184   14.166317863   14.877421954   13.449493965
    0.573288815   14.176738153   14.888723430   13.459156818
    0.580467446   14.187318623   14.900206575   13.468978188
    0.587646077   14.198060766   14.911873634   13.478960218
    0.594824708   14.208966133   14.923726962   13.489105159
    0.602003339   14.220036339   14.935769029   13.499415372
    0.609181970   14.231273069   14.948002434   13.509893344
    0.616360601   14.242678078   14.960429910   13.520541689
    0.623539232   14.254253200   14.973054339   13.531363165
    0.630717863   14.266000353   14.985878760   13.542360681
    0.637896494   14.277921544   14.998906386   13.553537310
    0.645075125   14.290018876   15.012140613   13.564896303
    0.652253756   14.302294557   15.025585042   13.576441102
    0.659432387   14.314750908   15.039243494   13.588175360
    0.666611018   14.327390370   15.053120029   13.600102955
    0.673789649   14.340215520   15.067218970   13.612228011
    0.680968280   14.353229076   15.081544930   13.624554924
    0.688146912   14.366433916   15.096102834   13.637088383
    0.695325543   14.379833090   15.110897957   13.649833400
    0.702504174   14.393429836   15.125935956   13.662795343
    0.709682805   14.407227604   15.141222911   13.675979967
    0.716861436   14.421230069   15.156765374   13.689393461
    0.724040067   14.435441165   15.172570414   13.703042488
    0.731218698   14.449865107   15.188645685   13.716934238
    0.738397329   14.464506423   15.204999486   13.731076489
    0.745575960   14.479369995   15.221640846   13.745477671
    0.752754591   14.494461097   15.238579609   13.760146946
    0.759933222   14.509785450   15.255826542   13.775094293
    0.767111853   14.525349272   15.273393451   13.790330615
    0.774290484   14.541159353   15.291293326   13.805867850
    0.781469115   14.557223126   15.309540504   13.821719118
    0.788647746   14.573548766   15.328150862   13.837898872
    0.795826377   14.590145297   15.347142044   13.854423094
    0.803005008   14.607022723   15.366533733   13.871309514
    0.810183639   14.624192187   15.386347973   13.888577874
    0.817362270   14.641666154   15.406609554   13.906250244
    0.824540902   14.659458647   15.427346477   13.924351393
    0.831719533   14.677585521   15.448590515   13.942909252
    0.838898164   14.696064807   15.470377904   13.961955455
    0.846076795   14.714917134   15.492750182   13.981526018
    0.853255426   14.734166263   15.515755235   14.001662167
    0.860434057   14.753839742   15.539448591   14.022411367
    0.867612688   14.773969757   15.563895054   14.043828606
    0.874791319   14.794594205   15.589170771   14.065978023
    0.881969950   14.815758089   15.615365873   14.088934984
    0.889148581   14.837515345   15.642587892   14.112788747
    0.896327212   14.859931244   15.670966210   14.137645949
    0.903505843   14.883085618   15.700657945   14.163635187
    0.910684474   14.907077221   15.731855794   14.190913143
    0.917863105   14.932029698   15.764798638   14.219672847
    0.925041736   14.958099862   15.799786036   14.250154977
    0.932220367   14.985489275   15.837198239   14.282663470
    0.939398998   15.014460509   15.877524041   14.317587235
    0.946577629   15.045359840   15.921399521   14.355430279
    0.953756260   15.078647844   15.969660944   14.396852517
    0.960934891   15.114936145   16.023412237   14.442720497
    0.968113523   15.155013667   16.084091749   14.494152223
    0.975292154   15.199785483   16.153456650   14.552477992
    0.982470785   15.249808045   16.233135780   14.618790335
    0.989649416   15.303155339   16.322335652   14.691766709
    0.996828047   15.347007537   16.408521137   14.758960513
    1.004006678   15.334948143   16.441926224   14.773146737
    1.011185309   15.207042643   16.356448058   14.672561473
    1.018363940   15.076289420   16.270688549   14.571736426
    1.025542571   15.057148585   16.272731875   14.573239464
    1.032721202   15.066206879   16.138037748   14.535378217
    1.039899833   15.028392005   15.649582206   14.324493513
    1.047078464   14.997878639   15.210080729   14.141819252
    1.054257095   15.024038140   15.134409106   14.149061849
    1.061435726   15.074896330   15.223813527   14.245484785
    1.068614357   15.128956406   15.341429271   14.362815740
    1.075792988   15.181009240   15.450478167   14.484756941
    1.082971619   15.230890629   15.545615660   14.611618471
    1.090150250   15.279456038   15.628585765   14.747006316
    1.097328881   15.327207629   15.702006731   14.890585663
    1.104507513   15.372416508   15.767657596   15.020228822
    1.111686144   15.405258938   15.824965841   15.032216652
    1.118864775   15.400343528   15.869367209   14.664780740
    1.126043406   15.360922029   15.902554492   13.949010016
    1.133222037   15.353967631   15.940613080   13.566616672
    1.140400668   15.384417762   15.985225451   13.566625571
    1.147579299   15.426472069   16.030899034   13.684642235
    1.154757930   15.469676563   16.075574197   13.813017741
    1.161936561   15.511746092   16.119000523   13.927562749
    1.169115192   15.552574200   16.161379313   14.026388088
    1.176293823   15.592498557   16.202978410   14.112174963
    1.183472454   15.631888034   16.244047464   14.187935063
    1.190651085   15.671062773   16.284807792   14.256170690
    1.197829716   15.710293037   16.325459103   14.318839164
    1.205008347   15.749813528   16.366188617   14.377475022
    1.212186978   15.789836948   16.407176887   14.433306437
    1.219365609   15.830558560   16.448589264   14.487295273
    1.226544240   15.872129995   16.490510135   14.539936737
    1.233722871   15.914517786   16.532652837   14.590186121
    1.240901503   15.956994767   16.573349590   14.631627248
    1.248080134   15.997534554   16.608350608   14.647903051
    1.255258765   16.036800959   16.638640968   14.642517403
    1.262437396   16.080810055   16.675648678   14.658682690
    1.269616027   16.130136680   16.720035176   14.698442027
    1.276794658   16.182986038   16.767694430   14.745512951
    1.283973289   16.239000744   16.817184437   14.793578009
    1.291151920   16.298652861   16.868476149   14.841454205
    1.298330551   16.362797106   16.921996346   14.889357288
    1.305509182   16.432600887   16.978382068   14.937846243
    1.312687813   16.509601591   17.038460355   14.987595726
    1.319866444   16.595777700   17.103279667   15.039379372
    1.327045075   16.693461597   17.174088359   15.094087796
    1.334223706   16.804461770   17.251983848   15.152658700
    1.341402337   16.925873517   17.336157749   15.215567309
    1.348580968   17.033171629   17.416716233   15.280566660
    1.355759599   17.030212318   17.452956752   15.335177234
    1.362938230   16.757949139   17.371040960   15.348144901
    1.370116861   16.402474011   17.216995380   15.291522579
    1.377295492   16.281439035   17.105343342   15.173490129
    1.384474124   16.309141390   17.081282852   15.105471799
    1.391652755   16.336744776   17.114842664   15.109788789
    1.398831386   16.370684202   17.173250418   15.146255899
    1.406010017   16.441571812   17.253236182   15.201312920
    1.413188648   16.407095513   17.309099080   15.233242698
    1.420367279   16.203606254   17.321114892   15.224433044
    1.427545910   16.101073835   17.362645195   15.237862480
    1.434724541   16.173658995   17.454789844   15.289649606
    1.441903172   16.305894338   17.565839036   15.346564523
    1.449081803   16.437892394   17.675301328   15.381282176
    1.456260434   16.554211866   17.778027379   15.399253508
    1.463439065   16.637826961   17.857984083   15.436508348
    1.470617696   16.602246744   17.806000409   15.486593306
    1.477796327   16.422598213   17.504224416   15.529508976
    1.484974958   16.330398250   17.189187491   15.567991024
    1.492153589   16.381554478   17.125457594   15.617400688
    1.499332220   16.482142858   17.208113185   15.674769533
    1.506510851   16.588352366   17.323539254   15.734800606
    1.513689482   16.690306755   17.436731598   15.796312068
    1.520868114   16.787688127   17.541589357   15.859792314
    1.528046745   16.882189314   17.638996370   15.926122198
    1.535225376   16.975343359   17.730953393   15.995744765
    1.542404007   17.066567422   17.818878549   16.066315394
    1.549582638   17.147058498   17.901879151   16.123989154
    1.556761269   17.185684696   17.973239858   16.123183216
    1.563939900   17.155898639   18.027267640   16.024985253
    1.571118531   17.143785167   18.086503354   15.951635536
    1.578297162   17.202405205   18.164805634   15.978870518
    1.585475793   17.290570221   18.250712176   16.050694889
    1.592654424   17.373374319   18.328235751   16.131243210
    1.599833055   17.415575618   18.367911460   16.208356091
    1.607011686   17.412183542   18.365637762   16.280369703
    1.614190317   17.441455737   18.396752932   16.355087832
    1.621368948   17.517718847   18.469569545   16.424809778
    1.628547579   17.606817246   18.534810293   16.456809113
    1.635726210   17.694120250   18.572747530   16.440517476
    1.642904841   17.785211665   18.629088347   16.454955854
    1.650083472   17.873069557   18.701002495   16.511515047
    1.657262104   17.927300606   18.723027268   16.548049403
    1.664440735   17.944057268   18.683659521   16.545594024
    1.671619366   17.985919726   18.695494497   16.566200833
    1.678797997   18.042756549   18.765038367   16.599849387
    1.685976628   18.079970049   18.828404858   16.631127889
    1.693155259   18.103630345   18.856866353   16.690016865
    1.700333890   18.159915882   18.900447269   16.775548742
    1.707512521   18.267647497   18.987404891   16.875237441
    1.714691152   18.396657819   19.090141666   16.969334864
    1.721869783   18.520820907   19.185277624   17.019465141
    1.729048414   18.621241856   19.261241584   16.994178572
    1.736227045   18.695737623   19.336965943   16.974515789
    1.743405676   18.670526358   19.410655880   16.986493391
    1.750584307   18.510360735   19.468128753   17.001213852
    1.757762938   18.454472402   19.546808597   17.063295621
    1.764941569   18.545055330   19.642686787   17.156281735
    1.772120200   18.629450478   19.704546984   17.224830365
    1.779298831   18.554721349   19.673973112   17.220968469
    1.786477462   18.327358467   19.565166633   17.156850231
    1.793656093   18.249131223   19.550498219   17.168089387
    1.800834725   18.342390091   19.635840609   17.255271492
    1.808013356   18.486387270   19.734365321   17.334624221
    1.815191987   18.631182778   19.795650666   17.344971905
    1.822370618   18.770853239   19.849455648   17.347024003
    1.829549249   18.910068951   19.940834889   17.421962096
    1.836727880   19.046360445   20.051591832   17.530562726
    1.843906511   19.166929246   20.161556816   17.614717660
    1.851085142   19.230639299   20.258704334   17.616115756
    1.858263773   19.189968134   20.340531192   17.539826198
    1.865442404   19.147731268   20.421272066   17.493294968
    1.872621035   19.206100994   20.506851063   17.527647356
    1.879799666   19.316601729   20.598051904   17.601573377
    1.886978297   19.440960144   20.702775577   17.697973835
    1.894156928   19.566753173   20.815498080   17.800990899
    1.901335559   19.691386102   20.931556822   17.902412280
    1.908514190   19.815458664   21.050167073   18.000911981
    1.915692821   19.940335146   21.171950135   18.097210903
    1.922871452   20.067542943   21.297978860   18.192384119
    1.930050083   20.198721645   21.429595170   18.287489546
    1.937228715   20.335719979   21.568450670   18.383543977
    1.944407346   20.480726127   21.716599703   18.481575811
    1.951585977   20.636337793   21.876517452   18.582667611
    1.958764608   20.805260972   22.050652552   18.687877193
    1.965943239   20.988386608   22.238965592   18.797638269
    1.973121870   21.176356544   22.428449046   18.909088127
    1.980300501   21.319461813   22.557075183   19.006557942
    1.987479132   21.278391985   22.470504920   19.047124381
    1.994657763   20.970909212   22.173917026   19.016001645
    2.001836394   20.617500821   22.024468674   19.000988737
    2.009015025   20.481926566   22.101524868   19.049467148
    2.016193656   20.585114425   22.274832027   19.125554701
    2.023372287   20.769352093   22.409702813   19.199580502
    2.030550918   20.934839286   22.374495577   19.266974430
    2.037729549   21.039672669   22.220577840   19.338530129
    2.044908180   21.136811999   22.217926344   19.439808563
    2.052086811   21.296662318   22.353237956   19.556497219
    2.059265442   21.498633874   22.540007264   19.680849166
    2.066444073   21.710842916   22.762129439   19.819358223
    2.073622705   21.907427080   22.948494649   19.958159348
    2.080801336   22.057192230   23.009951509   20.077484383
    2.087979967   22.176272657   23.029470105   20.190660481
    2.095158598   22.251837274   23.099979356   20.298854289
    2.102337229   22.205379940   23.150425694   20.364365117
    2.109515860   22.121753687   23.218914881   20.433361870
    2.116694491   22.149779362   23.369797861   20.549507065
    2.123873122   22.218320989   23.541824526   20.661548904
    2.131051753   22.303593494   23.635569435   20.605104418
    2.138230384   22.408689188   23.626646622   20.328853623
    2.145409015   22.576116242   23.704147471   20.207462260
    2.152587646   22.792478092   23.902199334   20.319586275
    2.159766277   22.976431274   24.113803724   20.481419074
    2.166944908   23.078189434   24.292683312   20.600260577
    2.174123539   23.199618594   24.490690073   20.731418578
    2.181302170   23.399893143   24.700587042   20.907237036
    2.188480801   23.587281617   24.855015642   21.067279118
    2.195659432   23.656386602   24.983224394   21.158816658
    2.202838063   23.623452541   25.162148243   21.192931105
    2.210016694   23.661831414   25.385653043   21.263988152
    2.217195326   23.836694030   25.559908145   21.410558698
    2.224373957   24.047311359   25.566559171   21.561180108
    2.231552588   24.252943394   25.527667851   21.674097793
    2.238731219   24.465627206   25.655778264   21.744645242
    2.245909850   24.664425620   25.907356241   21.790550794
    2.253088481   24.831803384   26.174953446   21.918115968
    2.260267112   25.000124856   26.448953516   22.122079790
    2.267445743   25.234670871   26.769170574   22.355584407
    2.274624374   25.475126938   27.085272071   22.575861765
    2.281803005   25.658599578   27.275270071   22.736192183
    2.288981636   25.785403658   27.198400491   22.804859839
    2.296160267   25.908590659   27.029630436   22.850438124
    2.303338898   26.101292176   27.077385599   22.958452373
    2.310517529   26.256646766   27.146798895   23.012602872
    2.317696160   26.392341391   27.192339331   23.042130714
    2.324874791   26.651182282   27.420932296   23.219579304
    2.332053422   26.971603928   27.771188561   23.496906722
    2.339232053   27.291018526   28.141878976   23.778936617
    2.346410684   27.646415250   28.522039298   24.002111614
    2.353589316   28.035278409   28.891946574   24.144043608
    2.360767947   28.359111416   29.220087789   24.251339530
    2.367946578   28.432298953   29.417567988   24.323621280
    2.375125209   28.382336378   29.536253355   24.410105025
    2.382303840   28.621056868   29.825181598   24.654656817
    2.389482471   29.068201946   30.236924734   25.034745212
    2.396661102   29.407621598   30.545799155   25.410648233
    2.403839733   29.294710077   30.452283273   25.563437805
    2.411018364   28.917919417   30.057533950   25.340625027
    2.418196995   28.881874069   29.986152620   25.097132041
    2.425375626   29.193952584   30.337385178   25.098449196
    2.432554257   29.622350672   30.868540822   25.194901440
    2.439732888   29.868500431   31.431628869   25.264875706
    2.446911519   29.941439274   31.991724548   25.182080378
    2.454090150   30.015479879   32.510484902   24.824328328
    2.461268781   30.308759476   32.947228434   24.631864651
    2.468447412   30.821737924   33.310883108   24.675620902
    2.475626043   31.337555376   33.543607858   24.690516037
    2.482804674   31.765567194   33.791634761   24.862558994
    2.489983306   31.718042753   33.873583113   25.210992446
    2.497161937   31.086186622   33.660690971   25.580063431
    2.504340568   30.933480294   33.820032773   25.975463314
    2.511519199   31.471708026   34.427963765   26.379074688
    2.518697830   32.210417550   35.116274303   26.708438935
    2.525876461   32.782677443   35.618907529   26.888440931
    2.533055092   33.225274644   36.042089426   26.998593216
    2.540233723   33.897836021   36.709211801   27.179996042
