# energy grid [eV]     ieps_x  ieps_y  ieps_z
#
    0.200000000    7.666403296    9.254015657    8.580834757
    0.207178631    7.664731243    9.251842368    8.578883443
    0.214357262    7.663001421    9.249593900    8.576864579
    0.221535893    7.661213950    9.247270404    8.574778294
    0.228714524    7.659368955    9.244872031    8.572624720
    0.235893155    7.657466563    9.242398939    8.570403993
    0.243071786    7.655506906    9.239851292    8.568116254
    0.250250417    7.653490119    9.237229255    8.565761648
    0.257429048    7.651416341    9.234533001    8.563340323
    0.264607679    7.649285713    9.231762704    8.560852432
    0.271786311    7.647098381    9.228918545    8.558298130
    0.278964942    7.644854493    9.226000708    8.555677578
    0.286143573    7.642554202    9.223009383    8.552990939
    0.293322204    7.640197662    9.219944763    8.550238382
    0.300500835    7.637785032    9.216807044    8.547420077
    0.307679466    7.635316473    9.213596428    8.544536200
    0.314858097    7.632792151    9.210313121    8.541586929
    0.322036728    7.630212232    9.206957333    8.538572447
    0.329215359    7.627576888    9.203529277    8.535492940
    0.336393990    7.624886292    9.200029170    8.532348597
    0.343572621    7.622140621    9.196457236    8.529139610
    0.350751252    7.619340055    9.192813698    8.525866177
    0.357929883    7.616484775    9.189098787    8.522528498
    0.365108514    7.613574968    9.185312735    8.519126775
    0.372287145    7.610610820    9.181455780    8.515661215
    0.379465776    7.607592522    9.177528162    8.512132028
    0.386644407    7.604520267    9.173530126    8.508539428
    0.393823038    7.601394251    9.169461919    8.504883630
    0.401001669    7.598214673    9.165323792    8.501164854
    0.408180301    7.594981732    9.161116001    8.497383323
    0.415358932    7.591695633    9.156838803    8.493539263
    0.422537563    7.588356581    9.152492461    8.489632903
    0.429716194    7.584964783    9.148077240    8.485664474
    0.436894825    7.581520450    9.143593408    8.481634211
    0.444073456    7.578023795    9.139041236    8.477542353
    0.451252087    7.574475031    9.134420999    8.473389140
    0.458430718    7.570874377    9.129732976    8.469174815
    0.465609349    7.567222050    9.124977447    8.464899625
    0.472787980    7.563518273    9.120154697    8.460563819
    0.479966611    7.559763268    9.115265011    8.456167648
    0.487145242    7.555957259    9.110308682    8.451711368
    0.494323873    7.552100475    9.105286000    8.447195236
    0.501502504    7.548193144    9.100197263    8.442619510
    0.508681135    7.544235497    9.095042768    8.437984455
    0.515859766    7.540227767    9.089822818    8.433290333
    0.523038397    7.536170188    9.084537715    8.428537413
    0.530217028    7.532062995    9.079187766    8.423725964
    0.537395659    7.527906428    9.073773282    8.418856259
    0.544574290    7.523700724    9.068294572    8.413928571
    0.551752922    7.519446127    9.062751953    8.408943178
    0.558931553    7.515142877    9.057145740    8.403900358
    0.566110184    7.510791220    9.051476253    8.398800392
    0.573288815    7.506391401    9.045743812    8.393643565
    0.580467446    7.501943667    9.039948743    8.388430160
    0.587646077    7.497448267    9.034091370    8.383160467
    0.594824708    7.492905450    9.028172023    8.377834773
    0.602003339    7.488315469    9.022191031    8.372453372
    0.609181970    7.483678576    9.016148727    8.367016555
    0.616360601    7.478995025    9.010045446    8.361524620
    0.623539232    7.474265071    9.003881525    8.355977863
    0.630717863    7.469488970    8.997657301    8.350376583
    0.637896494    7.464666980    8.991373115    8.344721081
    0.645075125    7.459799360    8.985029311    8.339011659
    0.652253756    7.454886370    8.978626231    8.333248623
    0.659432387    7.449928270    8.972164223    8.327432278
    0.666611018    7.444925323    8.965643634    8.321562932
    0.673789649    7.439877791    8.959064813    8.315640893
    0.680968280    7.434785939    8.952428112    8.309666474
    0.688146912    7.429650032    8.945733884    8.303639986
    0.695325543    7.424470335    8.938982482    8.297561742
    0.702504174    7.419247115    8.932174263    8.291432059
    0.709682805    7.413980640    8.925309584    8.285251252
    0.716861436    7.408671178    8.918388804    8.279019640
    0.724040067    7.403318999    8.911412284    8.272737541
    0.731218698    7.397924372    8.904380384    8.266405277
    0.738397329    7.392487569    8.897293468    8.260023168
    0.745575960    7.387008861    8.890151899    8.253591539
    0.752754591    7.381488520    8.882956044    8.247110713
    0.759933222    7.375926819    8.875706269    8.240581015
    0.767111853    7.370324031    8.868402941    8.234002771
    0.774290484    7.364680432    8.861046430    8.227376309
    0.781469115    7.358996295    8.853637105    8.220701957
    0.788647746    7.353271895    8.846175337    8.213980045
    0.795826377    7.347507510    8.838661499    8.207210902
    0.803005008    7.341703414    8.831095963    8.200394860
    0.810183639    7.335859886    8.823479103    8.193532251
    0.817362270    7.329977201    8.815811294    8.186623408
    0.824540902    7.324055639    8.808092910    8.179668664
    0.831719533    7.318095476    8.800324329    8.172668354
    0.838898164    7.312096993    8.792505928    8.165622812
    0.846076795    7.306060466    8.784638084    8.158532375
    0.853255426    7.299986177    8.776721176    8.151397378
    0.860434057    7.293874404    8.768755582    8.144218160
    0.867612688    7.287725428    8.760741683    8.136995057
    0.874791319    7.281539528    8.752679859    8.129728409
    0.881969950    7.275316985    8.744570490    8.122418552
    0.889148581    7.269058079    8.736413958    8.115065828
    0.896327212    7.262763092    8.728210645    8.107670575
    0.903505843    7.256432305    8.719960932    8.100233133
    0.910684474    7.250065998    8.711665203    8.092753843
    0.917863105    7.243664453    8.703323840    8.085233046
    0.925041736    7.237227952    8.694937226    8.077671082
    0.932220367    7.230756776    8.686505745    8.070068294
    0.939398998    7.224251206    8.678029781    8.062425023
    0.946577629    7.217711526    8.669509718    8.054741611
    0.953756260    7.211138016    8.660945940    8.047018399
    0.960934891    7.204530957    8.652338830    8.039255731
    0.968113523    7.197890633    8.643688774    8.031453949
    0.975292154    7.191217325    8.634996156    8.023613394
    0.982470785    7.184511314    8.626261361    8.015734411
    0.989649416    7.177772883    8.617484773    8.007817341
    0.996828047    7.171002312    8.608666777    7.999862527
    1.004006678    7.164199884    8.599807756    7.991870313
    1.011185309    7.157365880    8.590908097    7.983841039
    1.018363940    7.150500581    8.581968182    7.975775050
    1.025542571    7.143604269    8.572988396    7.967672688
    1.032721202    7.136677224    8.563969124    7.959534295
    1.039899833    7.129719726    8.554910748    7.951360213
    1.047078464    7.122732058    8.545813653    7.943150784
    1.054257095    7.115714499    8.536678222    7.934906350
    1.061435726    7.108667329    8.527504838    7.926627254
    1.068614357    7.101590829    8.518293883    7.918313836
    1.075792988    7.094485277    8.509045740    7.909966437
    1.082971619    7.087350953    8.499760790    7.901585399
    1.090150250    7.080188137    8.490439417    7.893171061
    1.097328881    7.072997107    8.481082000    7.884723764
    1.104507513    7.065778141    8.471688920    7.876243848
    1.111686144    7.058531517    8.462260557    7.867731652
    1.118864775    7.051257514    8.452797292    7.859187515
    1.126043406    7.043956407    8.443299504    7.850611776
    1.133222037    7.036628475    8.433767570    7.842004773
    1.140400668    7.029273993    8.424201869    7.833366842
    1.147579299    7.021893239    8.414602779    7.824698322
    1.154757930    7.014486486    8.404970676    7.815999548
    1.161936561    7.007054010    8.395305935    7.807270857
    1.169115192    6.999596087    8.385608934    7.798512584
    1.176293823    6.992112990    8.375880046    7.789725064
    1.183472454    6.984604992    8.366119644    7.780908630
    1.190651085    6.977072367    8.356328104    7.772063617
    1.197829716    6.969515387    8.346505796    7.763190356
    1.205008347    6.961934325    8.336653092    7.754289181
    1.212186978    6.954329452    8.326770363    7.745360423
    1.219365609    6.946701039    8.316857979    7.736404411
    1.226544240    6.939049355    8.306916309    7.727421477
    1.233722871    6.931374671    8.296945721    7.718411949
    1.240901503    6.923677256    8.286946583    7.709376156
    1.248080134    6.915957378    8.276919259    7.700314425
    1.255258765    6.908215305    8.266864117    7.691227083
    1.262437396    6.900451304    8.256781519    7.682114455
    1.269616027    6.892665642    8.246671830    7.672976868
    1.276794658    6.884858584    8.236535412    7.663814644
    1.283973289    6.877030395    8.226372625    7.654628108
    1.291151920    6.869181340    8.216183830    7.645417581
    1.298330551    6.861311682    8.205969386    7.636183385
    1.305509182    6.853421684    8.195729652    7.626925840
    1.312687813    6.845511608    8.185464983    7.617645266
    1.319866444    6.837581717    8.175175736    7.608341981
    1.327045075    6.829632269    8.164862265    7.599016303
    1.334223706    6.821663526    8.154524923    7.589668549
    1.341402337    6.813675746    8.144164063    7.580299033
    1.348580968    6.805669188    8.133780036    7.570908070
    1.355759599    6.797644108    8.123373191    7.561495973
    1.362938230    6.789600764    8.112943878    7.552063056
    1.370116861    6.781539412    8.102492443    7.542609628
    1.377295492    6.773460305    8.092019232    7.533136000
    1.384474124    6.765363699    8.081524589    7.523642481
    1.391652755    6.757249847    8.071008860    7.514129379
    1.398831386    6.749119000    8.060472385    7.504597001
    1.406010017    6.740971411    8.049915505    7.495045651
    1.413188648    6.732807329    8.039338559    7.485475635
    1.420367279    6.724627005    8.028741886    7.475887256
    1.427545910    6.716430687    8.018125823    7.466280815
    1.434724541    6.708218624    8.007490704    7.456656613
    1.441903172    6.699991061    7.996836864    7.447014950
    1.449081803    6.691748245    7.986164634    7.437356125
    1.456260434    6.683490421    7.975474347    7.427680434
    1.463439065    6.675217833    7.964766331    7.417988173
    1.470617696    6.666930724    7.954040915    7.408279637
    1.477796327    6.658629337    7.943298425    7.398555119
    1.484974958    6.650313911    7.932539187    7.388814911
    1.492153589    6.641984688    7.921763524    7.379059305
    1.499332220    6.633641906    7.910971759    7.369288588
    1.506510851    6.625285803    7.900164211    7.359503050
    1.513689482    6.616916618    7.889341202    7.349702977
    1.520868114    6.608534585    7.878503047    7.339888655
    1.528046745    6.600139940    7.867650064    7.330060368
    1.535225376    6.591732917    7.856782567    7.320218398
    1.542404007    6.583313749    7.845900868    7.310363028
    1.549582638    6.574882667    7.835005280    7.300494536
    1.556761269    6.566439904    7.824096112    7.290613203
    1.563939900    6.557985687    7.813173673    7.280719305
    1.571118531    6.549520247    7.802238269    7.270813117
    1.578297162    6.541043812    7.791290206    7.260894916
    1.585475793    6.532556606    7.780329786    7.250964973
    1.592654424    6.524058857    7.769357312    7.241023560
    1.599833055    6.515550788    7.758373085    7.231070949
    1.607011686    6.507032624    7.747377402    7.221107407
    1.614190317    6.498504585    7.736370561    7.211133202
    1.621368948    6.489966894    7.725352857    7.201148600
    1.628547579    6.481419770    7.714324584    7.191153866
    1.635726210    6.472863433    7.703286034    7.181149262
    1.642904841    6.464298099    7.692237498    7.171135052
    1.650083472    6.455723987    7.681179264    7.161111494
    1.657262104    6.447141310    7.670111619    7.151078848
    1.664440735    6.438550285    7.659034849    7.141037370
    1.671619366    6.429951123    7.647949237    7.130987317
    1.678797997    6.421344038    7.636855066    7.120928944
    1.685976628    6.412729240    7.625752616    7.110862502
    1.693155259    6.404106939    7.614642165    7.100788243
    1.700333890    6.395477343    7.603523991    7.090706418
    1.707512521    6.386840661    7.592398369    7.080617275
    1.714691152    6.378197099    7.581265572    7.070521060
    1.721869783    6.369546862    7.570125873    7.060418020
    1.729048414    6.360890154    7.558979541    7.050308397
    1.736227045    6.352227177    7.547826845    7.040192435
    1.743405676    6.343558134    7.536668052    7.030070375
    1.750584307    6.334883226    7.525503426    7.019942455
    1.757762938    6.326202651    7.514333231    7.009808915
    1.764941569    6.317516608    7.503157730    6.999669989
    1.772120200    6.308825294    7.491977180    6.989525914
    1.779298831    6.300128905    7.480791841    6.979376922
    1.786477462    6.291427635    7.469601969    6.969223246
    1.793656093    6.282721679    7.458407819    6.959065115
    1.800834725    6.274011227    7.447209644    6.948902760
    1.808013356    6.265296472    7.436007695    6.938736406
    1.815191987    6.256577603    7.424802221    6.928566280
    1.822370618    6.247854810    7.413593470    6.918392606
    1.829549249    6.239128279    7.402381688    6.908215607
    1.836727880    6.230398197    7.391167120    6.898035504
    1.843906511    6.221664750    7.379950009    6.887852517
    1.851085142    6.212928120    7.368730594    6.877666864
    1.858263773    6.204188492    7.357509115    6.867478762
    1.865442404    6.195446046    7.346285810    6.857288426
    1.872621035    6.186700963    7.335060915    6.847096069
    1.879799666    6.177953423    7.323834662    6.836901904
    1.886978297    6.169203602    7.312607285    6.826706141
    1.894156928    6.160451679    7.301379013    6.816508990
    1.901335559    6.151697828    7.290150077    6.806310657
    1.908514190    6.142942225    7.278920702    6.796111349
    1.915692821    6.134185042    7.267691114    6.785911271
    1.922871452    6.125426451    7.256461537    6.775710626
    1.930050083    6.116666624    7.245232192    6.765509614
    1.937228715    6.107905729    7.234003300    6.755308436
    1.944407346    6.099143936    7.222775080    6.745107291
    1.951585977    6.090381411    7.211547747    6.734906376
    1.958764608    6.081618321    7.200321518    6.724705885
    1.965943239    6.072854831    7.189096604    6.714506013
    1.973121870    6.064091104    7.177873219    6.704306953
    1.980300501    6.055327303    7.166651572    6.694108894
    1.987479132    6.046563588    7.155431872    6.683912028
    1.994657763    6.037800122    7.144214324    6.673716541
    2.001836394    6.029037061    7.132999134    6.663522621
    2.009015025    6.020274564    7.121786504    6.653330452
    2.016193656    6.011512788    7.110576638    6.643140218
    2.023372287    6.002751887    7.099369733    6.632952100
    2.030550918    5.993992017    7.088165990    6.622766280
    2.037729549    5.985233330    7.076965603    6.612582936
    2.044908180    5.976475978    7.065768767    6.602402245
    2.052086811    5.967720112    7.054575677    6.592224385
    2.059265442    5.958965881    7.043386524    6.582049530
    2.066444073    5.950213434    7.032201496    6.571877853
    2.073622705    5.941462918    7.021020784    6.561709525
    2.080801336    5.932714479    7.009844572    6.551544717
    2.087979967    5.923968261    6.998673046    6.541383598
    2.095158598    5.915224409    6.987506390    6.531226335
    2.102337229    5.906483065    6.976344785    6.521073094
    2.109515860    5.897744371    6.965188411    6.510924039
    2.116694491    5.889008466    6.954037446    6.500779334
    2.123873122    5.880275490    6.942892068    6.490639141
    2.131051753    5.871545580    6.931752451    6.480503618
    2.138230384    5.862818875    6.920618770    6.470372926
    2.145409015    5.854095508    6.909491195    6.460247221
    2.152587646    5.845375615    6.898369898    6.450126659
    2.159766277    5.836659329    6.887255047    6.440011396
    2.166944908    5.827946783    6.876146810    6.429901583
    2.174123539    5.819238107    6.865045352    6.419797374
    2.181302170    5.810533432    6.853950837    6.409698917
    2.188480801    5.801832887    6.842863428    6.399606362
    2.195659432    5.793136598    6.831783286    6.389519857
    2.202838063    5.784444694    6.820710570    6.379439548
    2.210016694    5.775757298    6.809645438    6.369365579
    2.217195326    5.767074537    6.798588047    6.359298095
    2.224373957    5.758396533    6.787538550    6.349237236
    2.231552588    5.749723408    6.776497103    6.339183144
    2.238731219    5.741055284    6.765463855    6.329135958
    2.245909850    5.732392281    6.754438958    6.319095816
    2.253088481    5.723734517    6.743422560    6.309062854
    2.260267112    5.715082110    6.732414809    6.299037209
    2.267445743    5.706435178    6.721415849    6.289019014
    2.274624374    5.697793836    6.710425826    6.279008401
    2.281803005    5.689158198    6.699444882    6.269005502
    2.288981636    5.680528378    6.688473159    6.259010447
    2.296160267    5.671904489    6.677510795    6.249023365
    2.303338898    5.663286642    6.666557931    6.239044383
    2.310517529    5.654674948    6.655614701    6.229073628
    2.317696160    5.646069515    6.644681243    6.219111223
    2.324874791    5.637470452    6.633757689    6.209157293
    2.332053422    5.628877866    6.622844173    6.199211959
    2.339232053    5.620291864    6.611940826    6.189275344
    2.346410684    5.611712550    6.601047777    6.179347565
    2.353589316    5.603140030    6.590165154    6.169428743
    2.360767947    5.594574404    6.579293085    6.159518993
    2.367946578    5.586015777    6.568431696    6.149618433
    2.375125209    5.577464249    6.557581109    6.139727176
    2.382303840    5.568919919    6.546741448    6.129845337
    2.389482471    5.560382887    6.535912835    6.119973026
    2.396661102    5.551853252    6.525095388    6.110110356
    2.403839733    5.543331109    6.514289228    6.100257437
    2.411018364    5.534816555    6.503494470    6.090414375
    2.418196995    5.526309685    6.492711232    6.080581280
    2.425375626    5.517810593    6.481939627    6.070758257
    2.432554257    5.509319373    6.471179769    6.060945411
    2.439732888    5.500836115    6.460431770    6.051142846
    2.446911519    5.492360911    6.449695740    6.041350664
    2.454090150    5.483893852    6.438971789    6.031568967
    2.461268781    5.475435027    6.428260024    6.021797855
    2.468447412    5.466984523    6.417560553    6.012037427
    2.475626043    5.458542428    6.406873480    6.002287781
    2.482804674    5.450108828    6.396198910    5.992549015
    2.489983306    5.441683809    6.385536946    5.982821222
    2.497161937    5.433267455    6.374887689    5.973104499
    2.504340568    5.424859849    6.364251239    5.963398938
    2.511519199    5.416461075    6.353627696    5.953704631
    2.518697830    5.408071213    6.343017157    5.944021670
    2.525876461    5.399690344    6.332419720    5.934350145
    2.533055092    5.391318549    6.321835478    5.924690144
    2.540233723    5.382955905    6.311264528    5.915041756
