# energy grid [eV]     ieps_x  ieps_y  ieps_z
#
    0.200000000    6.164992248    5.899118728    1.995615442
    0.207178631    6.163799255    5.898134693    1.995374330
    0.214357262    6.162564832    5.897116390    1.995124842
    0.221535893    6.161289045    5.896063864    1.994866991
    0.228714524    6.159971962    5.894977160    1.994600789
    0.235893155    6.158613653    5.893856327    1.994326251
    0.243071786    6.157214189    5.892701413    1.994043390
    0.250250417    6.155773645    5.891512467    1.993752222
    0.257429048    6.154292096    5.890289543    1.993452760
    0.264607679    6.152769622    5.889032692    1.993145022
    0.271786311    6.151206301    5.887741969    1.992829022
    0.278964942    6.149602217    5.886417430    1.992504776
    0.286143573    6.147957454    5.885059133    1.992172302
    0.293322204    6.146272098    5.883667136    1.991831616
    0.300500835    6.144546237    5.882241499    1.991482736
    0.307679466    6.142779963    5.880782284    1.991125680
    0.314858097    6.140973367    5.879289554    1.990760465
    0.322036728    6.139126544    5.877763373    1.990387112
    0.329215359    6.137239590    5.876203807    1.990005637
    0.336393990    6.135312604    5.874610923    1.989616062
    0.343572621    6.133345686    5.872984788    1.989218405
    0.350751252    6.131338938    5.871325474    1.988812688
    0.357929883    6.129292464    5.869633051    1.988398930
    0.365108514    6.127206371    5.867907592    1.987977152
    0.372287145    6.125080766    5.866149170    1.987547377
    0.379465776    6.122915759    5.864357860    1.987109625
    0.386644407    6.120711462    5.862533739    1.986663918
    0.393823038    6.118467988    5.860676884    1.986210280
    0.401001669    6.116185453    5.858787375    1.985748733
    0.408180301    6.113863974    5.856865292    1.985279300
    0.415358932    6.111503670    5.854910716    1.984802004
    0.422537563    6.109104661    5.852923731    1.984316870
    0.429716194    6.106667070    5.850904420    1.983823922
    0.436894825    6.104191021    5.848852868    1.983323184
    0.444073456    6.101676641    5.846769163    1.982814682
    0.451252087    6.099124056    5.844653392    1.982298441
    0.458430718    6.096533397    5.842505644    1.981774485
    0.465609349    6.093904794    5.840326009    1.981242843
    0.472787980    6.091238380    5.838114579    1.980703538
    0.479966611    6.088534290    5.835871447    1.980156600
    0.487145242    6.085792659    5.833596707    1.979602053
    0.494323873    6.083013625    5.831290453    1.979039926
    0.501502504    6.080197328    5.828952781    1.978470247
    0.508681135    6.077343907    5.826583790    1.977893042
    0.515859766    6.074453506    5.824183577    1.977308342
    0.523038397    6.071526268    5.821752242    1.976716173
    0.530217028    6.068562338    5.819289887    1.976116565
    0.537395659    6.065561864    5.816796612    1.975509548
    0.544574290    6.062524994    5.814272521    1.974895150
    0.551752922    6.059451877    5.811717718    1.974273402
    0.558931553    6.056342665    5.809132308    1.973644333
    0.566110184    6.053197511    5.806516397    1.973007975
    0.573288815    6.050016568    5.803870093    1.972364357
    0.580467446    6.046799993    5.801193504    1.971713511
    0.587646077    6.043547941    5.798486740    1.971055468
    0.594824708    6.040260572    5.795749910    1.970390259
    0.602003339    6.036938044    5.792983126    1.969717916
    0.609181970    6.033580518    5.790186501    1.969038472
    0.616360601    6.030188157    5.787360148    1.968351959
    0.623539232    6.026761124    5.784504181    1.967658409
    0.630717863    6.023299584    5.781618717    1.966957855
    0.637896494    6.019803701    5.778703870    1.966250331
    0.645075125    6.016273644    5.775759759    1.965535869
    0.652253756    6.012709581    5.772786502    1.964814504
    0.659432387    6.009111680    5.769784218    1.964086268
    0.666611018    6.005480113    5.766753027    1.963351197
    0.673789649    6.001815051    5.763693050    1.962609325
    0.680968280    5.998116666    5.760604409    1.961860686
    0.688146912    5.994385134    5.757487226    1.961105315
    0.695325543    5.990620628    5.754341626    1.960343247
    0.702504174    5.986823325    5.751167732    1.959574517
    0.709682805    5.982993401    5.747965671    1.958799161
    0.716861436    5.979131035    5.744735567    1.958017214
    0.724040067    5.975236405    5.741477549    1.957228713
    0.731218698    5.971309691    5.738191743    1.956433693
    0.738397329    5.967351075    5.734878279    1.955632191
    0.745575960    5.963360738    5.731537286    1.954824243
    0.752754591    5.959338862    5.728168894    1.954009886
    0.759933222    5.955285631    5.724773234    1.953189157
    0.767111853    5.951201231    5.721350437    1.952362093
    0.774290484    5.947085845    5.717900636    1.951528731
    0.781469115    5.942939660    5.714423963    1.950689109
    0.788647746    5.938762863    5.710920554    1.949843264
    0.795826377    5.934555641    5.707390541    1.948991233
    0.803005008    5.930318183    5.703834061    1.948133056
    0.810183639    5.926050679    5.700251249    1.947268770
    0.817362270    5.921753317    5.696642241    1.946398413
    0.824540902    5.917426288    5.693007175    1.945522023
    0.831719533    5.913069784    5.689346189    1.944639640
    0.838898164    5.908683997    5.685659421    1.943751302
    0.846076795    5.904269119    5.681947010    1.942857048
    0.853255426    5.899825343    5.678209095    1.941956916
    0.860434057    5.895352862    5.674445817    1.941050947
    0.867612688    5.890851872    5.670657317    1.940139179
    0.874791319    5.886322567    5.666843735    1.939221651
    0.881969950    5.881765142    5.663005214    1.938298404
    0.889148581    5.877179794    5.659141897    1.937369476
    0.896327212    5.872566718    5.655253925    1.936434908
    0.903505843    5.867926112    5.651341443    1.935494740
    0.910684474    5.863258173    5.647404594    1.934549011
    0.917863105    5.858563099    5.643443524    1.933597761
    0.925041736    5.853841087    5.639458376    1.932641031
    0.932220367    5.849092337    5.635449296    1.931678860
    0.939398998    5.844317048    5.631416431    1.930711291
    0.946577629    5.839515418    5.627359925    1.929738361
    0.953756260    5.834687648    5.623279927    1.928760114
    0.960934891    5.829833937    5.619176583    1.927776588
    0.968113523    5.824954486    5.615050040    1.926787824
    0.975292154    5.820049496    5.610900447    1.925793864
    0.982470785    5.815119167    5.606727951    1.924794749
    0.989649416    5.810163700    5.602532702    1.923790518
    0.996828047    5.805183297    5.598314848    1.922781214
    1.004006678    5.800178159    5.594074538    1.921766876
    1.011185309    5.795148488    5.589811923    1.920747547
    1.018363940    5.790094486    5.585527153    1.919723268
    1.025542571    5.785016354    5.581220376    1.918694079
    1.032721202    5.779914297    5.576891745    1.917660022
    1.039899833    5.774788514    5.572541410    1.916621138
    1.047078464    5.769639210    5.568169522    1.915577468
    1.054257095    5.764466586    5.563776232    1.914529055
    1.061435726    5.759270846    5.559361693    1.913475938
    1.068614357    5.754052191    5.554926055    1.912418160
    1.075792988    5.748810825    5.550469472    1.911355762
    1.082971619    5.743546950    5.545992095    1.910288786
    1.090150250    5.738260769    5.541494076    1.909217272
    1.097328881    5.732952485    5.536975569    1.908141263
    1.104507513    5.727622300    5.532436727    1.907060800
    1.111686144    5.722270418    5.527877701    1.905975925
    1.118864775    5.716897040    5.523298647    1.904886678
    1.126043406    5.711502369    5.518699716    1.903793102
    1.133222037    5.706086607    5.514081063    1.902695238
    1.140400668    5.700649958    5.509442841    1.901593127
    1.147579299    5.695192623    5.504785203    1.900486811
    1.154757930    5.689714804    5.500108304    1.899376332
    1.161936561    5.684216703    5.495412297    1.898261730
    1.169115192    5.678698521    5.490697337    1.897143048
    1.176293823    5.673160461    5.485963577    1.896020327
    1.183472454    5.667602724    5.481211171    1.894893608
    1.190651085    5.662025511    5.476440274    1.893762932
    1.197829716    5.656429022    5.471651040    1.892628342
    1.205008347    5.650813458    5.466843622    1.891489877
    1.212186978    5.645179021    5.462018176    1.890347580
    1.219365609    5.639525909    5.457174855    1.889201492
    1.226544240    5.633854323    5.452313814    1.888051653
    1.233722871    5.628164462    5.447435207    1.886898106
    1.240901503    5.622456526    5.442539187    1.885740890
    1.248080134    5.616730714    5.437625910    1.884580048
    1.255258765    5.610987223    5.432695529    1.883415620
    1.262437396    5.605226254    5.427748198    1.882247646
    1.269616027    5.599448002    5.422784071    1.881076169
    1.276794658    5.593652666    5.417803303    1.879901229
    1.283973289    5.587840443    5.412806046    1.878722865
    1.291151920    5.582011529    5.407792455    1.877541120
    1.298330551    5.576166122    5.402762684    1.876356034
    1.305509182    5.570304416    5.397716885    1.875167647
    1.312687813    5.564426608    5.392655212    1.873976000
    1.319866444    5.558532892    5.387577819    1.872781132
    1.327045075    5.552623463    5.382484858    1.871583085
    1.334223706    5.546698515    5.377376483    1.870381899
    1.341402337    5.540758241    5.372252846    1.869177613
    1.348580968    5.534802835    5.367114100    1.867970268
    1.355759599    5.528832489    5.361960397    1.866759904
    1.362938230    5.522847396    5.356791890    1.865546560
    1.370116861    5.516847747    5.351608731    1.864330276
    1.377295492    5.510833733    5.346411072    1.863111093
    1.384474124    5.504805544    5.341199063    1.861889049
    1.391652755    5.498763370    5.335972858    1.860664184
    1.398831386    5.492707402    5.330732606    1.859436537
    1.406010017    5.486637827    5.325478460    1.858206147
    1.413188648    5.480554834    5.320210569    1.856973055
    1.420367279    5.474458611    5.314929084    1.855737298
    1.427545910    5.468349344    5.309634156    1.854498915
    1.434724541    5.462227221    5.304325934    1.853257947
    1.441903172    5.456092426    5.299004569    1.852014430
    1.449081803    5.449945145    5.293670209    1.850768404
    1.456260434    5.443785563    5.288323003    1.849519907
    1.463439065    5.437613863    5.282963101    1.848268977
    1.470617696    5.431430230    5.277590651    1.847015653
    1.477796327    5.425234844    5.272205801    1.845759973
    1.484974958    5.419027889    5.266808700    1.844501974
    1.492153589    5.412809545    5.261399494    1.843241695
    1.499332220    5.406579994    5.255978330    1.841979173
    1.506510851    5.400339415    5.250545357    1.840714446
    1.513689482    5.394087987    5.245100720    1.839447551
    1.520868114    5.387825888    5.239644565    1.838178525
    1.528046745    5.381553297    5.234177038    1.836907406
    1.535225376    5.375270391    5.228698286    1.835634230
    1.542404007    5.368977346    5.223208452    1.834359034
    1.549582638    5.362674337    5.217707682    1.833081856
    1.556761269    5.356361540    5.212196119    1.831802731
    1.563939900    5.350039128    5.206673908    1.830521696
    1.571118531    5.343707275    5.201141193    1.829238788
    1.578297162    5.337366153    5.195598116    1.827954042
    1.585475793    5.331015935    5.190044820    1.826667495
    1.592654424    5.324656791    5.184481448    1.825379181
    1.599833055    5.318288893    5.178908140    1.824089138
    1.607011686    5.311912408    5.173325040    1.822797400
    1.614190317    5.305527507    5.167732287    1.821504003
    1.621368948    5.299134356    5.162130022    1.820208982
    1.628547579    5.292733124    5.156518386    1.818912372
    1.635726210    5.286323977    5.150897518    1.817614207
    1.642904841    5.279907080    5.145267557    1.816314524
    1.650083472    5.273482597    5.139628642    1.815013355
    1.657262104    5.267050694    5.133980911    1.813710737
    1.664440735    5.260611533    5.128324503    1.812406702
    1.671619366    5.254165277    5.122659554    1.811101285
    1.678797997    5.247712086    5.116986201    1.809794519
    1.685976628    5.241252122    5.111304580    1.808486440
    1.693155259    5.234785545    5.105614829    1.807177079
    1.700333890    5.228312514    5.099917081    1.805866471
    1.707512521    5.221833186    5.094211472    1.804554648
    1.714691152    5.215347719    5.088498136    1.803241645
    1.721869783    5.208856270    5.082777208    1.801927493
    1.729048414    5.202358994    5.077048819    1.800612225
    1.736227045    5.195856046    5.071313104    1.799295875
    1.743405676    5.189347581    5.065570195    1.797978473
    1.750584307    5.182833751    5.059820223    1.796660053
    1.757762938    5.176314708    5.054063319    1.795340647
    1.764941569    5.169790604    5.048299615    1.794020286
    1.772120200    5.163261589    5.042529241    1.792699002
    1.779298831    5.156727813    5.036752326    1.791376826
    1.786477462    5.150189425    5.030968999    1.790053790
    1.793656093    5.143646573    5.025179389    1.788729925
    1.800834725    5.137099404    5.019383625    1.787405262
    1.808013356    5.130548064    5.013581832    1.786079832
    1.815191987    5.123992698    5.007774139    1.784753665
    1.822370618    5.117433451    5.001960672    1.783426791
    1.829549249    5.110870466    4.996141557    1.782099242
    1.836727880    5.104303886    4.990316918    1.780771046
    1.843906511    5.097733854    4.984486880    1.779442234
    1.851085142    5.091160509    4.978651568    1.778112835
    1.858263773    5.084583991    4.972811105    1.776782880
    1.865442404    5.078004441    4.966965614    1.775452396
    1.872621035    5.071421996    4.961115218    1.774121414
    1.879799666    5.064836794    4.955260037    1.772789963
    1.886978297    5.058248971    4.949400194    1.771458070
    1.894156928    5.051658663    4.943535808    1.770125765
    1.901335559    5.045066005    4.937667001    1.768793076
    1.908514190    5.038471130    4.931793890    1.767460032
    1.915692821    5.031874171    4.925916596    1.766126659
    1.922871452    5.025275261    4.920035237    1.764792987
    1.930050083    5.018674531    4.914149929    1.763459042
    1.937228715    5.012072110    4.908260790    1.762124853
    1.944407346    5.005468130    4.902367937    1.760790446
    1.951585977    4.998862717    4.896471485    1.759455849
    1.958764608    4.992256000    4.890571550    1.758121088
    1.965943239    4.985648106    4.884668246    1.756786191
    1.973121870    4.979039160    4.878761687    1.755451183
    1.980300501    4.972429287    4.872851986    1.754116091
    1.987479132    4.965818612    4.866939257    1.752780941
    1.994657763    4.959207258    4.861023612    1.751445760
    2.001836394    4.952595347    4.855105161    1.750110572
    2.009015025    4.945983001    4.849184017    1.748775405
    2.016193656    4.939370340    4.843260289    1.747440282
    2.023372287    4.932757484    4.837334087    1.746105229
    2.030550918    4.926144551    4.831405520    1.744770272
    2.037729549    4.919531661    4.825474697    1.743435434
    2.044908180    4.912918929    4.819541725    1.742100742
    2.052086811    4.906306473    4.813606712    1.740766218
    2.059265442    4.899694407    4.807669764    1.739431889
    2.066444073    4.893082846    4.801730988    1.738097777
    2.073622705    4.886471903    4.795790488    1.736763906
    2.080801336    4.879861692    4.789848370    1.735430301
    2.087979967    4.873252324    4.783904737    1.734096984
    2.095158598    4.866643910    4.777959693    1.732763980
    2.102337229    4.860036560    4.772013341    1.731431311
    2.109515860    4.853430384    4.766065782    1.730099001
    2.116694491    4.846825490    4.760117120    1.728767072
    2.123873122    4.840221985    4.754167454    1.727435546
    2.131051753    4.833619976    4.748216885    1.726104447
    2.138230384    4.827019570    4.742265513    1.724773797
    2.145409015    4.820420871    4.736313436    1.723443617
    2.152587646    4.813823983    4.730360754    1.722113930
    2.159766277    4.807229009    4.724407563    1.720784757
    2.166944908    4.800636052    4.718453962    1.719456120
    2.174123539    4.794045214    4.712500047    1.718128040
    2.181302170    4.787456595    4.706545913    1.716800538
    2.188480801    4.780870296    4.700591657    1.715473635
    2.195659432    4.774286414    4.694637372    1.714147353
    2.202838063    4.767705049    4.688683153    1.712821712
    2.210016694    4.761126298    4.682729093    1.711496731
    2.217195326    4.754550258    4.676775285    1.710172433
    2.224373957    4.747977024    4.670821821    1.708848835
    2.231552588    4.741406691    4.664868793    1.707525960
    2.238731219    4.734839353    4.658916292    1.706203825
    2.245909850    4.728275105    4.652964407    1.704882452
    2.253088481    4.721714037    4.647013229    1.703561858
    2.260267112    4.715156242    4.641062847    1.702242064
    2.267445743    4.708601810    4.635113349    1.700923089
    2.274624374    4.702050832    4.629164822    1.699604950
    2.281803005    4.695503397    4.623217355    1.698287668
    2.288981636    4.688959594    4.617271033    1.696971261
    2.296160267    4.682419509    4.611325943    1.695655746
    2.303338898    4.675883230    4.605382170    1.694341142
    2.310517529    4.669350843    4.599439798    1.693027467
    2.317696160    4.662822433    4.593498912    1.691714739
    2.324874791    4.656298085    4.587559595    1.690402976
    2.332053422    4.649777882    4.581621929    1.689092195
    2.339232053    4.643261906    4.575685998    1.687782413
    2.346410684    4.636750242    4.569751882    1.686473647
    2.353589316    4.630242968    4.563819664    1.685165915
    2.360767947    4.623740167    4.557889422    1.683859233
    2.367946578    4.617241918    4.551961237    1.682553618
    2.375125209    4.610748300    4.546035189    1.681249087
    2.382303840    4.604259391    4.540111354    1.679945655
    2.389482471    4.597775269    4.534189813    1.678643339
    2.396661102    4.591296010    4.528270641    1.677342155
    2.403839733    4.584821691    4.522353916    1.676042118
    2.411018364    4.578352387    4.516439714    1.674743245
    2.418196995    4.571888172    4.510528110    1.673445551
    2.425375626    4.565429120    4.504619180    1.672149050
    2.432554257    4.558975305    4.498712997    1.670853760
    2.439732888    4.552526798    4.492809635    1.669559693
    2.446911519    4.546083670    4.486909168    1.668266865
    2.454090150    4.539645994    4.481011668    1.666975292
    2.461268781    4.533213839    4.475117207    1.665684987
    2.468447412    4.526787274    4.469225856    1.664395964
    2.475626043    4.520366368    4.463337686    1.663108239
    2.482804674    4.513951189    4.457452768    1.661821825
    2.489983306    4.507541804    4.451571171    1.660536736
    2.497161937    4.501138280    4.445692963    1.659252985
    2.504340568    4.494740683    4.439818214    1.657970587
    2.511519199    4.488349077    4.433946992    1.656689554
    2.518697830    4.481963528    4.428079362    1.655409901
    2.525876461    4.475584098    4.422215394    1.654131640
    2.533055092    4.469210852    4.416355151    1.652854784
    2.540233723    4.462843851    4.410498701    1.651579347
