# energy grid [eV]     epsr_x  epsr_y  epsr_z
#
    0.200000000   10.043161054    6.384514883    9.262415528
    0.207178631   10.044957854    6.385508995    9.264104440
    0.214357262   10.046818800    6.386538605    9.265853673
    0.221535893   10.048743977    6.387603760    9.267663307
    0.228714524   10.050733469    6.388704508    9.269533427
    0.235893155   10.052787365    6.389840899    9.271464117
    0.243071786   10.054905757    6.391012985    9.273455468
    0.250250417   10.057088738    6.392220819    9.275507571
    0.257429048   10.059336408    6.393464455    9.277620521
    0.264607679   10.061648865    6.394743952    9.279794416
    0.271786311   10.064026214    6.396059366    9.282029357
    0.278964942   10.066468561    6.397410758    9.284325446
    0.286143573   10.068976015    6.398798190    9.286682791
    0.293322204   10.071548690    6.400221725    9.289101502
    0.300500835   10.074186699    6.401681429    9.291581690
    0.307679466   10.076890163    6.403177367    9.294123470
    0.314858097   10.079659202    6.404709610    9.296726962
    0.322036728   10.082493941    6.406278227    9.299392287
    0.329215359   10.085394508    6.407883290    9.302119568
    0.336393990   10.088361035    6.409524873    9.304908934
    0.343572621   10.091393653    6.411203052    9.307760515
    0.350751252   10.094492502    6.412917905    9.310674444
    0.357929883   10.097657721    6.414669511    9.313650859
    0.365108514   10.100889454    6.416457950    9.316689898
    0.372287145   10.104187847    6.418283306    9.319791704
    0.379465776   10.107553050    6.420145663    9.322956425
    0.386644407   10.110985216    6.422045108    9.326184207
    0.393823038   10.114484502    6.423981729    9.329475205
    0.401001669   10.118051067    6.425955617    9.332829573
    0.408180301   10.121685074    6.427966864    9.336247470
    0.415358932   10.125386688    6.430015563    9.339729057
    0.422537563   10.129156080    6.432101811    9.343274501
    0.429716194   10.132993423    6.434225705    9.346883969
    0.436894825   10.136898891    6.436387346    9.350557633
    0.444073456   10.140872666    6.438586834    9.354295668
    0.451252087   10.144914929    6.440824274    9.358098252
    0.458430718   10.149025868    6.443099771    9.361965567
    0.465609349   10.153205671    6.445413433    9.365897799
    0.472787980   10.157454532    6.447765369    9.369895135
    0.479966611   10.161772648    6.450155691    9.373957767
    0.487145242   10.166160220    6.452584512    9.378085891
    0.494323873   10.170617450    6.455051949    9.382279705
    0.501502504   10.175144547    6.457558118    9.386539412
    0.508681135   10.179741721    6.460103140    9.390865217
    0.515859766   10.184409187    6.462687137    9.395257331
    0.523038397   10.189147163    6.465310232    9.399715965
    0.530217028   10.193955871    6.467972552    9.404241337
    0.537395659   10.198835537    6.470674224    9.408833667
    0.544574290   10.203786389    6.473415380    9.413493177
    0.551752922   10.208808662    6.476196151    9.418220097
    0.558931553   10.213902591    6.479016673    9.423014657
    0.566110184   10.219068418    6.481877082    9.427877093
    0.573288815   10.224306387    6.484777519    9.432807642
    0.580467446   10.229616747    6.487718123    9.437806549
    0.587646077   10.234999749    6.490699040    9.442874058
    0.594824708   10.240455650    6.493720414    9.448010421
    0.602003339   10.245984711    6.496782395    9.453215891
    0.609181970   10.251587195    6.499885133    9.458490728
    0.616360601   10.257263371    6.503028781    9.463835192
    0.623539232   10.263013511    6.506213494    9.469249551
    0.630717863   10.268837892    6.509439431    9.474734074
    0.637896494   10.274736794    6.512706752    9.480289037
    0.645075125   10.280710502    6.516015618    9.485914716
    0.652253756   10.286759305    6.519366197    9.491611396
    0.659432387   10.292883496    6.522758654    9.497379362
    0.666611018   10.299083373    6.526193161    9.503218906
    0.673789649   10.305359237    6.529669890    9.509130324
    0.680968280   10.311711396    6.533189017    9.515113914
    0.688146912   10.318140159    6.536750719    9.521169981
    0.695325543   10.324645842    6.540355176    9.527298834
    0.702504174   10.331228765    6.544002574    9.533500785
    0.709682805   10.337889251    6.547693096    9.539776151
    0.716861436   10.344627630    6.551426931    9.546125255
    0.724040067   10.351444234    6.555204272    9.552548423
    0.731218698   10.358339402    6.559025312    9.559045986
    0.738397329   10.365313477    6.562890248    9.565618280
    0.745575960   10.372366806    6.566799279    9.572265646
    0.752754591   10.379499741    6.570752609    9.578988428
    0.759933222   10.386712641    6.574750443    9.585786977
    0.767111853   10.394005866    6.578792988    9.592661648
    0.774290484   10.401379784    6.582880458    9.599612800
    0.781469115   10.408834767    6.587013065    9.606640800
    0.788647746   10.416371192    6.591191028    9.613746015
    0.795826377   10.423989442    6.595414566    9.620928823
    0.803005008   10.431689904    6.599683904    9.628189602
    0.810183639   10.439472970    6.603999268    9.635528737
    0.817362270   10.447339039    6.608360887    9.642946620
    0.824540902   10.455288513    6.612768995    9.650443647
    0.831719533   10.463321803    6.617223829    9.658020218
    0.838898164   10.471439320    6.621725627    9.665676740
    0.846076795   10.479641486    6.626274632    9.673413625
    0.853255426   10.487928726    6.630871091    9.681231291
    0.860434057   10.496301469    6.635515254    9.689130161
    0.867612688   10.504760153    6.640207373    9.697110665
    0.874791319   10.513305221    6.644947705    9.705173236
    0.881969950   10.521937119    6.649736511    9.713318316
    0.889148581   10.530656302    6.654574053    9.721546350
    0.896327212   10.539463231    6.659460599    9.729857791
    0.903505843   10.548358370    6.664396421    9.738253097
    0.910684474   10.557342192    6.669381792    9.746732733
    0.917863105   10.566415175    6.674416991    9.755297169
    0.925041736   10.575577803    6.679502300    9.763946882
    0.932220367   10.584830568    6.684638006    9.772682355
    0.939398998   10.594173966    6.689824399    9.781504078
    0.946577629   10.603608501    6.695061772    9.790412546
    0.953756260   10.613134682    6.700350423    9.799408261
    0.960934891   10.622753027    6.705690654    9.808491734
    0.968113523   10.632464059    6.711082773    9.817663479
    0.975292154   10.642268308    6.716527087    9.826924018
    0.982470785   10.652166310    6.722023914    9.836273883
    0.989649416   10.662158611    6.727573570    9.845713608
    0.996828047   10.672245760    6.733176380    9.855243738
    1.004006678   10.682428315    6.738832670    9.864864822
    1.011185309   10.692706842    6.744542774    9.874577419
    1.018363940   10.703081914    6.750307027    9.884382093
    1.025542571   10.713554110    6.756125771    9.894279416
    1.032721202   10.724124017    6.761999351    9.904269970
    1.039899833   10.734792230    6.767928118    9.914354341
    1.047078464   10.745559351    6.773912428    9.924533125
    1.054257095   10.756425992    6.779952640    9.934806924
    1.061435726   10.767392769    6.786049120    9.945176350
    1.068614357   10.778460310    6.792202237    9.955642022
    1.075792988   10.789629247    6.798412367    9.966204566
    1.082971619   10.800900223    6.804679891    9.976864618
    1.090150250   10.812273890    6.811005193    9.987622821
    1.097328881   10.823750904    6.817388665    9.998479828
    1.104507513   10.835331934    6.823830702   10.009436299
    1.111686144   10.847017656    6.830331707   10.020492904
    1.118864775   10.858808754    6.836892086   10.031650320
    1.126043406   10.870705922    6.843512253   10.042909235
    1.133222037   10.882709862    6.850192625   10.054270345
    1.140400668   10.894821285    6.856933628   10.065734354
    1.147579299   10.907040913    6.863735691   10.077301978
    1.154757930   10.919369474    6.870599251   10.088973941
    1.161936561   10.931807708    6.877524749   10.100750975
    1.169115192   10.944356364    6.884512634   10.112633825
    1.176293823   10.957016202    6.891563361   10.124623242
    1.183472454   10.969787988    6.898677391   10.136719991
    1.190651085   10.982672501    6.905855191   10.148924845
    1.197829716   10.995670530    6.913097234   10.161238586
    1.205008347   11.008782874    6.920404002   10.173662008
    1.212186978   11.022010342    6.927775982   10.186195917
    1.219365609   11.035353752    6.935213669   10.198841127
    1.226544240   11.048813937    6.942717562   10.211598463
    1.233722871   11.062391735    6.950288171   10.224468764
    1.240901503   11.076088001    6.957926012   10.237452877
    1.248080134   11.089903597    6.965631607   10.250551662
    1.255258765   11.103839397    6.973405486   10.263765989
    1.262437396   11.117896288    6.981248187   10.277096743
    1.269616027   11.132075167    6.989160256   10.290544816
    1.276794658   11.146376944    6.997142246   10.304111117
    1.283973289   11.160802540    7.005194719   10.317796565
    1.291151920   11.175352890    7.013318243   10.331602090
    1.298330551   11.190028938    7.021513397   10.345528636
    1.305509182   11.204831643    7.029780767   10.359577162
    1.312687813   11.219761977    7.038120947   10.373748636
    1.319866444   11.234820924    7.046534540   10.388044042
    1.327045075   11.250009480    7.055022159   10.402464376
    1.334223706   11.265328657    7.063584424   10.417010648
    1.341402337   11.280779478    7.072221965   10.431683883
    1.348580968   11.296362981    7.080935422   10.446485119
    1.355759599   11.312080218    7.089725443   10.461415409
    1.362938230   11.327932254    7.098592688   10.476475818
    1.370116861   11.343920170    7.107537823   10.491667429
    1.377295492   11.360045059    7.116561528   10.506991339
    1.384474124   11.376308032    7.125664490   10.522448659
    1.391652755   11.392710212    7.134847408   10.538040517
    1.398831386   11.409252740    7.144110991   10.553768056
    1.406010017   11.425936770    7.153455960   10.569632435
    1.413188648   11.442763474    7.162883043   10.585634830
    1.420367279   11.459734039    7.172392984   10.601776433
    1.427545910   11.476849667    7.181986536   10.618058452
    1.434724541   11.494111578    7.191664462   10.634482113
    1.441903172   11.511521009    7.201427540   10.651048659
    1.449081803   11.529079213    7.211276557   10.667759351
    1.456260434   11.546787461    7.221212315   10.684615468
    1.463439065   11.564647041    7.231235625   10.701618307
    1.470617696   11.582659260    7.241347313   10.718769183
    1.477796327   11.600825442    7.251548218   10.736069431
    1.484974958   11.619146930    7.261839191   10.753520404
    1.492153589   11.637625086    7.272221098   10.771123477
    1.499332220   11.656261291    7.282694817   10.788880040
    1.506510851   11.675056944    7.293261240   10.806791509
    1.513689482   11.694013467    7.303921275   10.824859317
    1.520868114   11.713132299    7.314675843   10.843084918
    1.528046745   11.732414900    7.325525882   10.861469789
    1.535225376   11.751862752    7.336472342   10.880015428
    1.542404007   11.771477358    7.347516190   10.898723353
    1.549582638   11.791260240    7.358658406   10.917595108
    1.556761269   11.811212945    7.369899971   10.936632257
    1.563939900   11.831337036    7.381241840   10.955836388
    1.571118531   11.851634100    7.392684955   10.975209110
    1.578297162   11.872105758    7.404230503   10.994752063
    1.585475793   11.892753655    7.415879730   11.014466910
    1.592654424   11.913579450    7.427633650   11.034355336
    1.599833055   11.934584823    7.439493291   11.054419051
    1.607011686   11.955771483    7.451459754   11.074659792
    1.614190317   11.977141165    7.463534172   11.095079321
    1.621368948   11.998695629    7.475717702   11.115679430
    1.628547579   12.020436662    7.488011523   11.136461935
    1.635726210   12.042366076    7.500416833   11.157428684
    1.642904841   12.064485711    7.512934849   11.178581549
    1.650083472   12.086797434    7.525566811   11.199922434
    1.657262104   12.109303138    7.538313977   11.221453272
    1.664440735   12.132004740    7.551177625   11.243176023
    1.671619366   12.154904194    7.564159060   11.265092681
    1.678797997   12.178003497    7.577259622   11.287205273
    1.685976628   12.201304656    7.590480663   11.309515852
    1.693155259   12.224809699    7.603823549   11.332026496
    1.700333890   12.248520700    7.617289664   11.354739329
    1.707512521   12.272439790    7.630880383   11.377656528
    1.714691152   12.296569102    7.644597095   11.400780277
    1.721869783   12.320910803    7.658441394   11.424112801
    1.729048414   12.345467098    7.672414901   11.447656367
    1.736227045   12.370240223    7.686519087   11.471413268
    1.743405676   12.395232451    7.700755460   11.495385835
    1.750584307   12.420446091    7.715125594   11.519576441
    1.757762938   12.445883487    7.729631099   11.543987497
    1.764941569   12.471547018    7.744273623   11.568621450
    1.772120200   12.497439092    7.759054841   11.593480781
    1.779298831   12.523562165    7.773976462   11.618568021
    1.786477462   12.549918770    7.789040226   11.643885775
    1.793656093   12.576511450    7.804247906   11.669436665
    1.800834725   12.603342771    7.819601308   11.695223344
    1.808013356   12.630415343    7.835102272   11.721248511
    1.815191987   12.657731822    7.850752669   11.747514917
    1.822370618   12.685294908    7.866554409   11.774025361
    1.829549249   12.713107374    7.882509457   11.800782691
    1.836727880   12.741172024    7.898619807   11.827789804
    1.843906511   12.769491689    7.914887482   11.855049644
    1.851085142   12.798069253    7.931314545   11.882565207
    1.858263773   12.826907652    7.947903106   11.910339541
    1.865442404   12.856009871    7.964655315   11.938375748
    1.872621035   12.885378944    7.981573368   11.966676983
    1.879799666   12.915017958    7.998659504   11.995246455
    1.886978297   12.944930047    8.015916009   12.024087425
    1.894156928   12.975118385    8.033345215   12.053203194
    1.901335559   13.005586196    8.050949502   12.082597113
    1.908514190   13.036336820    8.068731301   12.112272685
    1.915692821   13.067373658    8.086693093   12.142233483
    1.922871452   13.098700106    8.104837410   12.172483048
    1.930050083   13.130319616    8.123166839   12.203024986
    1.937228715   13.162235699    8.141684017   12.233862977
    1.944407346   13.194451905    8.160391637   12.265000760
    1.951585977   13.226971915    8.179292458   12.296442186
    1.958764608   13.259799559    8.198389313   12.328191234
    1.965943239   13.292938621    8.217685079   12.360251880
    1.973121870   13.326392918    8.237182691   12.392628156
    1.980300501   13.360166361    8.256885152   12.425324183
    1.987479132   13.394262943    8.276795536   12.458344171
    1.994657763   13.428686731    8.296916985   12.491692407
    2.001836394   13.463441866    8.317252711   12.525373261
    2.009015025   13.498532558    8.337806002   12.559391173
    2.016193656   13.533963078    8.358580218   12.593750650
    2.023372287   13.569737794    8.379578797   12.628456309
    2.030550918   13.605861218    8.400805260   12.663512967
    2.037729549   13.642337899    8.422263207   12.698925455
    2.044908180   13.679172433    8.443956324   12.734698638
    2.052086811   13.716369517    8.465888383   12.770837500
    2.059265442   13.753933944    8.488063247   12.807347138
    2.066444073   13.791870598    8.510484871   12.844232753
    2.073622705   13.830184459    8.533157306   12.881499654
    2.080801336   13.868880602    8.556084704   12.919153256
    2.087979967   13.907964199    8.579271315   12.957199084
    2.095158598   13.947440521    8.602721496   12.995642775
    2.102337229   13.987314943    8.626439715   13.034490084
    2.109515860   14.027592940    8.650430547   13.073746880
    2.116694491   14.068280086    8.674698686   13.113419142
    2.123873122   14.109382031    8.699248942   13.153512933
    2.131051753   14.150904499    8.724086247   13.194034398
    2.138230384   14.192853477    8.749215674   13.234989998
    2.145409015   14.235235192    8.774642428   13.276386466
    2.152587646   14.278055743    8.800371839   13.318230382
    2.159766277   14.321321305    8.826409379   13.360528412
    2.166944908   14.365038379    8.852760667   13.403287588
    2.174123539   14.409213570    8.879431475   13.446515069
    2.181302170   14.453853509    8.906427733   13.490218045
    2.188480801   14.498964983    8.933755532   13.534403893
    2.195659432   14.544554946    8.961421132   13.579080175
    2.202838063   14.590630506    8.989430966   13.624254634
    2.210016694   14.637198918    9.017791650   13.669935185
    2.217195326   14.684267594    9.046509984   13.716129923
    2.224373957   14.731844101    9.075592965   13.762847127
    2.231552588   14.779936171    9.105047791   13.810095265
    2.238731219   14.828551699    9.134881866   13.857882999
    2.245909850   14.877698753    9.165102815   13.906219193
    2.253088481   14.927385577    9.195718488   13.955112916
    2.260267112   14.977620594    9.226736966   14.004573452
    2.267445743   15.028412413    9.258166576   14.054610304
    2.274624374   15.079769837    9.290015898   14.105233200
    2.281803005   15.131701863    9.322293775   14.156452102
    2.288981636   15.184217690    9.355009322   14.208277213
    2.296160267   15.237326728    9.388171940   14.260718985
    2.303338898   15.291038598    9.421791327   14.313788123
    2.310517529   15.345363144    9.455877487   14.367495600
    2.317696160   15.400310437    9.490440744   14.421852658
    2.324874791   15.455890779    9.525491742   14.476870823
    2.332053422   15.512114717    9.561041476   14.532561911
    2.339232053   15.568993045    9.597101365   14.588938037
    2.346410684   15.626536811    9.633683204   14.646011625
    2.353589316   15.684757303    9.670799124   14.703795394
    2.360767947   15.743666033    9.708461672   14.762302335
    2.367946578   15.803274792    9.746683843   14.821545786
    2.375125209   15.863595928    9.785479104   14.881539741
    2.382303840   15.924642034    9.824861396   14.942298501
    2.389482471   15.986425780    9.864845137   15.003836483
    2.396661102   16.048960186    9.905445265   15.066168529
    2.403839733   16.112258642    9.946677264   15.129309939
    2.411018364   16.176334886    9.988557183   15.193276446
    2.418196995   16.241202988   10.031101673   15.258084203
    2.425375626   16.306877292   10.074328030   15.323749745
    2.432554257   16.373372337   10.118254190   15.390289913
    2.439732888   16.440703325   10.162898767   15.457722260
    2.446911519   16.508886637   10.208281122   15.526065532
    2.454090150   16.577938428   10.254421371   15.595338471
    2.461268781   16.647874840   10.301340420   15.665559947
    2.468447412   16.718712604   10.349060023   15.736749492
    2.475626043   16.790468964   10.397602819   15.808927227
    2.482804674   16.863161743   10.446992387   15.882114042
    2.489983306   16.936809481   10.497253298   15.956331874
    2.497161937   17.011431045   10.548411156   16.031602985
    2.504340568   17.087045697   10.600492663   16.107950090
    2.511519199   17.163673224   10.653525681   16.185396657
    2.518697830   17.241333896   10.707539297   16.263966859
    2.525876461   17.320048835   10.762563898   16.343685847
    2.533055092   17.399840233   10.818631241   16.424579907
    2.540233723   17.480730378   10.875774535   16.506675751
