# energy grid [eV]     epsr_x  epsr_y  epsr_z
#
    0.200000000   11.507287251    8.439076658    8.613251461
    0.207178631   11.509448614    8.440521214    8.614802033
    0.214357262   11.511687174    8.442017363    8.616407990
    0.221535893   11.514003036    8.443565175    8.618069407
    0.228714524   11.516396305    8.445164721    8.619786361
    0.235893155   11.518867093    8.446816075    8.621558931
    0.243071786   11.521415514    8.448519313    8.623387201
    0.250250417   11.524041686    8.450274515    8.625271256
    0.257429048   11.526745731    8.452081760    8.627211183
    0.264607679   11.529527774    8.453941133    8.629207072
    0.271786311   11.532387945    8.455852719    8.631259017
    0.278964942   11.535326376    8.457816609    8.633367114
    0.286143573   11.538343205    8.459832893    8.635531460
    0.293322204   11.541438571    8.461901664    8.637752159
    0.300500835   11.544612618    8.464023020    8.640029313
    0.307679466   11.547865496    8.466197058    8.642363029
    0.314858097   11.551197356    8.468423880    8.644753417
    0.322036728   11.554608354    8.470703591    8.647200590
    0.329215359   11.558098649    8.473036297    8.649704662
    0.336393990   11.561668405    8.475422107    8.652265751
    0.343572621   11.565317790    8.477861134    8.654883979
    0.350751252   11.569046975    8.480353490    8.657559468
    0.357929883   11.572856135    8.482899295    8.660292345
    0.365108514   11.576745450    8.485498666    8.663082740
    0.372287145   11.580715103    8.488151728    8.665930785
    0.379465776   11.584765281    8.490858605    8.668836615
    0.386644407   11.588896177    8.493619425    8.671800369
    0.393823038   11.593107985    8.496434319    8.674822186
    0.401001669   11.597400904    8.499303420    8.677902211
    0.408180301   11.601775140    8.502226864    8.681040591
    0.415358932   11.606230899    8.505204791    8.684237476
    0.422537563   11.610768395    8.508237341    8.687493020
    0.429716194   11.615387842    8.511324661    8.690807377
    0.436894825   11.620089461    8.514466896    8.694180707
    0.444073456   11.624873478    8.517664198    8.697613172
    0.451252087   11.629740121    8.520916719    8.701104937
    0.458430718   11.634689623    8.524224616    8.704656171
    0.465609349   11.639722223    8.527588048    8.708267045
    0.472787980   11.644838162    8.531007177    8.711937734
    0.479966611   11.650037688    8.534482167    8.715668416
    0.487145242   11.655321049    8.538013188    8.719459271
    0.494323873   11.660688504    8.541600408    8.723310484
    0.501502504   11.666140310    8.545244004    8.727222242
    0.508681135   11.671676733    8.548944151    8.731194737
    0.515859766   11.677298041    8.552701030    8.735228162
    0.523038397   11.683004508    8.556514825    8.739322715
    0.530217028   11.688796413    8.560385721    8.743478596
    0.537395659   11.694674039    8.564313908    8.747696010
    0.544574290   11.700637672    8.568299579    8.751975165
    0.551752922   11.706687607    8.572342931    8.756316271
    0.558931553   11.712824139    8.576444162    8.760719543
    0.566110184   11.719047571    8.580603475    8.765185200
    0.573288815   11.725358209    8.584821075    8.769713461
    0.580467446   11.731756367    8.589097173    8.774304554
    0.587646077   11.738242360    8.593431980    8.778958706
    0.594824708   11.744816511    8.597825713    8.783676149
    0.602003339   11.751479146    8.602278590    8.788457120
    0.609181970   11.758230598    8.606790836    8.793301859
    0.616360601   11.765071203    8.611362675    8.798210608
    0.623539232   11.772001304    8.615994338    8.803183615
    0.630717863   11.779021248    8.620686059    8.808221131
    0.637896494   11.786131389    8.625438074    8.813323411
    0.645075125   11.793332084    8.630250625    8.818490712
    0.652253756   11.800623697    8.635123954    8.823723299
    0.659432387   11.808006597    8.640058312    8.829021436
    0.666611018   11.815481159    8.645053948    8.834385395
    0.673789649   11.823047762    8.650111119    8.839815450
    0.680968280   11.830706792    8.655230084    8.845311879
    0.688146912   11.838458640    8.660411107    8.850874964
    0.695325543   11.846303704    8.665654454    8.856504994
    0.702504174   11.854242385    8.670960397    8.862202257
    0.709682805   11.862275093    8.676329210    8.867967051
    0.716861436   11.870402241    8.681761172    8.873799672
    0.724040067   11.878624251    8.687256568    8.879700427
    0.731218698   11.886941548    8.692815683    8.885669621
    0.738397329   11.895354565    8.698438809    8.891707568
    0.745575960   11.903863739    8.704126242    8.897814584
    0.752754591   11.912469517    8.709878282    8.903990991
    0.759933222   11.921172348    8.715695232    8.910237114
    0.767111853   11.929972691    8.721577402    8.916553284
    0.774290484   11.938871007    8.727525104    8.922939836
    0.781469115   11.947867768    8.733538654    8.929397109
    0.788647746   11.956963451    8.739618376    8.935925447
    0.795826377   11.966158537    8.745764595    8.942525200
    0.803005008   11.975453518    8.751977642    8.949196723
    0.810183639   11.984848889    8.758257853    8.955940372
    0.817362270   11.994345154    8.764605568    8.962756513
    0.824540902   12.003942823    8.771021132    8.969645515
    0.831719533   12.013642414    8.777504894    8.976607751
    0.838898164   12.023444450    8.784057210    8.983643599
    0.846076795   12.033349463    8.790678439    8.990753445
    0.853255426   12.043357992    8.797368946    8.997937678
    0.860434057   12.053470582    8.804129100    9.005196692
    0.867612688   12.063687787    8.810959277    9.012530887
    0.874791319   12.074010167    8.817859855    9.019940669
    0.881969950   12.084438292    8.824831221    9.027426449
    0.889148581   12.094972736    8.831873765    9.034988643
    0.896327212   12.105614083    8.838987883    9.042627673
    0.903505843   12.116362925    8.846173976    9.050343967
    0.910684474   12.127219862    8.853432451    9.058137959
    0.917863105   12.138185500    8.860763721    9.066010088
    0.925041736   12.149260455    8.868168203    9.073960800
    0.932220367   12.160445352    8.875646323    9.081990544
    0.939398998   12.171740821    8.883198509    9.090099780
    0.946577629   12.183147504    8.890825196    9.098288970
    0.953756260   12.194666050    8.898526828    9.106558583
    0.960934891   12.206297117    8.906303851    9.114909097
    0.968113523   12.218041370    8.914156719    9.123340992
    0.975292154   12.229899486    8.922085892    9.131854758
    0.982470785   12.241872147    8.930091836    9.140450889
    0.989649416   12.253960049    8.938175024    9.149129889
    0.996828047   12.266163893    8.946335936    9.157892264
    1.004006678   12.278484392    8.954575056    9.166738531
    1.011185309   12.290922266    8.962892878    9.175669212
    1.018363940   12.303478246    8.971289900    9.184684835
    1.025542571   12.316153074    8.979766629    9.193785938
    1.032721202   12.328947500    8.988323577    9.202973062
    1.039899833   12.341862284    8.996961265    9.212246760
    1.047078464   12.354898196    9.005680219    9.221607589
    1.054257095   12.368056018    9.014480974    9.231056114
    1.061435726   12.381336541    9.023364073    9.240592908
    1.068614357   12.394740566    9.032330063    9.250218553
    1.075792988   12.408268905    9.041379502    9.259933635
    1.082971619   12.421922383    9.050512954    9.269738752
    1.090150250   12.435701832    9.059730993    9.279634508
    1.097328881   12.449608098    9.069034197    9.289621515
    1.104507513   12.463642038    9.078423155    9.299700394
    1.111686144   12.477804519    9.087898464    9.309871773
    1.118864775   12.492096422    9.097460729    9.320136291
    1.126043406   12.506518637    9.107110562    9.330494591
    1.133222037   12.521072067    9.116848585    9.340947331
    1.140400668   12.535757628    9.126675429    9.351495171
    1.147579299   12.550576247    9.136591733    9.362138786
    1.154757930   12.565528865    9.146598145    9.372878856
    1.161936561   12.580616434    9.156695322    9.383716072
    1.169115192   12.595839920    9.166883931    9.394651134
    1.176293823   12.611200301    9.177164647    9.405684752
    1.183472454   12.626698568    9.187538156    9.416817644
    1.190651085   12.642335727    9.198005154    9.428050539
    1.197829716   12.658112797    9.208566345    9.439384177
    1.205008347   12.674030810    9.219222444    9.450819305
    1.212186978   12.690090813    9.229974176    9.462356683
    1.219365609   12.706293866    9.240822278    9.473997081
    1.226544240   12.722641045    9.251767495    9.485741278
    1.233722871   12.739133440    9.262810583    9.497590066
    1.240901503   12.755772156    9.273952312    9.509544245
    1.248080134   12.772558312    9.285193461    9.521604629
    1.255258765   12.789493044    9.296534818    9.533772040
    1.262437396   12.806577502    9.307977183    9.546047315
    1.269616027   12.823812850    9.319521357    9.558431299
    1.276794658   12.841200259    9.331168126    9.570924847
    1.283973289   12.858740918    9.342918286    9.583528827
    1.291151920   12.876436071    9.354772790    9.596244130
    1.298330551   12.894286972    9.366732573    9.609071656
    1.305509182   12.912294856    9.378798461    9.622012309
    1.312687813   12.930460983    9.390971308    9.635067006
    1.319866444   12.948786634    9.403252004    9.648236680
    1.327045075   12.967273111    9.415641462    9.661522278
    1.334223706   12.985921737    9.428140607    9.674924758
    1.341402337   13.004733851    9.440750382    9.688445094
    1.348580968   13.023710812    9.453471741    9.702084274
    1.355759599   13.042853998    9.466305654    9.715843297
    1.362938230   13.062164807    9.479253104    9.729723181
    1.370116861   13.081644656    9.492315090    9.743724954
    1.377295492   13.101294983    9.505492626    9.757849661
    1.384474124   13.121117246    9.518786740    9.772098363
    1.391652755   13.141112924    9.532198477    9.786472134
    1.398831386   13.161283518    9.545728898    9.800972064
    1.406010017   13.181630549    9.559379079    9.815599262
    1.413188648   13.202155562    9.573150114    9.830354848
    1.420367279   13.222860122    9.587043114    9.845239961
    1.427545910   13.243745820    9.601059206    9.860255758
    1.434724541   13.264814265    9.615199535    9.875403408
    1.441903172   13.286067095    9.629465264    9.890684098
    1.449081803   13.307505968    9.643857574    9.906099040
    1.456260434   13.329132574    9.658377666    9.921649465
    1.463439065   13.350948620    9.673026759    9.937336615
    1.470617696   13.372955839    9.687806090    9.953161750
    1.477796327   13.395155993    9.702716918    9.969126149
    1.484974958   13.417550867    9.717760520    9.985231112
    1.492153589   13.440142275    9.732938196   10.001477960
    1.499332220   13.462932058    9.748251266   10.017868032
    1.506510851   13.485922084    9.763701070   10.034402688
    1.513689482   13.509114250    9.779288970   10.051083309
    1.520868114   13.532510481    9.795016354   10.067911296
    1.528046745   13.556112732    9.810884628   10.084888073
    1.535225376   13.579922987    9.826895223   10.102015085
    1.542404007   13.603943262    9.843049595   10.119293799
    1.549582638   13.628175602    9.859349222   10.136725705
    1.556761269   13.652622086    9.875795608   10.154312318
    1.563939900   13.677284823    9.892390283   10.172055173
    1.571118531   13.702165957    9.909134801   10.189955832
    1.578297162   13.727267663    9.926030744   10.208015881
    1.585475793   13.752592152    9.943079719   10.226236929
    1.592654424   13.778141668    9.960283362   10.244620614
    1.599833055   13.803918494    9.977643337   10.263168598
    1.607011686   13.829924946    9.995161337   10.281882568
    1.614190317   13.856163378   10.012839083   10.300764242
    1.621368948   13.882636182   10.030678327   10.319815362
    1.628547579   13.909345788   10.048680853   10.339037700
    1.635726210   13.936294664   10.066848474   10.358433058
    1.642904841   13.963485321   10.085183036   10.378003263
    1.650083472   13.990920304   10.103686418   10.397750173
    1.657262104   14.018602200   10.122360534   10.417675675
    1.664440735   14.046533649   10.141207330   10.437781692
    1.671619366   14.074717341   10.160228789   10.458070191
    1.678797997   14.103155999   10.179426930   10.478543156
    1.685976628   14.131852384   10.198803809   10.499202602
    1.693155259   14.160809309   10.218361517   10.520050581
    1.700333890   14.190029631   10.238102185   10.541089176
    1.707512521   14.219516248   10.258027975   10.562320497
    1.714691152   14.249272097   10.278141077   10.583746672
    1.721869783   14.279300199   10.298443757   10.605369916
    1.729048414   14.309603673   10.318938362   10.627192537
    1.736227045   14.340185627   10.339627225   10.649216800
    1.743405676   14.371049207   10.360512714   10.671444991
    1.750584307   14.402197627   10.381597252   10.693879452
    1.757762938   14.433634164   10.402883316   10.716522575
    1.764941569   14.465362153   10.424373430   10.739376797
    1.772120200   14.497384991   10.446070171   10.762444595
    1.779298831   14.529706132   10.467976165   10.785728496
    1.786477462   14.562329092   10.490094089   10.809231066
    1.793656093   14.595257452   10.512426677   10.832954922
    1.800834725   14.628494856   10.534976713   10.856902726
    1.808013356   14.662045013   10.557747042   10.881077188
    1.815191987   14.695911701   10.580740563   10.905481068
    1.822370618   14.730098767   10.603960237   10.930117177
    1.829549249   14.764610128   10.627409085   10.954988378
    1.836727880   14.799449774   10.651090190   10.980097586
    1.843906511   14.834621769   10.675006701   11.005447773
    1.851085142   14.870130254   10.699161831   11.031041964
    1.858263773   14.905979445   10.723558863   11.056883242
    1.865442404   14.942173643   10.748201149   11.082974750
    1.872621035   14.978717225   10.773092114   11.109319688
    1.879799666   15.015614657   10.798235255   11.135921321
    1.886978297   15.052870487   10.823634146   11.162782976
    1.894156928   15.090489354   10.849292442   11.189908042
    1.901335559   15.128475986   10.875213874   11.217299979
    1.908514190   15.166835205   10.901402259   11.244962311
    1.915692821   15.205571926   10.927861500   11.272898633
    1.922871452   15.244691164   10.954595586   11.301112611
    1.930050083   15.284198027   10.981608598   11.329607978
    1.937228715   15.324097718   11.008904710   11.358388525
    1.944407346   15.364395552   11.036488194   11.387458135
    1.951585977   15.405097003   11.064363416   11.416820843
    1.958764608   15.446207624   11.092534839   11.446480722
    1.965943239   15.487733052   11.121007010   11.476441878
    1.973121870   15.529679047   11.149784573   11.506708510
    1.980300501   15.572051512   11.178872410   11.537284945
    1.987479132   15.614856472   11.208275515   11.568175596
    1.994657763   15.658100051   11.237998881   11.599384940
    2.001836394   15.701788537   11.268047637   11.630917572
    2.009015025   15.745928386   11.298427060   11.662778213
    2.016193656   15.790526145   11.329142563   11.694971651
    2.023372287   15.835588493   11.360199691   11.727502774
    2.030550918   15.881122266   11.391604128   11.760376585
    2.037729549   15.927134463   11.423361743   11.793598200
    2.044908180   15.973632249   11.455478556   11.827172851
    2.052086811   16.020622938   11.487960706   11.861105889
    2.059265442   16.068114006   11.520814496   11.895402782
    2.066444073   16.116113102   11.554046400   11.930069126
    2.073622705   16.164628056   11.587663073   11.965110645
    2.080801336   16.213666875   11.621671345   12.000533194
    2.087979967   16.263237758   11.656078238   12.036342767
    2.095158598   16.313349093   11.690890961   12.072545497
    2.102337229   16.364009475   11.726116933   12.109147665
    2.109515860   16.415227704   11.761763779   12.146155700
    2.116694491   16.467012791   11.797839337   12.183576189
    2.123873122   16.519373966   11.834351669   12.221415874
    2.131051753   16.572320687   11.871309069   12.259681667
    2.138230384   16.625862647   11.908720077   12.298380650
    2.145409015   16.680009785   11.946593482   12.337520079
    2.152587646   16.734772289   11.984938337   12.377107396
    2.159766277   16.790160608   12.023763966   12.417150229
    2.166944908   16.846185461   12.063079977   12.457656405
    2.174123539   16.902857837   12.102896265   12.498633948
    2.181302170   16.960189002   12.143223020   12.540091096
    2.188480801   17.018190517   12.184070748   12.582036295
    2.195659432   17.076874334   12.225450352   12.624478209
    2.202838063   17.136252703   12.267373049   12.667425726
    2.210016694   17.196338148   12.309850393   12.710888027
    2.217195326   17.257143584   12.352894426   12.754874564
    2.224373957   17.318682271   12.396517508   12.799394986
    2.231552588   17.380967829   12.440732367   12.844459205
    2.238731219   17.444014275   12.485552185   12.890077424
    2.245909850   17.507836033   12.530990612   12.936260141
    2.253088481   17.572447949   12.577061770   12.983018149
    2.260267112   17.637865295   12.623780258   13.030362518
    2.267445743   17.704103790   12.671161166   13.078304596
    2.274624374   17.771179665   12.719220228   13.126856224
    2.281803005   17.839109673   12.767973809   13.176029665
    2.288981636   17.907911005   12.817438705   13.225837190
    2.296160267   17.977601378   12.867632383   13.276291644
    2.303338898   18.048199165   12.918573097   13.327406770
    2.310517529   18.119723328   12.970279691   13.379196319
    2.317696160   18.192193354   13.022771709   13.431674241
    2.324874791   18.265629354   13.076069490   13.484855034
    2.332053422   18.340052062   13.130194198   13.538753726
    2.339232053   18.415482923   13.185167857   13.593385857
    2.346410684   18.491944438   13.241013403   13.648767577
    2.353589316   18.569459810   13.297754727   13.704915562
    2.360767947   18.648052773   13.355416716   13.761846982
    2.367946578   18.727747945   13.414025326   13.819579618
    2.375125209   18.808570888   13.473607640   13.878131886
    2.382303840   18.890548120   13.534191932   13.937522865
    2.389482471   18.973707144   13.595807736   13.997772322
    2.396661102   19.058076502   13.658485921   14.058900746
    2.403839733   19.143685828   13.722258809   14.120929402
    2.411018364   19.230565894   13.787160251   14.183880362
    2.418196995   19.318748634   13.853225667   14.247776529
    2.425375626   19.408267103   13.920492065   14.312641668
    2.432554257   19.499155681   13.988998059   14.378500446
    2.439732888   19.591450855   14.058783849   14.445378418
    2.446911519   19.685190538   14.129891983   14.513302235
    2.454090150   19.780414052   14.202369798   14.582300310
    2.461268781   19.877162281   14.276265807   14.652401933
    2.468447412   19.975477643   14.351629102   14.723637111
    2.475626043   20.075404417   14.428511932   14.796037169
    2.482804674   20.176989141   14.506969872   14.869634986
    2.489983306   20.280281456   14.587061784   14.944465527
    2.497161937   20.385332868   14.668849911   15.020565127
    2.504340568   20.492196792   14.752400108   15.097971390
    2.511519199   20.600929632   14.837782157   15.176723809
    2.518697830   20.711590683   14.925070068   15.256863889
    2.525876461   20.824242246   15.014342416   15.338435212
    2.533055092   20.938949947   15.105682723   15.421483543
    2.540233723   21.055782925   15.199179867   15.506056926
