# energy grid [eV]     ieps_x  ieps_y  ieps_z
#
    0.200000000    7.164104997    4.852897124    5.130168541
    0.207178631    7.162797971    4.852086327    5.129272396
    0.214357262    7.161445462    4.851247327    5.128345077
    0.221535893    7.160047534    4.850380165    5.127386627
    0.228714524    7.158604250    4.849484880    5.126397092
    0.235893155    7.157115678    4.848561517    5.125376518
    0.243071786    7.155581885    4.847610117    5.124324954
    0.250250417    7.154002942    4.846630727    5.123242449
    0.257429048    7.152378921    4.845623393    5.122129054
    0.264607679    7.150709897    4.844588162    5.120984821
    0.271786311    7.148995947    4.843525084    5.119809803
    0.278964942    7.147237149    4.842434207    5.118604056
    0.286143573    7.145433583    4.841315584    5.117367637
    0.293322204    7.143585332    4.840169268    5.116100603
    0.300500835    7.141692481    4.838995311    5.114803013
    0.307679466    7.139755115    4.837793770    5.113474929
    0.314858097    7.137773322    4.836564700    5.112116411
    0.322036728    7.135747194    4.835308159    5.110727523
    0.329215359    7.133676822    4.834024206    5.109308331
    0.336393990    7.131562299    4.832712901    5.107858899
    0.343572621    7.129403723    4.831374305    5.106379295
    0.350751252    7.127201191    4.830008480    5.104869588
    0.357929883    7.124954803    4.828615491    5.103329848
    0.365108514    7.122664659    4.827195401    5.101760146
    0.372287145    7.120330864    4.825748277    5.100160554
    0.379465776    7.117953523    4.824274185    5.098531147
    0.386644407    7.115532743    4.822773195    5.096871999
    0.393823038    7.113068632    4.821245375    5.095183186
    0.401001669    7.110561302    4.819690795    5.093464788
    0.408180301    7.108010864    4.818109529    5.091716881
    0.415358932    7.105417434    4.816501647    5.089939547
    0.422537563    7.102781126    4.814867225    5.088132866
    0.429716194    7.100102060    4.813206337    5.086296922
    0.436894825    7.097380353    4.811519059    5.084431798
    0.444073456    7.094616128    4.809805468    5.082537579
    0.451252087    7.091809508    4.808065644    5.080614352
    0.458430718    7.088960616    4.806299664    5.078662203
    0.465609349    7.086069580    4.804507609    5.076681221
    0.472787980    7.083136527    4.802689562    5.074671496
    0.479966611    7.080161587    4.800845603    5.072633119
    0.487145242    7.077144892    4.798975817    5.070566182
    0.494323873    7.074086573    4.797080289    5.068470777
    0.501502504    7.070986766    4.795159103    5.066347000
    0.508681135    7.067845607    4.793212346    5.064194945
    0.515859766    7.064663232    4.791240106    5.062014710
    0.523038397    7.061439783    4.789242471    5.059806391
    0.530217028    7.058175398    4.787219531    5.057570087
    0.537395659    7.054870222    4.785171375    5.055305898
    0.544574290    7.051524396    4.783098096    5.053013925
    0.551752922    7.048138068    4.780999786    5.050694269
    0.558931553    7.044711383    4.778876537    5.048347034
    0.566110184    7.041244490    4.776728444    5.045972323
    0.573288815    7.037737538    4.774555602    5.043570241
    0.580467446    7.034190680    4.772358108    5.041140894
    0.587646077    7.030604067    4.770136056    5.038684389
    0.594824708    7.026977853    4.767889546    5.036200834
    0.602003339    7.023312194    4.765618677    5.033690337
    0.609181970    7.019607246    4.763323546    5.031153009
    0.616360601    7.015863168    4.761004255    5.028588960
    0.623539232    7.012080120    4.758660904    5.025998301
    0.630717863    7.008258261    4.756293596    5.023381145
    0.637896494    7.004397755    4.753902433    5.020737607
    0.645075125    7.000498764    4.751487518    5.018067799
    0.652253756    6.996561453    4.749048957    5.015371837
    0.659432387    6.992585988    4.746586853    5.012649838
    0.666611018    6.988572536    4.744101313    5.009901918
    0.673789649    6.984521265    4.741592443    5.007128196
    0.680968280    6.980432346    4.739060350    5.004328789
    0.688146912    6.976305949    4.736505143    5.001503817
    0.695325543    6.972142245    4.733926930    4.998653401
    0.702504174    6.967941409    4.731325821    4.995777662
    0.709682805    6.963703613    4.728701925    4.992876721
    0.716861436    6.959429034    4.726055354    4.989950701
    0.724040067    6.955117848    4.723386219    4.986999725
    0.731218698    6.950770232    4.720694632    4.984023918
    0.738397329    6.946386365    4.717980705    4.981023405
    0.745575960    6.941966427    4.715244553    4.977998310
    0.752754591    6.937510597    4.712486290    4.974948761
    0.759933222    6.933019059    4.709706029    4.971874884
    0.767111853    6.928491994    4.706903886    4.968776807
    0.774290484    6.923929587    4.704079977    4.965654658
    0.781469115    6.919332021    4.701234418    4.962508566
    0.788647746    6.914699482    4.698367326    4.959338661
    0.795826377    6.910032157    4.695478820    4.956145073
    0.803005008    6.905330233    4.692569016    4.952927933
    0.810183639    6.900593898    4.689638033    4.949687373
    0.817362270    6.895823342    4.686685991    4.946423524
    0.824540902    6.891018753    4.683713009    4.943136519
    0.831719533    6.886180324    4.680719207    4.939826491
    0.838898164    6.881308246    4.677704705    4.936493575
    0.846076795    6.876402710    4.674669626    4.933137904
    0.853255426    6.871463911    4.671614089    4.929759614
    0.860434057    6.866492042    4.668538218    4.926358839
    0.867612688    6.861487298    4.665442134    4.922935716
    0.874791319    6.856449874    4.662325961    4.919490381
    0.881969950    6.851379966    4.659189821    4.916022971
    0.889148581    6.846277772    4.656033838    4.912533623
    0.896327212    6.841143488    4.652858137    4.909022474
    0.903505843    6.835977312    4.649662841    4.905489664
    0.910684474    6.830779444    4.646448075    4.901935330
    0.917863105    6.825550083    4.643213965    4.898359613
    0.925041736    6.820289428    4.639960636    4.894762650
    0.932220367    6.814997681    4.636688213    4.891144582
    0.939398998    6.809675042    4.633396823    4.887505550
    0.946577629    6.804321714    4.630086592    4.883845694
    0.953756260    6.798937897    4.626757647    4.880165154
    0.960934891    6.793523796    4.623410115    4.876464073
    0.968113523    6.788079613    4.620044123    4.872742591
    0.975292154    6.782605551    4.616659798    4.869000851
    0.982470785    6.777101816    4.613257270    4.865238994
    0.989649416    6.771568611    4.609836664    4.861457165
    0.996828047    6.766006142    4.606398111    4.857655504
    1.004006678    6.760414614    4.602941737    4.853834156
    1.011185309    6.754794232    4.599467673    4.849993263
    1.018363940    6.749145204    4.595976046    4.846132969
    1.025542571    6.743467736    4.592466987    4.842253419
    1.032721202    6.737762034    4.588940624    4.838354756
    1.039899833    6.732028305    4.585397086    4.834437123
    1.047078464    6.726266758    4.581836504    4.830500667
    1.054257095    6.720477600    4.578259006    4.826545531
    1.061435726    6.714661040    4.574664724    4.822571861
    1.068614357    6.708817284    4.571053786    4.818579800
    1.075792988    6.702946543    4.567426324    4.814569495
    1.082971619    6.697049025    4.563782466    4.810541090
    1.090150250    6.691124939    4.560122345    4.806494731
    1.097328881    6.685174495    4.556446089    4.802430564
    1.104507513    6.679197901    4.552753830    4.798348733
    1.111686144    6.673195367    4.549045697    4.794249386
    1.118864775    6.667167104    4.545321823    4.790132667
    1.126043406    6.661113320    4.541582336    4.785998722
    1.133222037    6.655034226    4.537827369    4.781847698
    1.140400668    6.648930032    4.534057051    4.777679739
    1.147579299    6.642800948    4.530271513    4.773494994
    1.154757930    6.636647185    4.526470887    4.769293606
    1.161936561    6.630468952    4.522655303    4.765075723
    1.169115192    6.624266461    4.518824891    4.760841490
    1.176293823    6.618039920    4.514979782    4.756591054
    1.183472454    6.611789541    4.511120108    4.752324561
    1.190651085    6.605515535    4.507245998    4.748042156
    1.197829716    6.599218111    4.503357583    4.743743985
    1.205008347    6.592897479    4.499454994    4.739430196
    1.212186978    6.586553851    4.495538361    4.735100932
    1.219365609    6.580187436    4.491607814    4.730756341
    1.226544240    6.573798444    4.487663485    4.726396569
    1.233722871    6.567387085    4.483705502    4.722021759
    1.240901503    6.560953570    4.479733997    4.717632059
    1.248080134    6.554498108    4.475749099    4.713227614
    1.255258765    6.548020909    4.471750938    4.708808569
    1.262437396    6.541522182    4.467739643    4.704375070
    1.269616027    6.535002136    4.463715345    4.699927261
    1.276794658    6.528460982    4.459678173    4.695465288
    1.283973289    6.521898928    4.455628256    4.690989295
    1.291151920    6.515316182    4.451565724    4.686499426
    1.298330551    6.508712954    4.447490705    4.681995828
    1.305509182    6.502089451    4.443403328    4.677478643
    1.312687813    6.495445882    4.439303722    4.672948016
    1.319866444    6.488782456    4.435192015    4.668404091
    1.327045075    6.482099378    4.431068336    4.663847012
    1.334223706    6.475396858    4.426932812    4.659276922
    1.341402337    6.468675101    4.422785572    4.654693964
    1.348580968    6.461934315    4.418626743    4.650098282
    1.355759599    6.455174706    4.414456452    4.645490018
    1.362938230    6.448396480    4.410274827    4.640869315
    1.370116861    6.441599843    4.406081994    4.636236315
    1.377295492    6.434785001    4.401878081    4.631591161
    1.384474124    6.427952158    4.397663213    4.626933994
    1.391652755    6.421101520    4.393437517    4.622264955
    1.398831386    6.414233291    4.389201118    4.617584187
    1.406010017    6.407347674    4.384954143    4.612891829
    1.413188648    6.400444873    4.380696716    4.608188023
    1.420367279    6.393525092    4.376428963    4.603472908
    1.427545910    6.386588533    4.372151008    4.598746626
    1.434724541    6.379635398    4.367862976    4.594009315
    1.441903172    6.372665889    4.363564990    4.589261115
    1.449081803    6.365680208    4.359257176    4.584502165
    1.456260434    6.358678556    4.354939655    4.579732604
    1.463439065    6.351661133    4.350612552    4.574952569
    1.470617696    6.344628138    4.346275989    4.570162200
    1.477796327    6.337579772    4.341930089    4.565361633
    1.484974958    6.330516234    4.337574974    4.560551006
    1.492153589    6.323437721    4.333210766    4.555730456
    1.499332220    6.316344432    4.328837585    4.550900118
    1.506510851    6.309236564    4.324455554    4.546060130
    1.513689482    6.302114315    4.320064793    4.541210627
    1.520868114    6.294977879    4.315665423    4.536351745
    1.528046745    6.287827454    4.311257563    4.531483617
    1.535225376    6.280663234    4.306841333    4.526606379
    1.542404007    6.273485414    4.302416852    4.521720165
    1.549582638    6.266294188    4.297984239    4.516825108
    1.556761269    6.259089749    4.293543613    4.511921341
    1.563939900    6.251872291    4.289095092    4.507008997
    1.571118531    6.244642005    4.284638792    4.502088209
    1.578297162    6.237399082    4.280174833    4.497159109
    1.585475793    6.230143715    4.275703329    4.492221827
    1.592654424    6.222876093    4.271224399    4.487276494
    1.599833055    6.215596406    4.266738157    4.482323242
    1.607011686    6.208304843    4.262244720    4.477362201
    1.614190317    6.201001593    4.257744202    4.472393499
    1.621368948    6.193686843    4.253236719    4.467417265
    1.628547579    6.186360780    4.248722383    4.462433629
    1.635726210    6.179023590    4.244201311    4.457442719
    1.642904841    6.171675460    4.239673614    4.452444661
    1.650083472    6.164316575    4.235139405    4.447439584
    1.657262104    6.156947118    4.230598798    4.442427613
    1.664440735    6.149567274    4.226051904    4.437408876
    1.671619366    6.142177225    4.221498835    4.432383496
    1.678797997    6.134777153    4.216939701    4.427351600
    1.685976628    6.127367240    4.212374615    4.422313313
    1.693155259    6.119947668    4.207803685    4.417268757
    1.700333890    6.112518614    4.203227021    4.412218056
    1.707512521    6.105080260    4.198644733    4.407161335
    1.714691152    6.097632784    4.194056929    4.402098714
    1.721869783    6.090176363    4.189463719    4.397030316
    1.729048414    6.082711174    4.184865208    4.391956262
    1.736227045    6.075237395    4.180261506    4.386876673
    1.743405676    6.067755199    4.175652718    4.381791670
    1.750584307    6.060264763    4.171038951    4.376701371
    1.757762938    6.052766259    4.166420311    4.371605897
    1.764941569    6.045259862    4.161796903    4.366505365
    1.772120200    6.037745744    4.157168831    4.361399894
    1.779298831    6.030224076    4.152536202    4.356289602
    1.786477462    6.022695029    4.147899117    4.351174605
    1.793656093    6.015158773    4.143257681    4.346055019
    1.800834725    6.007615478    4.138611996    4.340930961
    1.808013356    6.000065311    4.133962164    4.335802545
    1.815191987    5.992508441    4.129308288    4.330669886
    1.822370618    5.984945035    4.124650469    4.325533099
    1.829549249    5.977375258    4.119988807    4.320392296
    1.836727880    5.969799276    4.115323403    4.315247591
    1.843906511    5.962217252    4.110654356    4.310099096
    1.851085142    5.954629352    4.105981766    4.304946923
    1.858263773    5.947035736    4.101305731    4.299791182
    1.865442404    5.939436568    4.096626349    4.294631984
    1.872621035    5.931832008    4.091943719    4.289469440
    1.879799666    5.924222216    4.087257937    4.284303659
    1.886978297    5.916607353    4.082569099    4.279134748
    1.894156928    5.908987576    4.077877303    4.273962817
    1.901335559    5.901363043    4.073182643    4.268787974
    1.908514190    5.893733911    4.068485214    4.263610324
    1.915692821    5.886100335    4.063785111    4.258429974
    1.922871452    5.878462473    4.059082428    4.253247031
    1.930050083    5.870820476    4.054377258    4.248061599
    1.937228715    5.863174499    4.049669694    4.242873783
    1.944407346    5.855524695    4.044959829    4.237683686
    1.951585977    5.847871215    4.040247753    4.232491412
    1.958764608    5.840214211    4.035533559    4.227297064
    1.965943239    5.832553831    4.030817337    4.222100744
    1.973121870    5.824890225    4.026099177    4.216902553
    1.980300501    5.817223542    4.021379168    4.211702593
    1.987479132    5.809553929    4.016657401    4.206500963
    1.994657763    5.801881532    4.011933964    4.201297762
    2.001836394    5.794206497    4.007208943    4.196093091
    2.009015025    5.786528969    4.002482428    4.190887048
    2.016193656    5.778849092    3.997754504    4.185679729
    2.023372287    5.771167009    3.993025259    4.180471233
    2.030550918    5.763482862    3.988294778    4.175261657
    2.037729549    5.755796792    3.983563146    4.170051095
    2.044908180    5.748108939    3.978830448    4.164839643
    2.052086811    5.740419444    3.974096769    4.159627397
    2.059265442    5.732728445    3.969362191    4.154414449
    2.066444073    5.725036080    3.964626799    4.149200894
    2.073622705    5.717342485    3.959890674    4.143986825
    2.080801336    5.709647797    3.955153899    4.138772333
    2.087979967    5.701952150    3.950416555    4.133557511
    2.095158598    5.694255680    3.945678723    4.128342448
    2.102337229    5.686558519    3.940940484    4.123127237
    2.109515860    5.678860800    3.936201917    4.117911965
    2.116694491    5.671162655    3.931463102    4.112696724
    2.123873122    5.663464214    3.926724118    4.107481600
    2.131051753    5.655765607    3.921985042    4.102266682
    2.138230384    5.648066964    3.917245953    4.097052058
    2.145409015    5.640368412    3.912506927    4.091837814
    2.152587646    5.632670078    3.907768041    4.086624035
    2.159766277    5.624972090    3.903029372    4.081410808
    2.166944908    5.617274572    3.898290995    4.076198217
    2.174123539    5.609577649    3.893552985    4.070986347
    2.181302170    5.601881445    3.888815416    4.065775281
    2.188480801    5.594186082    3.884078362    4.060565102
    2.195659432    5.586491684    3.879341897    4.055355892
    2.202838063    5.578798370    3.874606094    4.050147734
    2.210016694    5.571106261    3.869871024    4.044940708
    2.217195326    5.563415476    3.865136760    4.039734895
    2.224373957    5.555726135    3.860403374    4.034530375
    2.231552588    5.548038354    3.855670935    4.029327226
    2.238731219    5.540352250    3.850939513    4.024125529
    2.245909850    5.532667940    3.846209180    4.018925361
    2.253088481    5.524985538    3.841480003    4.013726800
    2.260267112    5.517305159    3.836752052    4.008529921
    2.267445743    5.509626915    3.832025394    4.003334803
    2.274624374    5.501950920    3.827300097    3.998141520
    2.281803005    5.494277284    3.822576229    3.992950148
    2.288981636    5.486606119    3.817853855    3.987760760
    2.296160267    5.478937535    3.813133042    3.982573432
    2.303338898    5.471271640    3.808413855    3.977388236
    2.310517529    5.463608543    3.803696359    3.972205245
    2.317696160    5.455948351    3.798980619    3.967024531
    2.324874791    5.448291170    3.794266698    3.961846166
    2.332053422    5.440637107    3.789554661    3.956670220
    2.339232053    5.432986265    3.784844569    3.951496765
    2.346410684    5.425338750    3.780136486    3.946325869
    2.353589316    5.417694663    3.775430473    3.941157602
    2.360767947    5.410054108    3.770726591    3.935992033
    2.367946578    5.402417185    3.766024902    3.930829229
    2.375125209    5.394783995    3.761325466    3.925669258
    2.382303840    5.387154639    3.756628343    3.920512187
    2.389482471    5.379529215    3.751933591    3.915358083
    2.396661102    5.371907820    3.747241271    3.910207010
    2.403839733    5.364290553    3.742551440    3.905059034
    2.411018364    5.356677510    3.737864156    3.899914220
    2.418196995    5.349068787    3.733179477    3.894772631
    2.425375626    5.341464477    3.728497459    3.889634332
    2.432554257    5.333864676    3.723818159    3.884499384
    2.439732888    5.326269477    3.719141633    3.879367850
    2.446911519    5.318678971    3.714467936    3.874239792
    2.454090150    5.311093251    3.709797123    3.869115272
    2.461268781    5.303512407    3.705129249    3.863994348
    2.468447412    5.295936529    3.700464367    3.858877083
    2.475626043    5.288365706    3.695802531    3.853763535
    2.482804674    5.280800027    3.691143794    3.848653763
    2.489983306    5.273239579    3.686488208    3.843547826
    2.497161937    5.265684450    3.681835826    3.838445781
    2.504340568    5.258134724    3.677186698    3.833347686
    2.511519199    5.250590488    3.672540877    3.828253597
    2.518697830    5.243051825    3.667898413    3.823163571
    2.525876461    5.235518819    3.663259355    3.818077663
    2.533055092    5.227991554    3.658623754    3.812995929
    2.540233723    5.220470111    3.653991659    3.807918424
