# energy grid [eV]     epsr_x  epsr_y  epsr_z
#
    0.200000000    6.569054638    9.268955359   11.478552139
    0.207178631    6.570105784    9.270683810   11.480667148
    0.214357262    6.571194451    9.272474041   11.482857684
    0.221535893    6.572320687    9.274326141   11.485123847
    0.228714524    6.573484541    9.276240200   11.487465739
    0.235893155    6.574686065    9.278216311   11.489883469
    0.243071786    6.575925312    9.280254572   11.492377144
    0.250250417    6.577202337    9.282355083   11.494946881
    0.257429048    6.578517195    9.284517946   11.497592794
    0.264607679    6.579869945    9.286743268   11.500315007
    0.271786311    6.581260646    9.289031158   11.503113642
    0.278964942    6.582689361    9.291381730   11.505988828
    0.286143573    6.584156152    9.293795098   11.508940697
    0.293322204    6.585661086    9.296271382   11.511969384
    0.300500835    6.587204227    9.298810705   11.515075028
    0.307679466    6.588785646    9.301413191   11.518257772
    0.314858097    6.590405411    9.304078970   11.521517762
    0.322036728    6.592063597    9.306808173   11.524855148
    0.329215359    6.593760276    9.309600937   11.528270084
    0.336393990    6.595495524    9.312457400   11.531762727
    0.343572621    6.597269418    9.315377704   11.535333239
    0.350751252    6.599082039    9.318361994   11.538981785
    0.357929883    6.600933467    9.321410420   11.542708534
    0.365108514    6.602823785    9.324523133   11.546513658
    0.372287145    6.604753078    9.327700290   11.550397335
    0.379465776    6.606721433    9.330942049   11.554359744
    0.386644407    6.608728938    9.334248573   11.558401069
    0.393823038    6.610775685    9.337620028   11.562521501
    0.401001669    6.612861765    9.341056585   11.566721229
    0.408180301    6.614987272    9.344558415   11.571000451
    0.415358932    6.617152303    9.348125695   11.575359367
    0.422537563    6.619356956    9.351758607   11.579798180
    0.429716194    6.621601331    9.355457333   11.584317100
    0.436894825    6.623885529    9.359222061   11.588916338
    0.444073456    6.626209656    9.363052983   11.593596111
    0.451252087    6.628573817    9.366950294   11.598356639
    0.458430718    6.630978119    9.370914191   11.603198147
    0.465609349    6.633422673    9.374944878   11.608120864
    0.472787980    6.635907591    9.379042560   11.613125023
    0.479966611    6.638432987    9.383207448   11.618210860
    0.487145242    6.640998977    9.387439755   11.623378618
    0.494323873    6.643605679    9.391739699   11.628628543
    0.501502504    6.646253212    9.396107501   11.633960884
    0.508681135    6.648941701    9.400543387   11.639375896
    0.515859766    6.651671268    9.405047586   11.644873838
    0.523038397    6.654442040    9.409620332   11.650454973
    0.530217028    6.657254146    9.414261862   11.656119569
    0.537395659    6.660107718    9.418972417   11.661867899
    0.544574290    6.663002887    9.423752244   11.667700239
    0.551752922    6.665939789    9.428601591   11.673616870
    0.558931553    6.668918562    9.433520714   11.679618080
    0.566110184    6.671939345    9.438509869   11.685704157
    0.573288815    6.675002280    9.443569320   11.691875398
    0.580467446    6.678107511    9.448699333   11.698132103
    0.587646077    6.681255184    9.453900178   11.704474576
    0.594824708    6.684445449    9.459172132   11.710903128
    0.602003339    6.687678456    9.464515474   11.717418072
    0.609181970    6.690954359    9.469930488   11.724019728
    0.616360601    6.694273314    9.475417463   11.730708420
    0.623539232    6.697635478    9.480976692   11.737484478
    0.630717863    6.701041013    9.486608474   11.744348236
    0.637896494    6.704490080    9.492313109   11.751300033
    0.645075125    6.707982847    9.498090906   11.758340213
    0.652253756    6.711519480    9.503942176   11.765469127
    0.659432387    6.715100151    9.509867236   11.772687128
    0.666611018    6.718725031    9.515866407   11.779994578
    0.673789649    6.722394297    9.521940016   11.787391841
    0.680968280    6.726108126    9.528088393   11.794879289
    0.688146912    6.729866700    9.534311875   11.802457297
    0.695325543    6.733670201    9.540610804   11.810126246
    0.702504174    6.737518815    9.546985524   11.817886525
    0.709682805    6.741412732    9.553436389   11.825738525
    0.716861436    6.745352142    9.559963753   11.833682646
    0.724040067    6.749337239    9.566567980   11.841719290
    0.731218698    6.753368220    9.573249436   11.849848869
    0.738397329    6.757445285    9.580008494   11.858071796
    0.745575960    6.761568635    9.586845532   11.866388494
    0.752754591    6.765738477    9.593760932   11.874799390
    0.759933222    6.769955018    9.600755085   11.883304918
    0.767111853    6.774218469    9.607828384   11.891905515
    0.774290484    6.778529044    9.614981230   11.900601629
    0.781469115    6.782886960    9.622214029   11.909393710
    0.788647746    6.787292437    9.629527192   11.918282216
    0.795826377    6.791745697    9.636921138   11.927267612
    0.803005008    6.796246966    9.644396289   11.936350367
    0.810183639    6.800796474    9.651953076   11.945530960
    0.817362270    6.805394453    9.659591934   11.954809873
    0.824540902    6.810041138    9.667313306   11.964187596
    0.831719533    6.814736766    9.675117639   11.973664626
    0.838898164    6.819481581    9.683005387   11.983241467
    0.846076795    6.824275827    9.690977012   11.992918628
    0.853255426    6.829119753    9.699032981   12.002696627
    0.860434057    6.834013609    9.707173768   12.012575988
    0.867612688    6.838957652    9.715399854   12.022557242
    0.874791319    6.843952139    9.723711725   12.032640928
    0.881969950    6.848997332    9.732109876   12.042827591
    0.889148581    6.854093497    9.740594808   12.053117783
    0.896327212    6.859240902    9.749167028   12.063512065
    0.903505843    6.864439821    9.757827053   12.074011005
    0.910684474    6.869690529    9.766575404   12.084615177
    0.917863105    6.874993307    9.775412611   12.095325166
    0.925041736    6.880348437    9.784339210   12.106141560
    0.932220367    6.885756208    9.793355746   12.117064960
    0.939398998    6.891216909    9.802462771   12.128095970
    0.946577629    6.896730837    9.811660845   12.139235207
    0.953756260    6.902298290    9.820950535   12.150483291
    0.960934891    6.907919571    9.830332416   12.161840855
    0.968113523    6.913594987    9.839807071   12.173308537
    0.975292154    6.919324848    9.849375093   12.184886985
    0.982470785    6.925109471    9.859037080   12.196576855
    0.989649416    6.930949173    9.868793640   12.208378812
    0.996828047    6.936844279    9.878645390   12.220293530
    1.004006678    6.942795115    9.888592955   12.232321691
    1.011185309    6.948802015    9.898636969   12.244463987
    1.018363940    6.954865314    9.908778073   12.256721118
    1.025542571    6.960985353    9.919016919   12.269093794
    1.032721202    6.967162478    9.929354168   12.281582735
    1.039899833    6.973397038    9.939790490   12.294188669
    1.047078464    6.979689388    9.950326563   12.306912335
    1.054257095    6.986039887    9.960963075   12.319754481
    1.061435726    6.992448899    9.971700726   12.332715865
    1.068614357    6.998916793    9.982540223   12.345797254
    1.075792988    7.005443941    9.993482283   12.358999428
    1.082971619    7.012030724   10.004527634   12.372323174
    1.090150250    7.018677524   10.015677016   12.385769291
    1.097328881    7.025384731   10.026931175   12.399338589
    1.104507513    7.032152737   10.038290871   12.413031889
    1.111686144    7.038981941   10.049756873   12.426850020
    1.118864775    7.045872749   10.061329963   12.440793825
    1.126043406    7.052825570   10.073010931   12.454864158
    1.133222037    7.059840819   10.084800580   12.469061883
    1.140400668    7.066918917   10.096699725   12.483387877
    1.147579299    7.074060290   10.108709190   12.497843026
    1.154757930    7.081265369   10.120829813   12.512428230
    1.161936561    7.088534594   10.133062444   12.527144402
    1.169115192    7.095868406   10.145407944   12.541992464
    1.176293823    7.103267257   10.157867186   12.556973354
    1.183472454    7.110731601   10.170441056   12.572088019
    1.190651085    7.118261900   10.183130455   12.587337421
    1.197829716    7.125858623   10.195936292   12.602722535
    1.205008347    7.133522243   10.208859494   12.618244347
    1.212186978    7.141253241   10.221900998   12.633903859
    1.219365609    7.149052104   10.235061756   12.649702085
    1.226544240    7.156919326   10.248342735   12.665640052
    1.233722871    7.164855407   10.261744913   12.681718803
    1.240901503    7.172860856   10.275269285   12.697939394
    1.248080134    7.180936185   10.288916859   12.714302894
    1.255258765    7.189081916   10.302688658   12.730810389
    1.262437396    7.197298577   10.316585722   12.747462978
    1.269616027    7.205586705   10.330609102   12.764261777
    1.276794658    7.213946841   10.344759869   12.781207914
    1.283973289    7.222379537   10.359039107   12.798302535
    1.291151920    7.230885349   10.373447915   12.815546803
    1.298330551    7.239464845   10.387987403   12.832941892
    1.305509182    7.248118597   10.402658684   12.850488998
    1.312687813    7.256847187   10.417462908   12.868189330
    1.319866444    7.265651204   10.432401297   12.886044115
    1.327045075    7.274531247   10.447475043   12.904054596
    1.334223706    7.283487922   10.462685328   12.922222035
    1.341402337    7.292521843   10.478033365   12.940547710
    1.348580968    7.301633634   10.493520392   12.959032918
    1.355759599    7.310823926   10.509147667   12.977678973
    1.362938230    7.320093362   10.524916470   12.996487209
    1.370116861    7.329442590   10.540828096   13.015458978
    1.377295492    7.338872272   10.556883866   13.034595651
    1.384474124    7.348383074   10.573085116   13.053898618
    1.391652755    7.357975677   10.589433205   13.073369291
    1.398831386    7.367650768   10.605929514   13.093009099
    1.406010017    7.377409045   10.622575443   13.112819494
    1.413188648    7.387251217   10.639372415   13.132801947
    1.420367279    7.397178001   10.656321875   13.152957951
    1.427545910    7.407190123   10.673425292   13.173289017
    1.434724541    7.417288309   10.690684154   13.193796669
    1.441903172    7.427473283   10.708099974   13.214482444
    1.449081803    7.437745831   10.725674293   13.235347944
    1.456260434    7.448106782   10.743408682   13.256394823
    1.463439065    7.458556907   10.761304727   13.277624699
    1.470617696    7.469096980   10.779364040   13.299039203
    1.477796327    7.479727801   10.797588260   13.320640006
    1.484974958    7.490450188   10.815979053   13.342428807
    1.492153589    7.501264972   10.834538114   13.364407331
    1.499332220    7.512172997   10.853267163   13.386577331
    1.506510851    7.523175120   10.872167951   13.408940583
    1.513689482    7.534272209   10.891242255   13.431498893
    1.520868114    7.545465149   10.910491883   13.454254091
    1.528046745    7.556754834   10.929918674   13.477208036
    1.535225376    7.568142174   10.949524495   13.500362616
    1.542404007    7.579628093   10.969311246   13.523719745
    1.549582638    7.591213529   10.989280860   13.547281369
    1.556761269    7.602899433   11.009435299   13.571049462
    1.563939900    7.614686773   11.029776562   13.595026029
    1.571118531    7.626576531   11.050306680   13.619213105
    1.578297162    7.638569704   11.071027720   13.643612757
    1.585475793    7.650667305   11.091941783   13.668227085
    1.592654424    7.662870362   11.113051008   13.693058220
    1.599833055    7.675179922   11.134357570   13.718108328
    1.607011686    7.687597045   11.155863681   13.743379607
    1.614190317    7.700122811   11.177571595   13.768874292
    1.621368948    7.712758316   11.199483602   13.794594652
    1.628547579    7.725504672   11.221602034   13.820542991
    1.635726210    7.738363012   11.243929265   13.846721652
    1.642904841    7.751334485   11.266467711   13.873133015
    1.650083472    7.764420261   11.289219830   13.899779496
    1.657262104    7.777621526   11.312188127   13.926663554
    1.664440735    7.790939489   11.335375150   13.953787684
    1.671619366    7.804375376   11.358783494   13.981154424
    1.678797997    7.817930435   11.382415802   14.008766353
    1.685976628    7.831605934   11.406274766   14.036626092
    1.693155259    7.845403164   11.430363127   14.064736306
    1.700333890    7.859323435   11.454683676   14.093099704
    1.707512521    7.873368080   11.479239258   14.121719039
    1.714691152    7.887538457   11.504032771   14.150597111
    1.721869783    7.901835944   11.529067167   14.179736768
    1.729048414    7.916261943   11.554345456   14.209140905
    1.736227045    7.930817883   11.579870702   14.238812465
    1.743405676    7.945505215   11.605646031   14.268754444
    1.750584307    7.960325417   11.631674628   14.298969887
    1.757762938    7.975279990   11.657959741   14.329461892
    1.764941569    7.990370465   11.684504680   14.360233612
    1.772120200    8.005598398   11.711312820   14.391288253
    1.779298831    8.020965373   11.738387605   14.422629078
    1.786477462    8.036473002   11.765732545   14.454259407
    1.793656093    8.052122927   11.793351221   14.486182619
    1.800834725    8.067916819   11.821247287   14.518402151
    1.808013356    8.083856380   11.849424470   14.550921505
    1.815191987    8.099943340   11.877886573   14.583744243
    1.822370618    8.116179466   11.906637474   14.616873992
    1.829549249    8.132566554   11.935681130   14.650314440
    1.836727880    8.149106433   11.965021561   14.684069337
    1.843906511    8.165800969   11.994662876   14.718142506
    1.851085142    8.182652060   12.024609340   14.752537870
    1.858263773    8.199661643   12.054865298   14.787259417
    1.865442404    8.216831688   12.085435119   14.822311181
    1.872621035    8.234164207   12.116323273   14.857697276
    1.879799666    8.251661247   12.147534342   14.893421898
    1.886978297    8.269324896   12.179073010   14.929489325
    1.894156928    8.287157284   12.210944064   14.965903919
    1.901335559    8.305160580   12.243152397   15.002670122
    1.908514190    8.323336998   12.275703011   15.039792464
    1.915692821    8.341688796   12.308601019   15.077275563
    1.922871452    8.360218274   12.341851648   15.115124127
    1.930050083    8.378927782   12.375460245   15.153342955
    1.937228715    8.397819716   12.409432273   15.191936940
    1.944407346    8.416896517   12.443773318   15.230911068
    1.951585977    8.436160675   12.478489067   15.270270406
    1.958764608    8.455614731   12.513585348   15.310020129
    1.965943239    8.475261298   12.549068237   15.350165598
    1.973121870    8.495103043   12.584943922   15.390712259
    1.980300501    8.515142665   12.621218642   15.431665604
    1.987479132    8.535382925   12.657898803   15.473031244
    1.994657763    8.555826647   12.694990983   15.514814923
    2.001836394    8.576476719   12.732501927   15.557022517
    2.009015025    8.597336094   12.770438549   15.599660020
    2.016193656    8.618407783   12.808807929   15.642733554
    2.023372287    8.639694863   12.847617326   15.686249370
    2.030550918    8.661200483   12.886874182   15.730213856
    2.037729549    8.682927860   12.926586126   15.774633537
    2.044908180    8.704880284   12.966760983   15.819515083
    2.052086811    8.727061119   13.007406779   15.864865308
    2.059265442    8.749473807   13.048531749   15.910691179
    2.066444073    8.772121866   13.090144338   15.956999819
    2.073622705    8.795008897   13.132253207   16.003798508
    2.080801336    8.818138576   13.174867218   16.051094685
    2.087979967    8.841514654   13.217995447   16.098895947
    2.095158598    8.865140995   13.261647380   16.147210087
    2.102337229    8.889021606   13.305832799   16.196045133
    2.109515860    8.913160544   13.350561569   16.245409254
    2.116694491    8.937561933   13.395843824   16.295310781
    2.123873122    8.962230014   13.441690023   16.345758256
    2.131051753    8.987169137   13.488110934   16.396760434
    2.138230384    9.012383766   13.535117635   16.448326284
    2.145409015    9.037878473   13.582721525   16.500464990
    2.152587646    9.063657948   13.630934334   16.553185963
    2.159766277    9.089726995   13.679768135   16.606498842
    2.166944908    9.116090557   13.729235367   16.660413524
    2.174123539    9.142753707   13.779348845   16.714940163
    2.181302170    9.169721637   13.830121762   16.770089149
    2.188480801    9.196999668   13.881567709   16.825871140
    2.195659432    9.224593263   13.933700694   16.882297072
    2.202838063    9.252508060   13.986535160   16.939378170
    2.210016694    9.280749863   14.040086030   16.997125957
    2.217195326    9.309324609   14.094368741   17.055552266
    2.224373957    9.338238390   14.149399182   17.114669247
    2.231552588    9.367497476   14.205193734   17.174489376
    2.238731219    9.397108316   14.261769329   17.235025476
    2.245909850    9.427077542   14.319143471   17.296290721
    2.253088481    9.457411971   14.377334254   17.358298652
    2.260267112    9.488118627   14.436360389   17.421063200
    2.267445743    9.519204784   14.496241231   17.484598707
    2.274624374    9.550677903   14.556996808   17.548919923
    2.281803005    9.582545650   14.618647853   17.614042017
    2.288981636    9.614815930   14.681215840   17.679980609
    2.296160267    9.647496901   14.744723014   17.746751787
    2.303338898    9.680596976   14.809192432   17.814372117
    2.310517529    9.714124833   14.874647995   17.882858638
    2.317696160    9.748089421   14.941114481   17.952228829
    2.324874791    9.782499974   15.008617607   18.022500776
    2.332053422    9.817366015   15.077184152   18.093693539
    2.339232053    9.852697242   15.146841861   18.165826548
    2.346410684    9.888503443   15.217619402   18.238919492
    2.353589316    9.924795266   15.289546811   18.312992935
    2.360767947    9.961584603   15.362655711   18.388068463
    2.367946578    9.998882728   15.436978601   18.464168085
    2.375125209   10.036700929   15.512549167   18.541314425
    2.382303840   10.075051133   15.589402581   18.619530909
    2.389482471   10.113945789   15.667575460   18.698841686
    2.396661102   10.153397785   15.747105908   18.779271921
    2.403839733   10.193420558   15.828033482   18.860848240
    2.411018364   10.234028160   15.910399437   18.943597735
    2.418196995   10.275235156   15.994249048   19.027548267
    2.425375626   10.317056721   16.079629298   19.112729077
    2.432554257   10.359508474   16.166587391   19.199170510
    2.439732888   10.402606585   16.255172815   19.286903974
    2.446911519   10.446367937   16.345437840   19.375962020
    2.454090150   10.490810118   16.437437462   19.466378515
    2.461268781   10.535951451   16.531229455   19.558188736
    2.468447412   10.581811038   16.626874514   19.651429422
    2.475626043   10.628408794   16.724436432   19.746138846
    2.482804674   10.675765490   16.823982298   19.842356897
    2.489983306   10.723902788   16.925582659   19.940125179
    2.497161937   10.772843271   17.029311691   20.039487108
    2.504340568   10.822610634   17.135247943   20.140488022
    2.511519199   10.873229849   17.243474986   20.243175310
    2.518697830   10.924726906   17.354080564   20.347598584
    2.525876461   10.977128951   17.467157196   20.453809788
    2.533055092   11.030464465   17.582802891   20.561863288
    2.540233723   11.084763367   17.701121650   20.671816097
