# energy grid [eV]     epsr_x  epsr_y  epsr_z
#
    0.200000000   14.810421044   13.852731665   11.844208954
    0.207178631   14.813810532   13.855794637   11.846716584
    0.214357262   14.817321429   13.858967270   11.849313948
    0.221535893   14.820953933   13.862249738   11.852001183
    0.228714524   14.824708251   13.865642223   11.854778434
    0.235893155   14.828584595   13.869144911   11.857645846
    0.243071786   14.832583186   13.872757994   11.860603574
    0.250250417   14.836704250   13.876481671   11.863651774
    0.257429048   14.840948023   13.880316147   11.866790608
    0.264607679   14.845314745   13.884261636   11.870020245
    0.271786311   14.849804666   13.888318353   11.873340856
    0.278964942   14.854418041   13.892486524   11.876752620
    0.286143573   14.859155135   13.896766380   11.880255718
    0.293322204   14.864016219   13.901158158   11.883850339
    0.300500835   14.869001570   13.905662101   11.887536676
    0.307679466   14.874111476   13.910278461   11.891314925
    0.314858097   14.879346229   13.915007493   11.895185292
    0.322036728   14.884706130   13.919849463   11.899147983
    0.329215359   14.890191489   13.924804639   11.903203213
    0.336393990   14.895802621   13.929873298   11.907351200
    0.343572621   14.901539850   13.935055726   11.911592170
    0.350751252   14.907403509   13.940352210   11.915926351
    0.357929883   14.913393937   13.945763050   11.920353978
    0.365108514   14.919511481   13.951288549   11.924875292
    0.372287145   14.925756497   13.956929019   11.929490538
    0.379465776   14.932129349   13.962684776   11.934199968
    0.386644407   14.938630408   13.968556147   11.939003839
    0.393823038   14.945260053   13.974543463   11.943902413
    0.401001669   14.952018673   13.980647063   11.948895958
    0.408180301   14.958906663   13.986867294   11.953984748
    0.415358932   14.965924428   13.993204510   11.959169062
    0.422537563   14.973072380   13.999659071   11.964449185
    0.429716194   14.980350940   14.006231345   11.969825408
    0.436894825   14.987760538   14.012921708   11.975298027
    0.444073456   14.995301613   14.019730544   11.980867345
    0.451252087   15.002974610   14.026658242   11.986533670
    0.458430718   15.010779986   14.033705202   11.992297317
    0.465609349   15.018718204   14.040871827   11.998158606
    0.472787980   15.026789738   14.048158533   12.004117863
    0.479966611   15.034995069   14.055565740   12.010175421
    0.487145242   15.043334690   14.063093878   12.016331618
    0.494323873   15.051809099   14.070743382   12.022586799
    0.501502504   15.060418807   14.078514700   12.028941314
    0.508681135   15.069164332   14.086408282   12.035395523
    0.515859766   15.078046202   14.094424591   12.041949787
    0.523038397   15.087064954   14.102564096   12.048604478
    0.530217028   15.096221135   14.110827274   12.055359972
    0.537395659   15.105515302   14.119214611   12.062216651
    0.544574290   15.114948022   14.127726602   12.069174906
    0.551752922   15.124519870   14.136363749   12.076235134
    0.558931553   15.134231432   14.145126565   12.083397737
    0.566110184   15.144083304   14.154015568   12.090663125
    0.573288815   15.154076093   14.163031289   12.098031714
    0.580467446   15.164210415   14.172174264   12.105503930
    0.587646077   15.174486897   14.181445041   12.113080202
    0.594824708   15.184906175   14.190844176   12.120760967
    0.602003339   15.195468898   14.200372232   12.128546672
    0.609181970   15.206175724   14.210029785   12.136437768
    0.616360601   15.217027322   14.219817418   12.144434714
    0.623539232   15.228024372   14.229735723   12.152537977
    0.630717863   15.239167565   14.239785303   12.160748031
    0.637896494   15.250457604   14.249966770   12.169065358
    0.645075125   15.261895201   14.260280747   12.177490447
    0.652253756   15.273481083   14.270727863   12.186023795
    0.659432387   15.285215985   14.281308762   12.194665906
    0.666611018   15.297100655   14.292024094   12.203417294
    0.673789649   15.309135854   14.302874522   12.212278478
    0.680968280   15.321322353   14.313860717   12.221249987
    0.688146912   15.333660936   14.324983362   12.230332357
    0.695325543   15.346152400   14.336243151   12.239526133
    0.702504174   15.358797552   14.347640786   12.248831869
    0.709682805   15.371597214   14.359176983   12.258250125
    0.716861436   15.384552221   14.370852467   12.267781472
    0.724040067   15.397663417   14.382667974   12.277426488
    0.731218698   15.410931663   14.394624253   12.287185760
    0.738397329   15.424357832   14.406722062   12.297059884
    0.745575960   15.437942810   14.418962171   12.307049465
    0.752754591   15.451687496   14.431345363   12.317155116
    0.759933222   15.465592804   14.443872431   12.327377462
    0.767111853   15.479659661   14.456544182   12.337717133
    0.774290484   15.493889007   14.469361434   12.348174772
    0.781469115   15.508281799   14.482325015   12.358751029
    0.788647746   15.522839006   14.495435769   12.369446566
    0.795826377   15.537561612   14.508694550   12.380262051
    0.803005008   15.552450617   14.522102227   12.391198166
    0.810183639   15.567507034   14.535659679   12.402255600
    0.817362270   15.582731894   14.549367800   12.413435053
    0.824540902   15.598126241   14.563227496   12.424737235
    0.831719533   15.613691134   14.577239689   12.436162868
    0.838898164   15.629427652   14.591405311   12.447712682
    0.846076795   15.645336885   14.605725309   12.459387419
    0.853255426   15.661419942   14.620200645   12.471187831
    0.860434057   15.677677948   14.634832295   12.483114682
    0.867612688   15.694112046   14.649621248   12.495168746
    0.874791319   15.710723394   14.664568509   12.507350808
    0.881969950   15.727513167   14.679675096   12.519661666
    0.889148581   15.744482560   14.694942043   12.532102127
    0.896327212   15.761632784   14.710370399   12.544673012
    0.903505843   15.778965067   14.725961230   12.557375152
    0.910684474   15.796480658   14.741715614   12.570209392
    0.917863105   15.814180822   14.757634647   12.583176588
    0.925041736   15.832066845   14.773719442   12.596277607
    0.932220367   15.850140030   14.789971127   12.609513331
    0.939398998   15.868401700   14.806390846   12.622884652
    0.946577629   15.886853199   14.822979760   12.636392479
    0.953756260   15.905495889   14.839739049   12.650037729
    0.960934891   15.924331154   14.856669907   12.663821336
    0.968113523   15.943360397   14.873773548   12.677744245
    0.975292154   15.962585044   14.891051203   12.691807416
    0.982470785   15.982006541   14.908504121   12.706011824
    0.989649416   16.001626354   14.926133569   12.720358455
    0.996828047   16.021445974   14.943940833   12.734848311
    1.004006678   16.041466912   14.961927219   12.749482409
    1.011185309   16.061690703   14.980094050   12.764261780
    1.018363940   16.082118904   14.998442670   12.779187470
    1.025542571   16.102753097   15.016974443   12.794260539
    1.032721202   16.123594884   15.035690752   12.809482064
    1.039899833   16.144645897   15.054593001   12.824853138
    1.047078464   16.165907787   15.073682615   12.840374869
    1.054257095   16.187382232   15.092961040   12.856048379
    1.061435726   16.209070937   15.112429743   12.871874811
    1.068614357   16.230975630   15.132090214   12.887855320
    1.075792988   16.253098068   15.151943964   12.903991081
    1.082971619   16.275440032   15.171992527   12.920283286
    1.090150250   16.298003331   15.192237460   12.936733143
    1.097328881   16.320789804   15.212680343   12.953341878
    1.104507513   16.343801313   15.233322780   12.970110735
    1.111686144   16.367039753   15.254166398   12.987040973
    1.118864775   16.390507045   15.275212850   13.004133864
    1.126043406   16.414205138   15.296463812   13.021390689
    1.133222037   16.438136017   15.317920988   13.038812794
    1.140400668   16.462301701   15.339586108   13.056401552
    1.147579299   16.486704231   15.361460925   13.074158309
    1.154757930   16.511345682   15.383547221   13.092084430
    1.161936561   16.536228159   15.405846804   13.110181312
    1.169115192   16.561353804   15.428361509   13.128450374
    1.176293823   16.586724791   15.451093202   13.146893057
    1.183472454   16.612343328   15.474043774   13.165510824
    1.190651085   16.638211657   15.497215148   13.184305163
    1.197829716   16.664332057   15.520609275   13.203277579
    1.205008347   16.690706842   15.544228137   13.222429605
    1.212186978   16.717338363   15.568073747   13.241762793
    1.219365609   16.744229006   15.592148147   13.261278722
    1.226544240   16.771381199   15.616453414   13.280978991
    1.233722871   16.798797407   15.640991656   13.300865228
    1.240901503   16.826480132   15.665765014   13.320939083
    1.248080134   16.854431921   15.690775662   13.341202233
    1.255258765   16.882655358   15.716025809   13.361656378
    1.262437396   16.911153070   15.741517700   13.382303247
    1.269616027   16.939927728   15.767253614   13.403144596
    1.276794658   16.968982044   15.793235867   13.424182205
    1.283973289   16.998318777   15.819466811   13.445417887
    1.291151920   17.027940729   15.845948838   13.466853478
    1.298330551   17.057850749   15.872684376   13.488490845
    1.305509182   17.088051734   15.899675893   13.510331886
    1.312687813   17.118546626   15.926925898   13.532378527
    1.319866444   17.149338419   15.954436939   13.554632725
    1.327045075   17.180430155   15.982211607   13.577096467
    1.334223706   17.211824928   16.010252534   13.599771774
    1.341402337   17.243525884   16.038562397   13.622660699
    1.348580968   17.275536223   16.067143914   13.645765325
    1.355759599   17.307859195   16.095999852   13.669087772
    1.362938230   17.340498108   16.125133017   13.692630194
    1.370116861   17.373456320   16.154546262   13.716394776
    1.377295492   17.406737245   16.184242486   13.740383739
    1.384474124   17.440344358   16.214224662   13.764599331
    1.391652755   17.474281166   16.244495802   13.789043818
    1.398831386   17.508551288   16.275058952   13.813719551
    1.406010017   17.543158486   16.305917214   13.838628971
    1.413188648   17.578106478   16.337073741   13.863774478
    1.420367279   17.613399021   16.368531743   13.889158494
    1.427545910   17.649039964   16.400294506   13.914783524
    1.434724541   17.685033236   16.432365359   13.940652108
    1.441903172   17.721382834   16.464747678   13.966766815
    1.449081803   17.758092821   16.497444894   13.993130263
    1.456260434   17.795167321   16.530460484   14.019745117
    1.463439065   17.832610523   16.563797981   14.046614088
    1.470617696   17.870426773   16.597461066   14.073739937
    1.477796327   17.908620505   16.631453498   14.101125475
    1.484974958   17.947196144   16.665779003   14.128773555
    1.492153589   17.986158203   16.700441379   14.156687081
    1.499332220   18.025511293   16.735444511   14.184869006
    1.506510851   18.065260115   16.770792360   14.213322339
    1.513689482   18.105409462   16.806488960   14.242050140
    1.520868114   18.145964215   16.842538420   14.271055522
    1.528046745   18.186929347   16.878944922   14.300341655
    1.535225376   18.228309924   16.915712728   14.329911765
    1.542404007   18.270111111   16.952846176   14.359769138
    1.549582638   18.312338168   16.990349687   14.389917115
    1.556761269   18.354996460   17.028227762   14.420359101
    1.563939900   18.398091451   17.066484989   14.451098563
    1.571118531   18.441628716   17.105126041   14.482139029
    1.578297162   18.485613934   17.144155681   14.513484094
    1.585475793   18.530052896   17.183578759   14.545137418
    1.592654424   18.574951500   17.223400213   14.577102732
    1.599833055   18.620315734   17.263625053   14.609383833
    1.607011686   18.666151685   17.304258366   14.641984590
    1.614190317   18.712465686   17.345305452   14.674908948
    1.621368948   18.759264256   17.386771768   14.708160926
    1.628547579   18.806553879   17.428662728   14.741744618
    1.635726210   18.854341156   17.470983844   14.775664191
    1.642904841   18.902632855   17.513740765   14.809923894
    1.650083472   18.951435916   17.556939261   14.844528070
    1.657262104   19.000757427   17.600585201   14.879481145
    1.664440735   19.050604599   17.644684559   14.914787607
    1.671619366   19.100984810   17.689243513   14.950452059
    1.678797997   19.151905595   17.734268423   14.986479220
    1.685976628   19.203374637   17.779765664   15.022873869
    1.693155259   19.255399788   17.825741721   15.059640868
    1.700333890   19.307989067   17.872203242   15.096785191
    1.707512521   19.361150669   17.919157025   15.134311912
    1.714691152   19.414892969   17.966610012   15.172226214
    1.721869783   19.469224523   18.014569296   15.210533382
    1.729048414   19.524154078   18.063042120   15.249238814
    1.736227045   19.579690572   18.112035884   15.288348020
    1.743405676   19.635843145   18.161558146   15.327866623
    1.750584307   19.692621140   18.211616632   15.367800368
    1.757762938   19.750034115   18.262219235   15.408155119
    1.764941569   19.808091842   18.313374024   15.448936866
    1.772120200   19.866804319   18.365089246   15.490151729
    1.779298831   19.926181775   18.417373333   15.531805959
    1.786477462   19.986234674   18.470234909   15.573905943
    1.793656093   20.046973729   18.523682791   15.616458210
    1.800834725   20.108409901   18.577725999   15.659469430
    1.808013356   20.170554411   18.632373760   15.702946424
    1.815191987   20.233418741   18.687635513   15.746896159
    1.822370618   20.297014650   18.743520919   15.791325763
    1.829549249   20.361354216   18.800039871   15.836242536
    1.836727880   20.426449807   18.857202494   15.881653942
    1.843906511   20.492314060   18.915019152   15.927567606
    1.851085142   20.558959933   18.973500457   15.973991332
    1.858263773   20.626400714   19.032657279   16.020933109
    1.865442404   20.694650025   19.092500752   16.068401113
    1.872621035   20.763721835   19.153042288   16.116403715
    1.879799666   20.833630470   19.214293577   16.164949486
    1.886978297   20.904390625   19.276266603   16.214047201
    1.894156928   20.976017375   19.338973653   16.263705850
    1.901335559   21.048526191   19.402427321   16.313934643
    1.908514190   21.121932950   19.466640528   16.364743015
    1.915692821   21.196253954   19.531626524   16.416140636
    1.922871452   21.271505938   19.597398905   16.468137417
    1.930050083   21.347706093   19.663971622   16.520743520
    1.937228715   21.424872075   19.731358995   16.573969366
    1.944407346   21.503022027   19.799575725   16.627825641
    1.951585977   21.582174592   19.868636904   16.682323306
    1.958764608   21.662348924   19.938558030   16.737473601
    1.965943239   21.743564708   20.009355019   16.793288043
    1.973121870   21.825842193   20.081044250   16.849778441
    1.980300501   21.909202232   20.153642568   16.906956979
    1.987479132   21.993666336   20.227167263   16.964836238
    1.994657763   22.079256624   20.301636107   17.023429104
    2.001836394   22.165995788   20.377067384   17.082748712
    2.009015025   22.253907197   20.453479900   17.142808559
    2.016193656   22.343014935   20.530893000   17.203622508
    2.023372287   22.433343834   20.609326616   17.265204881
    2.030550918   22.524919513   20.688801317   17.327570546
    2.037729549   22.617768353   20.769338242   17.390734660
    2.044908180   22.711917527   20.850959143   17.454712733
    2.052086811   22.807395086   20.933686449   17.519520785
    2.059265442   22.904230023   21.017543295   17.585175393
    2.066444073   23.002452221   21.102553531   17.651693577
    2.073622705   23.102092489   21.188741748   17.719092822
    2.080801336   23.203182619   21.276133312   17.787391130
    2.087979967   23.305755471   21.364754410   17.856607074
    2.095158598   23.409845213   21.454632118   17.926759964
    2.102337229   23.515487083   21.545794382   17.997869660
    2.109515860   23.622717337   21.638270023   18.069956523
    2.116694491   23.731573408   21.732088759   18.143041588
    2.123873122   23.842093841   21.827281123   18.217146585
    2.131051753   23.954318770   21.923878738   18.292293954
    2.138230384   24.068290538   22.021914890   18.368506931
    2.145409015   24.184052285   22.121423397   18.445809526
    2.152587646   24.301648800   22.222439253   18.524226517
    2.159766277   24.421126919   22.325000277   18.603783537
    2.166944908   24.542534955   22.429145435   18.684507049
    2.174123539   24.665922450   22.534913234   18.766424385
    2.181302170   24.791341205   22.642343920   18.849564100
    2.188480801   24.918845270   22.751479732   18.933955864
    2.195659432   25.048490540   22.862364478   19.019630108
    2.202838063   25.180335032   22.975043599   19.106618368
    2.210016694   25.314438822   23.089564077   19.194953410
    2.217195326   25.450863779   23.205974454   19.284669254
    2.224373957   25.589675308   23.324326058   19.375801219
    2.231552588   25.730944190   23.444673617   19.468385997
    2.238731219   25.874741958   23.567073039   19.562461702
    2.245909850   26.021141998   23.691581407   19.658067956
    2.253088481   26.170221436   23.818258391   19.755245974
    2.260267112   26.322060960   23.947166744   19.854038630
    2.267445743   26.476744866   24.078371963   19.954490560
    2.274624374   26.634361062   24.211942225   20.056648264
    2.281803005   26.795001565   24.347948788   20.160560197
    2.288981636   26.958762698   24.486466166   20.266276875
    2.296160267   27.125745329   24.627572284   20.373851033
    2.303338898   27.296055201   24.771348711   20.483337828
    2.310517529   27.469803113   24.917880881   20.594794823
    2.317696160   27.647105265   25.067258316   20.708282137
    2.324874791   27.828083643   25.219574877   20.823862670
    2.332053422   28.012866274   25.374928922   20.941602245
    2.339232053   28.201587610   25.533423658   21.061569760
    2.346410684   28.394388958   25.695167885   21.183837437
    2.353589316   28.591418967   25.860276149   21.308481015
    2.360767947   28.792835805   26.028869008   21.435580580
    2.367946578   28.998806430   26.201073467   21.565220392
    2.375125209   29.209504765   26.377022837   21.697488186
    2.382303840   29.425115096   26.556858138   21.832476141
    2.389482471   29.645833137   26.740728665   21.970280954
    2.396661102   29.871865052   26.928791802   22.111004556
    2.403839733   30.103431193   27.121215413   22.254757598
    2.411018364   30.340765163   27.318177209   22.401656457
    2.418196995   30.584112885   27.519864481   22.551820984
    2.425375626   30.833736150   27.726476374   22.705378996
    2.432554257   31.089914062   27.938224928   22.862467084
    2.439732888   31.352943671   28.155335878   23.023229115
    2.446911519   31.623141497   28.378049953   23.187817728
    2.454090150   31.900846218   28.606624138   23.356395827
    2.461268781   32.186421178   28.841332635   23.529137036
    2.468447412   32.480254139   29.082469165   23.706225916
    2.475626043   32.782760511   29.330350141   23.887860102
    2.482804674   33.094386540   29.585314199   24.074250273
    2.489983306   33.415612073   29.847724587   24.265621162
    2.497161937   33.746953851   30.117972958   24.462213225
    2.504340568   34.088969453   30.396482004   24.664285266
    2.511519199   34.442262452   30.683708880   24.872118587
    2.518697830   34.807486953   30.980148591   25.086015240
    2.525876461   35.185350976   31.286338117   25.306297824
    2.533055092   35.576623178   31.602861004   25.533313787
    2.540233723   35.982141568   31.930353396   25.767441234
