# energy grid [eV]     ieps_x  ieps_y  ieps_z
#
    0.200000000    9.312408885    8.715250945    7.605319743
    0.207178631    9.310324230    8.713370186    7.603767506
    0.214357262    9.308167236    8.711424134    7.602161351
    0.221535893    9.305938026    8.709412895    7.600501361
    0.228714524    9.303636723    8.707336577    7.598787623
    0.235893155    9.301263456    8.705195294    7.597020225
    0.243071786    9.298818355    8.702989159    7.595199261
    0.250250417    9.296301558    8.700718293    7.593324824
    0.257429048    9.293713204    8.698382819    7.591397012
    0.264607679    9.291053437    8.695982861    7.589415925
    0.271786311    9.288322403    8.693518549    7.587381666
    0.278964942    9.285520254    8.690990015    7.585294340
    0.286143573    9.282647145    8.688397396    7.583154056
    0.293322204    9.279703235    8.685740830    7.580960923
    0.300500835    9.276688685    8.683020459    7.578715056
    0.307679466    9.273603662    8.680236430    7.576416569
    0.314858097    9.270448335    8.677388890    7.574065582
    0.322036728    9.267222878    8.674477992    7.571662215
    0.329215359    9.263927467    8.671503891    7.569206592
    0.336393990    9.260562284    8.668466745    7.566698838
    0.343572621    9.257127511    8.665366715    7.564139083
    0.350751252    9.253623337    8.662203967    7.561527456
    0.357929883    9.250049953    8.658978667    7.558864093
    0.365108514    9.246407553    8.655690987    7.556149127
    0.372287145    9.242696335    8.652341099    7.553382699
    0.379465776    9.238916501    8.648929182    7.550564949
    0.386644407    9.235068255    8.645455414    7.547696019
    0.393823038    9.231151806    8.641919978    7.544776055
    0.401001669    9.227167366    8.638323060    7.541805205
    0.408180301    9.223115148    8.634664848    7.538783620
    0.415358932    9.218995372    8.630945534    7.535711452
    0.422537563    9.214808258    8.627165312    7.532588856
    0.429716194    9.210554031    8.623324380    7.529415988
    0.436894825    9.206232920    8.619422936    7.526193009
    0.444073456    9.201845154    8.615461185    7.522920079
    0.451252087    9.197390968    8.611439331    7.519597364
    0.458430718    9.192870599    8.607357583    7.516225027
    0.465609349    9.188284288    8.603216152    7.512803239
    0.472787980    9.183632277    8.599015251    7.509332169
    0.479966611    9.178914813    8.594755097    7.505811990
    0.487145242    9.174132144    8.590435908    7.502242876
    0.494323873    9.169284524    8.586057906    7.498625005
    0.501502504    9.164372207    8.581621315    7.494958554
    0.508681135    9.159395450    8.577126362    7.491243704
    0.515859766    9.154354515    8.572573275    7.487480639
    0.523038397    9.149249666    8.567962287    7.483669543
    0.530217028    9.144081167    8.563293631    7.479810603
    0.537395659    9.138849288    8.558567544    7.475904008
    0.544574290    9.133554302    8.553784264    7.471949948
    0.551752922    9.128196481    8.548944033    7.467948616
    0.558931553    9.122776104    8.544047094    7.463900206
    0.566110184    9.117293449    8.539093694    7.459804915
    0.573288815    9.111748798    8.534084079    7.455662941
    0.580467446    9.106142437    8.529018500    7.451474483
    0.587646077    9.100474651    8.523897210    7.447239744
    0.594824708    9.094745731    8.518720463    7.442958927
    0.602003339    9.088955968    8.513488517    7.438632236
    0.609181970    9.083105656    8.508201629    7.434259880
    0.616360601    9.077195092    8.502860062    7.429842066
    0.623539232    9.071224575    8.497464077    7.425379005
    0.630717863    9.065194405    8.492013940    7.420870909
    0.637896494    9.059104886    8.486509919    7.416317991
    0.645075125    9.052956323    8.480952280    7.411720467
    0.652253756    9.046749023    8.475341297    7.407078552
    0.659432387    9.040483297    8.469677241    7.402392466
    0.666611018    9.034159456    8.463960387    7.397662428
    0.673789649    9.027777814    8.458191010    7.392888659
    0.680968280    9.021338686    8.452369391    7.388071381
    0.688146912    9.014842390    8.446495807    7.383210819
    0.695325543    9.008289245    8.440570542    7.378307199
    0.702504174    9.001679573    8.434593877    7.373360746
    0.709682805    8.995013696    8.428566098    7.368371690
    0.716861436    8.988291941    8.422487492    7.363340260
    0.724040067    8.981514633    8.416358347    7.358266687
    0.731218698    8.974682102    8.410178952    7.353151202
    0.738397329    8.967794676    8.403949599    7.347994040
    0.745575960    8.960852689    8.397670579    7.342795435
    0.752754591    8.953856473    8.391342188    7.337555622
    0.759933222    8.946806363    8.384964721    7.332274839
    0.767111853    8.939702696    8.378538475    7.326953324
    0.774290484    8.932545809    8.372063748    7.321591316
    0.781469115    8.925336042    8.365540839    7.316189055
    0.788647746    8.918073736    8.358970050    7.310746783
    0.795826377    8.910759232    8.352351683    7.305264742
    0.803005008    8.903392875    8.345686041    7.299743177
    0.810183639    8.895975009    8.338973428    7.294182330
    0.817362270    8.888505979    8.332214150    7.288582449
    0.824540902    8.880986134    8.325408514    7.282943778
    0.831719533    8.873415822    8.318556828    7.277266566
    0.838898164    8.865795391    8.311659401    7.271551061
    0.846076795    8.858125193    8.304716543    7.265797512
    0.853255426    8.850405580    8.297728564    7.260006168
    0.860434057    8.842636903    8.290695777    7.254177281
    0.867612688    8.834819518    8.283618495    7.248311102
    0.874791319    8.826953777    8.276497031    7.242407884
    0.881969950    8.819040038    8.269331699    7.236467878
    0.889148581    8.811078657    8.262122816    7.230491340
    0.896327212    8.803069990    8.254870697    7.224478524
    0.903505843    8.795014396    8.247575660    7.218429684
    0.910684474    8.786912234    8.240238022    7.212345077
    0.917863105    8.778763864    8.232858101    7.206224959
    0.925041736    8.770569645    8.225436217    7.200069586
    0.932220367    8.762329939    8.217972689    7.193879217
    0.939398998    8.754045107    8.210467838    7.187654110
    0.946577629    8.745715512    8.202921985    7.181394522
    0.953756260    8.737341516    8.195335451    7.175100714
    0.960934891    8.728923483    8.187708558    7.168772944
    0.968113523    8.720461775    8.180041628    7.162411473
    0.975292154    8.711956759    8.172334985    7.156016561
    0.982470785    8.703408797    8.164588952    7.149588469
    0.989649416    8.694818256    8.156803853    7.143127459
    0.996828047    8.686185500    8.148980011    7.136633791
    1.004006678    8.677510895    8.141117751    7.130107728
    1.011185309    8.668794807    8.133217398    7.123549532
    1.018363940    8.660037602    8.125279278    7.116959465
    1.025542571    8.651239648    8.117303714    7.110337790
    1.032721202    8.642401309    8.109291033    7.103684770
    1.039899833    8.633522954    8.101241561    7.097000668
    1.047078464    8.624604948    8.093155623    7.090285748
    1.054257095    8.615647660    8.085033546    7.083540273
    1.061435726    8.606651455    8.076875655    7.076764507
    1.068614357    8.597616701    8.068682276    7.069958714
    1.075792988    8.588543765    8.060453737    7.063123157
    1.082971619    8.579433014    8.052190363    7.056258101
    1.090150250    8.570284815    8.043892480    7.049363809
    1.097328881    8.561099534    8.035560415    7.042440546
    1.104507513    8.551877539    8.027194494    7.035488576
    1.111686144    8.542619195    8.018795043    7.028508163
    1.118864775    8.533324869    8.010362387    7.021499571
    1.126043406    8.523994928    8.001896854    7.014463064
    1.133222037    8.514629737    7.993398768    7.007398906
    1.140400668    8.505229661    7.984868456    7.000307362
    1.147579299    8.495795066    7.976306242    6.993188693
    1.154757930    8.486326317    7.967712451    6.986043166
    1.161936561    8.476823779    7.959087409    6.978871042
    1.169115192    8.467287814    7.950431440    6.971672586
    1.176293823    8.457718789    7.941744867    6.964448059
    1.183472454    8.448117064    7.933028016    6.957197727
    1.190651085    8.438483004    7.924281210    6.949921850
    1.197829716    8.428816971    7.915504771    6.942620692
    1.205008347    8.419119327    7.906699022    6.935294515
    1.212186978    8.409390432    7.897864287    6.927943581
    1.219365609    8.399630648    7.889000886    6.920568151
    1.226544240    8.389840335    7.880109141    6.913168487
    1.233722871    8.380019851    7.871189373    6.905744850
    1.240901503    8.370169557    7.862241903    6.898297500
    1.248080134    8.360289809    7.853267050    6.890826698
    1.255258765    8.350380966    7.844265134    6.883332704
    1.262437396    8.340443384    7.835236474    6.875815776
    1.269616027    8.330477419    7.826181387    6.868276175
    1.276794658    8.320483427    7.817100191    6.860714159
    1.283973289    8.310461761    7.807993203    6.853129986
    1.291151920    8.300412776    7.798860739    6.845523913
    1.298330551    8.290336823    7.789703115    6.837896199
    1.305509182    8.280234256    7.780520646    6.830247099
    1.312687813    8.270105425    7.771313645    6.822576870
    1.319866444    8.259950679    7.762082427    6.814885768
    1.327045075    8.249770369    7.752827303    6.807174047
    1.334223706    8.239564843    7.743548586    6.799441963
    1.341402337    8.229334447    7.734246587    6.791689769
    1.348580968    8.219079528    7.724921616    6.783917718
    1.355759599    8.208800432    7.715573982    6.776126064
    1.362938230    8.198497503    7.706203994    6.768315059
    1.370116861    8.188171083    7.696811960    6.760484953
    1.377295492    8.177821516    7.687398187    6.752635999
    1.384474124    8.167449142    7.677962980    6.744768446
    1.391652755    8.157054301    7.668506644    6.736882544
    1.398831386    8.146637333    7.659029484    6.728978541
    1.406010017    8.136198574    7.649531803    6.721056687
    1.413188648    8.125738362    7.640013903    6.713117227
    1.420367279    8.115257032    7.630476085    6.705160409
    1.427545910    8.104754918    7.620918650    6.697186480
    1.434724541    8.094232354    7.611341896    6.689195683
    1.441903172    8.083689671    7.601746122    6.681188264
    1.449081803    8.073127200    7.592131626    6.673164466
    1.456260434    8.062545270    7.582498702    6.665124533
    1.463439065    8.051944209    7.572847647    6.657068705
    1.470617696    8.041324345    7.563178754    6.648997225
    1.477796327    8.030686003    7.553492316    6.640910333
    1.484974958    8.020029507    7.543788625    6.632808268
    1.492153589    8.009355181    7.534067972    6.624691270
    1.499332220    7.998663345    7.524330645    6.616559576
    1.506510851    7.987954320    7.514576935    6.608413424
    1.513689482    7.977228425    7.504807128    6.600253048
    1.520868114    7.966485978    7.495021509    6.592078686
    1.528046745    7.955727295    7.485220365    6.583890571
    1.535225376    7.944952690    7.475403978    6.575688936
    1.542404007    7.934162477    7.465572632    6.567474015
    1.549582638    7.923356969    7.455726607    6.559246039
    1.556761269    7.912536475    7.445866184    6.551005239
    1.563939900    7.901701304    7.435991642    6.542751844
    1.571118531    7.890851766    7.426103258    6.534486083
    1.578297162    7.879988164    7.416201309    6.526208185
    1.585475793    7.869110806    7.406286070    6.517918376
    1.592654424    7.858219992    7.396357815    6.509616882
    1.599833055    7.847316027    7.386416817    6.501303928
    1.607011686    7.836399209    7.376463346    6.492979738
    1.614190317    7.825469838    7.366497674    6.484644536
    1.621368948    7.814528210    7.356520068    6.476298542
    1.628547579    7.803574623    7.346530797    6.467941979
    1.635726210    7.792609369    7.336530126    6.459575066
    1.642904841    7.781632742    7.326518320    6.451198022
    1.650083472    7.770645032    7.316495643    6.442811065
    1.657262104    7.759646530    7.306462357    6.434414412
    1.664440735    7.748637523    7.296418722    6.426008278
    1.671619366    7.737618298    7.286364999    6.417592880
    1.678797997    7.726589140    7.276301445    6.409168429
    1.685976628    7.715550332    7.266228317    6.400735140
    1.693155259    7.704502156    7.256145871    6.392293223
    1.700333890    7.693444892    7.246054360    6.383842889
    1.707512521    7.682378818    7.235954037    6.375384349
    1.714691152    7.671304212    7.225845153    6.366917809
    1.721869783    7.660221349    7.215727959    6.358443477
    1.729048414    7.649130502    7.205602702    6.349961561
    1.736227045    7.638031943    7.195469629    6.341472264
    1.743405676    7.626925944    7.185328987    6.332975791
    1.750584307    7.615812773    7.175181020    6.324472345
    1.757762938    7.604692698    7.165025970    6.315962127
    1.764941569    7.593565983    7.154864079    6.307445339
    1.772120200    7.582432893    7.144695586    6.298922180
    1.779298831    7.571293690    7.134520731    6.290392848
    1.786477462    7.560148635    7.124339750    6.281857541
    1.793656093    7.548997986    7.114152879    6.273316456
    1.800834725    7.537842002    7.103960353    6.264769786
    1.808013356    7.526680938    7.093762404    6.256217727
    1.815191987    7.515515048    7.083559263    6.247660471
    1.822370618    7.504344585    7.073351161    6.239098210
    1.829549249    7.493169799    7.063138326    6.230531134
    1.836727880    7.481990939    7.052920985    6.221959433
    1.843906511    7.470808252    7.042699364    6.213383296
    1.851085142    7.459621986    7.032473687    6.204802909
    1.858263773    7.448432383    7.022244176    6.196218458
    1.865442404    7.437239686    7.012011053    6.187630129
    1.872621035    7.426044136    7.001774537    6.179038105
    1.879799666    7.414845973    6.991534847    6.170442568
    1.886978297    7.403645432    6.981292200    6.161843701
    1.894156928    7.392442751    6.971046811    6.153241683
    1.901335559    7.381238163    6.960798895    6.144636693
    1.908514190    7.370031901    6.950548662    6.136028910
    1.915692821    7.358824196    6.940296325    6.127418510
    1.922871452    7.347615276    6.930042094    6.118805669
    1.930050083    7.336405370    6.919786175    6.110190562
    1.937228715    7.325194702    6.909528777    6.101573361
    1.944407346    7.313983498    6.899270103    6.092954239
    1.951585977    7.302771979    6.889010359    6.084333367
    1.958764608    7.291560366    6.878749745    6.075710915
    1.965943239    7.280348878    6.868488463    6.067087052
    1.973121870    7.269137734    6.858226712    6.058461944
    1.980300501    7.257927148    6.847964691    6.049835759
    1.987479132    7.246717335    6.837702595    6.041208662
    1.994657763    7.235508508    6.827440619    6.032580816
    2.001836394    7.224300876    6.817178957    6.023952385
    2.009015025    7.213094650    6.806917802    6.015323530
    2.016193656    7.201890037    6.796657343    6.006694412
    2.023372287    7.190687243    6.786397769    5.998065190
    2.030550918    7.179486472    6.776139270    5.989436023
    2.037729549    7.168287927    6.765882030    5.980807068
    2.044908180    7.157091809    6.755626234    5.972178481
    2.052086811    7.145898316    6.745372067    5.963550416
    2.059265442    7.134707648    6.735119710    5.954923027
    2.066444073    7.123519999    6.724869343    5.946296467
    2.073622705    7.112335565    6.714621145    5.937670887
    2.080801336    7.101154538    6.704375295    5.929046438
    2.087979967    7.089977109    6.694131968    5.920423268
    2.095158598    7.078803469    6.683891339    5.911801525
    2.102337229    7.067633805    6.673653582    5.903181356
    2.109515860    7.056468303    6.663418868    5.894562907
    2.116694491    7.045307149    6.653187368    5.885946322
    2.123873122    7.034150525    6.642959251    5.877331745
    2.131051753    7.022998614    6.632734685    5.868719317
    2.138230384    7.011851595    6.622513836    5.860109181
    2.145409015    7.000709646    6.612296869    5.851501475
    2.152587646    6.989572945    6.602083947    5.842896340
    2.159766277    6.978441667    6.591875233    5.834293912
    2.166944908    6.967315986    6.581670887    5.825694327
    2.174123539    6.956196073    6.571471068    5.817097723
    2.181302170    6.945082099    6.561275935    5.808504232
    2.188480801    6.933974234    6.551085643    5.799913989
    2.195659432    6.922872645    6.540900349    5.791327125
    2.202838063    6.911777498    6.530720205    5.782743771
    2.210016694    6.900688957    6.520545365    5.774164058
    2.217195326    6.889607185    6.510375978    5.765588114
    2.224373957    6.878532343    6.500212196    5.757016066
    2.231552588    6.867464592    6.490054166    5.748448042
    2.238731219    6.856404090    6.479902035    5.739884167
    2.245909850    6.845350992    6.469755949    5.731324566
    2.253088481    6.834305456    6.459616053    5.722769361
    2.260267112    6.823267634    6.449482488    5.714218675
    2.267445743    6.812237679    6.439355397    5.705672629
    2.274624374    6.801215741    6.429234920    5.697131344
    2.281803005    6.790201970    6.419121195    5.688594938
    2.288981636    6.779196514    6.409014362    5.680063530
    2.296160267    6.768199519    6.398914555    5.671537236
    2.303338898    6.757211131    6.388821910    5.663016171
    2.310517529    6.746231491    6.378736560    5.654500452
    2.317696160    6.735260743    6.368658639    5.645990191
    2.324874791    6.724299027    6.358588276    5.637485501
    2.332053422    6.713346482    6.348525603    5.628986494
    2.339232053    6.702403246    6.338470747    5.620493281
    2.346410684    6.691469455    6.328423835    5.612005970
    2.353589316    6.680545244    6.318384995    5.603524671
    2.360767947    6.669630746    6.308354349    5.595049491
    2.367946578    6.658726093    6.298332023    5.586580537
    2.375125209    6.647831416    6.288318138    5.578117912
    2.382303840    6.636946845    6.278312814    5.569661724
    2.389482471    6.626072506    6.268316173    5.561212073
    2.396661102    6.615208527    6.258328332    5.552769064
    2.403839733    6.604355032    6.248349408    5.544332796
    2.411018364    6.593512145    6.238379517    5.535903372
    2.418196995    6.582679988    6.228418775    5.527480889
    2.425375626    6.571858684    6.218467295    5.519065447
    2.432554257    6.561048350    6.208525189    5.510657142
    2.439732888    6.550249105    6.198592568    5.502256071
    2.446911519    6.539461067    6.188669543    5.493862330
    2.454090150    6.528684351    6.178756222    5.485476013
    2.461268781    6.517919072    6.168852712    5.477097213
    2.468447412    6.507165342    6.158959120    5.468726023
    2.475626043    6.496423272    6.149075552    5.460362534
    2.482804674    6.485692975    6.139202111    5.452006837
    2.489983306    6.474974557    6.129338900    5.443659021
    2.497161937    6.464268129    6.119486021    5.435319176
    2.504340568    6.453573795    6.109643574    5.426987388
    2.511519199    6.442891662    6.099811660    5.418663745
    2.518697830    6.432221832    6.089990375    5.410348333
    2.525876461    6.421564410    6.080179819    5.402041235
    2.533055092    6.410919497    6.070380085    5.393742537
    2.540233723    6.400287192    6.060591270    5.385452322
