# energy grid [eV]     epsr_x  epsr_y  epsr_z
#
    0.200000000   12.121213577    4.843407552   11.421723760
    0.207178631   12.123714131    4.844146845   11.424135515
    0.214357262   12.126304399    4.844912835   11.426633681
    0.221535893   12.128984546    4.845705593   11.429218404
    0.228714524   12.131754743    4.846525190   11.431889831
    0.235893155   12.134615166    4.847371700   11.434648119
    0.243071786   12.137565999    4.848245203   11.437493429
    0.250250417   12.140607432    4.849145779   11.440425925
    0.257429048   12.143739662    4.850073514   11.443445779
    0.264607679   12.146962891    4.851028494   11.446553168
    0.271786311   12.150277330    4.852010811   11.449748274
    0.278964942   12.153683196    4.853020562   11.453031284
    0.286143573   12.157180713    4.854057843   11.456402393
    0.293322204   12.160770113    4.855122758   11.459861799
    0.300500835   12.164451633    4.856215414   11.463409706
    0.307679466   12.168225521    4.857335922   11.467046326
    0.314858097   12.172092028    4.858484395   11.470771875
    0.322036728   12.176051418    4.859660954   11.474586575
    0.329215359   12.180103959    4.860865721   11.478490655
    0.336393990   12.184249927    4.862098827   11.482484347
    0.343572621   12.188489609    4.863360404   11.486567894
    0.350751252   12.192823299    4.864650590   11.490741542
    0.357929883   12.197251299    4.865969530   11.495005542
    0.365108514   12.201773919    4.867317373   11.499360156
    0.372287145   12.206391482    4.868694274   11.503805647
    0.379465776   12.211104315    4.870100395   11.508342289
    0.386644407   12.215912758    4.871535902   11.512970360
    0.393823038   12.220817160    4.873000969   11.517690145
    0.401001669   12.225817881    4.874495779   11.522501937
    0.408180301   12.230915289    4.876020518   11.527406036
    0.415358932   12.236109764    4.877575383   11.532402747
    0.422537563   12.241401697    4.879160577   11.537492384
    0.429716194   12.246791492    4.880776312   11.542675269
    0.436894825   12.252279562    4.882422809   11.547951728
    0.444073456   12.257866334    4.884100299   11.553322099
    0.451252087   12.263552247    4.885809020   11.558786724
    0.458430718   12.269337753    4.887549224   11.564345956
    0.465609349   12.275223318    4.889321172   11.570000155
    0.472787980   12.281209423    4.891125135   11.575749687
    0.479966611   12.287296562    4.892961400   11.581594931
    0.487145242   12.293485246    4.894830264   11.587536271
    0.494323873   12.299776001    4.896732040   11.593574101
    0.501502504   12.306169370    4.898667053   11.599708824
    0.508681135   12.312665915    4.900635645   11.605940855
    0.515859766   12.319266215    4.902638177   11.612270614
    0.523038397   12.325970868    4.904675023   11.618698535
    0.530217028   12.332780495    4.906746581   11.625225060
    0.537395659   12.339695736    4.908853266   11.631850643
    0.544574290   12.346717254    4.910995515   11.638575749
    0.551752922   12.353845738    4.913173791   11.645400853
    0.558931553   12.361081901    4.915388579   11.652326444
    0.566110184   12.368426481    4.917640394   11.659353021
    0.573288815   12.375880250    4.919929777   11.666481099
    0.580467446   12.383444005    4.922257304   11.673711204
    0.587646077   12.391118578    4.924623583   11.681043876
    0.594824708   12.398904837    4.927029258   11.688479670
    0.602003339   12.406803685    4.929475016   11.696019159
    0.609181970   12.414816067    4.931961585   11.703662928
    0.616360601   12.422942969    4.934489741   11.711411582
    0.623539232   12.431185424    4.937060311   11.719265743
    0.630717863   12.439544516    4.939674181   11.727226053
    0.637896494   12.448021382    4.942332294   11.735293174
    0.645075125   12.456617218    4.945035665   11.743467789
    0.652253756   12.465333284    4.947785381   11.751750605
    0.659432387   12.474170909    4.950582609   11.760142353
    0.666611018   12.483131499    4.953428610   11.768643793
    0.673789649   12.492216541    4.956324741   11.777255711
    0.680968280   12.501427617    4.959272470   11.785978924
    0.688146912   12.510766405    4.962273389   11.794814285
    0.695325543   12.520234698    4.965329224   11.803762682
    0.702504174   12.529834409    4.968441853   11.812825043
    0.709682805   12.539567589    4.971613325   11.822002341
    0.716861436   12.549436441    4.974845879   11.831295596
    0.724040067   12.559443339    4.978141968   11.840705883
    0.731218698   12.569590844    4.981504286   11.850234333
    0.738397329   12.579881735    4.984935802   11.859882148
    0.745575960   12.590319032    4.988439794   11.869650598
    0.752754591   12.600906028    4.992019895   11.879541039
    0.759933222   12.611646329    4.995680142   11.889554920
    0.767111853   12.622543897    4.999425035   11.899693796
    0.774290484   12.633603104    5.003259609   11.909959342
    0.781469115   12.644828790    5.007189516   11.920353371
    0.788647746   12.656226343    5.011221128   11.930877855
    0.795826377   12.667801781    5.015361653   11.941534950
    0.803005008   12.679561866    5.019619282   11.952327026
    0.810183639   12.691514228    5.024003364   11.963256703
    0.817362270   12.703667527    5.028524621   11.974326897
    0.824540902   12.716031645    5.033195411   11.985540872
    0.831719533   12.728617929    5.038030057   11.996902310
    0.838898164   12.741439488    5.043045249   12.008415395
    0.846076795   12.754511574    5.048260562   12.020084920
    0.853255426   12.767852052    5.053699100   12.031916418
    0.860434057   12.781482018    5.059388330   12.043916336
    0.867612688   12.795426584    5.065361153   12.056092257
    0.874791319   12.809715899    5.071657302   12.068453189
    0.881969950   12.824386513    5.078325187   12.081009945
    0.889148581   12.839483173    5.085424353   12.093775654
    0.896327212   12.855061257    5.093028799   12.106766442
    0.903505843   12.871190101    5.101231510   12.120002372
    0.910684474   12.887957584    5.110150715   12.133508736
    0.917863105   12.905476535    5.119938632   12.147317861
    0.925041736   12.923893763    5.130793782   12.161471651
    0.932220367   12.943402790    5.142978377   12.176025180
    0.939398998   12.964261627    5.156842574   12.191051700
    0.946577629   12.986816473    5.172856833   12.206649322
    0.953756260   13.011528866    5.191648968   12.222948670
    0.960934891   13.038988972    5.214022286   12.240116626
    0.968113523   13.069838547    5.240850384   12.258334607
    0.975292154   13.104292766    5.272424227   12.277663747
    0.982470785   13.140023649    5.305562125   12.297448148
    0.989649416   13.163997042    5.322463805   12.314013394
    0.996828047   13.132089401    5.262878814   12.314919694
    1.004006678   12.998017896    5.063608115   12.287118445
    1.011185309   12.875826157    4.880364628   12.262763494
    1.018363940   12.856118242    4.836856171   12.267400091
    1.025542571   12.884218126    4.858422497   12.285613143
    1.032721202   12.921376347    4.892149298   12.306477847
    1.039899833   12.956951710    4.923501237   12.326994187
    1.047078464   12.989230935    4.950132726   12.346679217
    1.054257095   13.018554191    4.972501330   12.365628858
    1.061435726   13.045573081    4.991489093   12.384026734
    1.068614357   13.070865837    5.007876993   12.402035663
    1.075792988   13.094882297    5.022269665   12.419782123
    1.082971619   13.117961531    5.035119279   12.437361189
    1.090150250   13.140359133    5.046762594   12.454844200
    1.097328881   13.162270333    5.057452230   12.472285223
    1.104507513   13.183847247    5.067379893   12.489725873
    1.111686144   13.205211346    5.076692970   12.507198758
    1.118864775   13.226462451    5.085506287   12.524729932
    1.126043406   13.247685355    5.093910469   12.542340659
    1.133222037   13.268954838    5.101977940   12.560048692
    1.140400668   13.290339677    5.109767269   12.577869226
    1.147579299   13.311906052    5.117326381   12.595815635
    1.154757930   13.333720697    5.124694935   12.613900055
    1.161936561   13.355854094    5.131906138   12.632133889
    1.169115192   13.378384022    5.138988132   12.650528259
    1.176293823   13.401399806    5.145965083   12.669094470
    1.183472454   13.425007739    5.152858073   12.687844508
    1.190651085   13.449338297    5.159685825   12.706791643
    1.197829716   13.474556012    5.166465368   12.725951196
    1.205008347   13.500873188    5.173212639   12.745341554
    1.212186978   13.528568839    5.179943110   12.764985544
    1.219365609   13.558013700    5.186672444   12.784912205
    1.226544240   13.589698317    5.193417159   12.805158787
    1.233722871   13.624244542    5.200194984   12.825771575
    1.240901503   13.662314322    5.207023530   12.846799569
    1.248080134   13.704066390    5.213911654   12.868256708
    1.255258765   13.746772844    5.220821135   12.889956090
    1.262437396   13.775732871    5.227520300   12.910877886
    1.269616027   13.742918502    5.233239869   12.927683842
    1.276794658   13.605898940    5.237300464   12.937425081
    1.283973289   13.491882555    5.241756950   12.948953826
    1.291151920   13.482524832    5.247929680   12.967953412
    1.298330551   13.518841213    5.254871781   12.990323501
    1.305509182   13.563284267    5.261981802   13.013455103
    1.312687813   13.605852973    5.269102234   13.036655589
    1.319866444   13.645024762    5.276212173   13.059822224
    1.327045075   13.681198234    5.283321661   13.082986027
    1.334223706   13.715046840    5.290445176   13.106197251
    1.341402337   13.747159266    5.297595873   13.129500389
    1.348580968   13.777991350    5.304784844   13.152930847
    1.355759599   13.807885829    5.312021471   13.176516342
    1.362938230   13.837100377    5.319313926   13.200278876
    1.370116861   13.865830995    5.326669589   13.224236399
    1.377295492   13.894229371    5.334095383   13.248404047
    1.384474124   13.922415348    5.341598031   13.272795060
    1.391652755   13.950485860    5.349184276   13.297421453
    1.398831386   13.978521408    5.356861069   13.322294535
    1.406010017   14.006590879    5.364635747   13.347425326
    1.413188648   14.034755245    5.372516218   13.372824915
    1.420367279   14.063070570    5.380511172   13.398504806
    1.427545910   14.091590609    5.388630318   13.424477263
    1.434724541   14.120369267    5.396884678   13.450755703
    1.441903172   14.149463149    5.405286965   13.477355173
    1.449081803   14.178934456    5.413852067   13.504292939
    1.456260434   14.208854557    5.422597694   13.531589276
    1.463439065   14.239308605    5.431545253   13.559268527
    1.470617696   14.270401717    5.440721027   13.587360546
    1.477796327   14.302267180    5.450157755   13.615902636
    1.484974958   14.335076597    5.459896624   13.644941980
    1.492153589   14.369049005    5.469989217   13.674537919
    1.499332220   14.404444222    5.480497180   13.704760922
    1.506510851   14.441479187    5.491480076   13.735674914
    1.513689482   14.479920946    5.502933023   13.767249397
    1.520868114   14.517411961    5.514526606   13.798995749
    1.528046745   14.544009877    5.524755692   13.828779426
    1.535225376   14.538695318    5.530396754   13.852061284
    1.542404007   14.514773443    5.533609202   13.871788472
    1.549582638   14.523441614    5.542499294   13.899173844
    1.556761269   14.559242553    5.556349834   13.933103160
    1.563939900   14.603336999    5.572395713   13.969544228
    1.571118531   14.648833890    5.589796205   14.006983702
    1.578297162   14.692643132    5.608366737   14.044327901
    1.585475793   14.728350423    5.627438144   14.078475651
    1.592654424   14.748152487    5.646132070   14.105590252
    1.599833055   14.768612600    5.667313151   14.133961698
    1.607011686   14.805857043    5.691893188   14.171784651
    1.614190317   14.847537044    5.708275058   14.213454685
    1.621368948   14.872846269    5.682552447   14.249841441
    1.628547579   14.868994547    5.589262606   14.274765643
    1.635726210   14.873123442    5.515089714   14.299728428
    1.642904841   14.902712317    5.503837831   14.319299461
    1.650083472   14.935840247    5.512339006   14.313536795
    1.657262104   14.963053447    5.526645915   14.308262204
    1.664440735   14.982538712    5.546020749   14.319391307
    1.671619366   15.010097113    5.567731849   14.348153500
    1.678797997   15.051122201    5.590338884   14.391427112
    1.685976628   15.096869267    5.612354057   14.439060693
    1.693155259   15.143118570    5.633501343   14.486820491
    1.700333890   15.189029998    5.654085359   14.533977002
    1.707512521   15.234717911    5.674541948   14.580749912
    1.714691152   15.280499238    5.695323904   14.627545415
    1.721869783   15.326709140    5.716857001   14.674772834
    1.729048414   15.373614290    5.739368860   14.722748017
    1.736227045   15.421156610    5.762109004   14.771373552
    1.743405676   15.467942702    5.780332233   14.818865119
    1.750584307   15.508502500    5.778053485   14.858288954
    1.757762938   15.534353428    5.739680397   14.878847434
    1.764941569   15.551038879    5.704063165   14.887335381
    1.772120200   15.578255780    5.702660312   14.908700129
    1.779298831   15.622111290    5.721008851   14.950779001
    1.786477462   15.673424101    5.744625056   15.001824187
    1.793656093   15.726937317    5.768530877   15.055024909
    1.800834725   15.781493925    5.791844942   15.108758099
    1.808013356   15.837248595    5.814770531   15.163027369
    1.815191987   15.894727470    5.837743768   15.218250486
    1.822370618   15.954604739    5.861245343   15.274962225
    1.829549249   16.017608961    5.885768129   15.333708919
    1.836727880   16.084198789    5.911763896   15.394776212
    1.843906511   16.153108538    5.939340170   15.457008553
    1.851085142   16.215649591    5.966971640   15.513210638
    1.858263773   16.240976471    5.987829132   15.538280563
    1.865442404   16.193262994    5.991618642   15.503077699
    1.872621035   16.150144488    5.994178177   15.470106581
    1.879799666   16.183134822    6.016641728   15.498560071
    1.886978297   16.245040435    6.036992884   15.558246185
    1.894156928   16.275472621    6.001629950   15.624269682
    1.901335559   16.248160419    5.881669413   15.689405880
    1.908514190   16.242943254    5.796144104   15.753876273
    1.915692821   16.294579194    5.795824031   15.818520915
    1.922871452   16.368199899    5.828700673   15.883281800
    1.930050083   16.445207285    5.866745210   15.948361540
    1.937228715   16.521278518    5.903015608   16.014160817
    1.944407346   16.596254988    5.936744565   16.081122675
    1.951585977   16.670902608    5.968506571   16.149652336
    1.958764608   16.746120034    5.998909842   16.219888178
    1.965943239   16.822712974    6.027833693   16.290746072
    1.973121870   16.901114520    6.052776760   16.356867370
    1.980300501   16.981353216    6.068350170   16.407635302
    1.987479132   17.065767551    6.080164317   16.453298337
    1.994657763   17.158426488    6.102464557   16.520521164
    2.001836394   17.259445164    6.133032189   16.605229335
    2.009015025   17.363676484    6.166219135   16.697679111
    2.016193656   17.446743961    6.196043806   16.790028221
    2.023372287   17.429560637    6.207707730   16.860427087
    2.030550918   17.238370055    6.188641380   16.857361047
    2.037729549   17.056154224    6.171121616   16.783348860
    2.044908180   17.022903111    6.168280137   16.753988989
    2.052086811   17.072660937    6.170253577   16.788258223
    2.059265442   17.162123685    6.178406499   16.857239295
    2.066444073   17.261842908    6.184722851   16.934028996
    2.073622705   17.359570449    6.192588165   17.014334899
    2.080801336   17.456183282    6.211194359   17.103911543
    2.087979967   17.553770788    6.243511852   17.205152448
    2.095158598   17.651163295    6.281619674   17.312214101
    2.102337229   17.747944284    6.321413342   17.422144741
    2.109515860   17.843005688    6.360971272   17.531860002
    2.116694491   17.929972275    6.394978964   17.628122811
    2.123873122   17.995739710    6.411941050   17.677135324
    2.131051753   18.048594514    6.413752641   17.672486310
    2.138230384   18.110550888    6.411147023   17.652365270
    2.145409015   18.180999460    6.409251829   17.647130658
    2.152587646   18.254979327    6.414500432   17.710295906
    2.159766277   18.303082505    6.389722322   17.811935340
    2.166944908   18.340180590    6.350761986   17.922703277
    2.174123539   18.415184709    6.357841527   18.039884796
    2.181302170   18.517107424    6.396455767   18.160831821
    2.188480801   18.628053346    6.443444390   18.284003589
    2.195659432   18.742931181    6.491451043   18.409880225
    2.202838063   18.861423234    6.538186371   18.538752855
    2.210016694   18.983203328    6.579189520   18.667842999
    2.217195326   19.104320331    6.607150172   18.790417766
    2.224373957   19.215375141    6.628237409   18.900722010
    2.231552588   19.289807592    6.651696046   18.963234693
    2.238731219   19.288554733    6.664225323   18.921810575
    2.245909850   19.273526568    6.672593681   18.889629182
    2.253088481   19.274274524    6.676699434   18.967905296
    2.260267112   19.300012807    6.682374403   19.105464826
    2.267445743   19.383676809    6.704958661   19.259654191
    2.274624374   19.478548955    6.722199059   19.403255254
    2.281803005   19.570761231    6.730487630   19.514345042
    2.288981636   19.645852812    6.718151585   19.565202859
    2.296160267   19.736501563    6.712689973   19.627011407
    2.303338898   19.869711753    6.746661008   19.758260194
    2.310517529   19.995398467    6.786174837   19.891003831
    2.317696160   20.048580560    6.788192690   19.944126456
    2.324874791   20.061879174    6.780762790   19.970975510
    2.332053422   20.137059584    6.818157368   20.081426625
    2.339232053   20.240379947    6.880618601   20.226395153
    2.346410684   20.301710312    6.938243454   20.339174912
    2.353589316   20.363456141    6.974348207   20.438786667
    2.360767947   20.461172961    6.988417521   20.528085286
    2.367946578   20.570223617    6.960303276   20.626453230
    2.375125209   20.686478142    6.904838576   20.780152928
    2.382303840   20.829552245    6.895800275   20.968473539
    2.389482471   20.963416246    6.886363700   21.144194116
    2.396661102   21.032619961    6.837564954   21.263457930
    2.403839733   21.036971711    6.801985653   21.343204848
    2.411018364   21.085861827    6.819996995   21.477110108
    2.418196995   21.204232935    6.866312640   21.680005963
    2.425375626   21.363606122    6.926791887   21.912196306
    2.432554257   21.543870337    6.995568170   22.151402995
    2.439732888   21.722336580    7.064440006   22.376022577
    2.446911519   21.884370658    7.129702923   22.562179721
    2.454090150   22.047462205    7.194433184   22.755190201
    2.461268781   22.228187531    7.259976709   22.998886787
    2.468447412   22.403741904    7.317532126   23.245339036
    2.475626043   22.566415708    7.369345621   23.468821481
    2.482804674   22.722772463    7.432037853   23.661983497
    2.489983306   22.824426769    7.500701885   23.743714739
    2.497161937   22.887894006    7.577755905   23.813453737
    2.504340568   23.020977414    7.650354430   24.039936805
    2.511519199   23.207623284    7.658712921   24.353751245
    2.518697830   23.389058158    7.584679669   24.641186909
    2.525876461   23.561396141    7.520309300   24.866031119
    2.533055092   23.671214732    7.417935882   24.939544182
    2.540233723   23.666115416    7.208508152   24.781379067
