# energy grid [eV]     epsr_x  epsr_y  epsr_z
#
    0.200000000   16.952097942   16.884323629    9.236771043
    0.207178631   16.955982800   16.888179455    9.238415845
    0.214357262   16.960006739   16.892173317    9.240119377
    0.221535893   16.964169980   16.896305433    9.241881717
    0.228714524   16.968472751   16.900576028    9.243702945
    0.235893155   16.972915288   16.904985336    9.245583142
    0.243071786   16.977497834   16.909533599    9.247522393
    0.250250417   16.982220641   16.914221064    9.249520787
    0.257429048   16.987083968   16.919047990    9.251578414
    0.264607679   16.992088085   16.924014641    9.253695367
    0.271786311   16.997233265   16.929121289    9.255871743
    0.278964942   17.002519793   16.934368216    9.258107640
    0.286143573   17.007947960   16.939755710    9.260403160
    0.293322204   17.013518067   16.945284068    9.262758407
    0.300500835   17.019230422   16.950953595    9.265173489
    0.307679466   17.025085341   16.956764604    9.267648515
    0.314858097   17.031083149   16.962717417    9.270183600
    0.322036728   17.037224180   16.968812363    9.272778858
    0.329215359   17.043508773   16.975049780    9.275434409
    0.336393990   17.049937281   16.981430015    9.278150373
    0.343572621   17.056510060   16.987953421    9.280926876
    0.350751252   17.063227479   16.994620363    9.283764045
    0.357929883   17.070089912   17.001431211    9.286662011
    0.365108514   17.077097743   17.008386346    9.289620906
    0.372287145   17.084251367   17.015486157    9.292640867
    0.379465776   17.091551183   17.022731041    9.295722034
    0.386644407   17.098997604   17.030121404    9.298864548
    0.393823038   17.106591048   17.037657662    9.302068554
    0.401001669   17.114331944   17.045340238    9.305334203
    0.408180301   17.122220729   17.053169565    9.308661643
    0.415358932   17.130257850   17.061146084    9.312051031
    0.422537563   17.138443763   17.069270248    9.315502524
    0.429716194   17.146778931   17.077542515    9.319016282
    0.436894825   17.155263831   17.085963355    9.322592470
    0.444073456   17.163898944   17.094533246    9.326231253
    0.451252087   17.172684764   17.103252676    9.329932803
    0.458430718   17.181621794   17.112122142    9.333697293
    0.465609349   17.190710546   17.121142151    9.337524899
    0.472787980   17.199951541   17.130313219    9.341415801
    0.479966611   17.209345312   17.139635872    9.345370182
    0.487145242   17.218892398   17.149110646    9.349388229
    0.494323873   17.228593353   17.158738085    9.353470132
    0.501502504   17.238448736   17.168518746    9.357616082
    0.508681135   17.248459120   17.178453193    9.361826278
    0.515859766   17.258625086   17.188542002    9.366100918
    0.523038397   17.268947225   17.198785759    9.370440205
    0.530217028   17.279426141   17.209185058    9.374844347
    0.537395659   17.290062446   17.219740507    9.379313553
    0.544574290   17.300856762   17.230452722    9.383848037
    0.551752922   17.311809725   17.241322330    9.388448016
    0.558931553   17.322921978   17.252349969    9.393113710
    0.566110184   17.334194178   17.263536287    9.397845345
    0.573288815   17.345626990   17.274881943    9.402643147
    0.580467446   17.357221092   17.286387609    9.407507348
    0.587646077   17.368977174   17.298053964    9.412438184
    0.594824708   17.380895935   17.309881703    9.417435893
    0.602003339   17.392978087   17.321871527    9.422500717
    0.609181970   17.405224352   17.334024154    9.427632904
    0.616360601   17.417635466   17.346340309    9.432832702
    0.623539232   17.430212175   17.358820731    9.438100367
    0.630717863   17.442955237   17.371466171    9.443436155
    0.637896494   17.455865423   17.384277389    9.448840329
    0.645075125   17.468943515   17.397255160    9.454313154
    0.652253756   17.482190308   17.410400270    9.459854899
    0.659432387   17.495606609   17.423713518    9.465465839
    0.666611018   17.509193238   17.437195715    9.471146251
    0.673789649   17.522951028   17.450847683    9.476896417
    0.680968280   17.536880824   17.464670259    9.482716622
    0.688146912   17.550983483   17.478664292    9.488607157
    0.695325543   17.565259879   17.492830644    9.494568315
    0.702504174   17.579710894   17.507170190    9.500600396
    0.709682805   17.594337428   17.521683817    9.506703702
    0.716861436   17.609140392   17.536372428    9.512878539
    0.724040067   17.624120711   17.551236938    9.519125220
    0.731218698   17.639279326   17.566278277    9.525444060
    0.738397329   17.654617189   17.581497386    9.531835380
    0.745575960   17.670135268   17.596895224    9.538299503
    0.752754591   17.685834546   17.612472761    9.544836760
    0.759933222   17.701716019   17.628230984    9.551447485
    0.767111853   17.717780699   17.644170893    9.558132016
    0.774290484   17.734029613   17.660293504    9.564890695
    0.781469115   17.750463801   17.676599845    9.571723873
    0.788647746   17.767084315   17.693090954    9.578631899
    0.795826377   17.783892208   17.709767865    9.585615134
    0.803005008   17.800888541   17.726631616    9.592673939
    0.810183639   17.818074462   17.743683360    9.599808681
    0.817362270   17.835451148   17.760924282    9.607019733
    0.824540902   17.853019711   17.778355476    9.614307473
    0.831719533   17.870781283   17.795978050    9.621672282
    0.838898164   17.888737028   17.813793152    9.629114550
    0.846076795   17.906888130   17.831801954    9.636634669
    0.853255426   17.925235794   17.850005646    9.644233036
    0.860434057   17.943781240   17.868405436    9.651910057
    0.867612688   17.962525709   17.887002549    9.659666140
    0.874791319   17.981470457   17.905798228    9.667501699
    0.881969950   18.000616759   17.924793733    9.675417154
    0.889148581   18.019965908   17.943990343    9.683412932
    0.896327212   18.039519217   17.963389356    9.691489463
    0.903505843   18.059278015   17.982992086    9.699647184
    0.910684474   18.079243654   18.002799869    9.707886539
    0.917863105   18.099417501   18.022814058    9.716207976
    0.925041736   18.119800945   18.043036026    9.724611950
    0.932220367   18.140395392   18.063467166    9.733098921
    0.939398998   18.161202276   18.084108890    9.741669356
    0.946577629   18.182223050   18.104962634    9.750323728
    0.953756260   18.203459183   18.126029850    9.759062517
    0.960934891   18.224912165   18.147312013    9.767886207
    0.968113523   18.246583509   18.168810618    9.776795290
    0.975292154   18.268474750   18.190527182    9.785790265
    0.982470785   18.290587444   18.212463245    9.794871637
    0.989649416   18.312923172   18.234620368    9.804039917
    0.996828047   18.335483536   18.257000135    9.813295623
    1.004006678   18.358270160   18.279604151    9.822639280
    1.011185309   18.381284694   18.302434047    9.832071421
    1.018363940   18.404528810   18.325491475    9.841592583
    1.025542571   18.428004205   18.348778112    9.851203314
    1.032721202   18.451712600   18.372295660    9.860904165
    1.039899833   18.475655741   18.396045843    9.870695698
    1.047078464   18.499835400   18.420030413    9.880578481
    1.054257095   18.524253373   18.444251145    9.890553087
    1.061435726   18.548911483   18.468709842    9.900620101
    1.068614357   18.573811580   18.493408329    9.910780111
    1.075792988   18.598955541   18.518348463    9.921033718
    1.082971619   18.624345268   18.543532123    9.931381525
    1.090150250   18.649982695   18.568961219    9.941824148
    1.097328881   18.675869779   18.594637687    9.952362209
    1.104507513   18.702008511   18.620563492    9.962996336
    1.111686144   18.728400906   18.646740627    9.973727170
    1.118864775   18.755049012   18.673171115    9.984555357
    1.126043406   18.781954907   18.699857007    9.995481552
    1.133222037   18.809120697   18.726800387   10.006506419
    1.140400668   18.836548522   18.754003367   10.017630631
    1.147579299   18.864240552   18.781468092   10.028854871
    1.154757930   18.892198989   18.809196737   10.040179827
    1.161936561   18.920426068   18.837191511   10.051606202
    1.169115192   18.948924058   18.865454653   10.063134703
    1.176293823   18.977695260   18.893988439   10.074766049
    1.183472454   19.006742010   18.922795176   10.086500968
    1.190651085   19.036066681   18.951877207   10.098340199
    1.197829716   19.065671678   18.981236908   10.110284489
    1.205008347   19.095559444   19.010876694   10.122334595
    1.212186978   19.125732460   19.040799012   10.134491285
    1.219365609   19.156193241   19.071006350   10.146755337
    1.226544240   19.186944344   19.101501232   10.159127540
    1.233722871   19.217988361   19.132286217   10.171608693
    1.240901503   19.249327926   19.163363909   10.184199605
    1.248080134   19.280965712   19.194736947   10.196901097
    1.255258765   19.312904434   19.226408011   10.209714001
    1.262437396   19.345146846   19.258379823   10.222639161
    1.269616027   19.377695747   19.290655146   10.235677429
    1.276794658   19.410553973   19.323236780   10.248829670
    1.283973289   19.443724399   19.356127560   10.262096755
    1.291151920   19.477209942   19.389330364   10.275479566
    1.298330551   19.511013591   19.422848156   10.288979015
    1.305509182   19.545138391   19.456683935   10.302596035
    1.312687813   19.579587410   19.490840726   10.316331552
    1.319866444   19.614363763   19.525321618   10.330186497
    1.327045075   19.649470613   19.560129735   10.344161817
    1.334223706   19.684911167   19.595268240   10.358258479
    1.341402337   19.720688687   19.630740349   10.372477459
    1.348580968   19.756806491   19.666549339   10.386819749
    1.355759599   19.793267949   19.702698536   10.401286357
    1.362938230   19.830076486   19.739191321   10.415878302
    1.370116861   19.867235580   19.776031128   10.430596618
    1.377295492   19.904748766   19.813221447   10.445442354
    1.384474124   19.942619636   19.850765823   10.460416572
    1.391652755   19.980851839   19.888667858   10.475520352
    1.398831386   20.019449085   19.926931214   10.490754786
    1.406010017   20.058415142   19.965559611   10.506120983
    1.413188648   20.097753840   20.004556825   10.521620068
    1.420367279   20.137469065   20.043926695   10.537253180
    1.427545910   20.177564769   20.083673131   10.553021477
    1.434724541   20.218044968   20.123800096   10.568926132
    1.441903172   20.258913761   20.164311631   10.584968335
    1.449081803   20.300175344   20.205211865   10.601149292
    1.456260434   20.341833940   20.246504969   10.617470225
    1.463439065   20.383893829   20.288195171   10.633932373
    1.470617696   20.426359376   20.330286779   10.650536997
    1.477796327   20.469235026   20.372784178   10.667285382
    1.484974958   20.512525299   20.415691828   10.684178827
    1.492153589   20.556234791   20.459014263   10.701218638
    1.499332220   20.600368177   20.502756098   10.718406130
    1.506510851   20.644930213   20.546922024   10.735742669
    1.513689482   20.689925737   20.591516815   10.753229664
    1.520868114   20.735359670   20.636545326   10.770868506
    1.528046745   20.781237020   20.682012497   10.788660596
    1.535225376   20.827562881   20.727923353   10.806607367
    1.542404007   20.874342436   20.774283008   10.824710275
    1.549582638   20.921580963   20.821096667   10.842970800
    1.556761269   20.969283829   20.868369624   10.861390444
    1.563939900   21.017456498   20.916107270   10.879970732
    1.571118531   21.066104532   20.964315089   10.898713211
    1.578297162   21.115233592   21.012998666   10.917619453
    1.585475793   21.164849435   21.062163679   10.936691049
    1.592654424   21.214957924   21.111815910   10.955929619
    1.599833055   21.265565042   21.161961256   10.975336806
    1.607011686   21.316676882   21.212605726   10.994914285
    1.614190317   21.368299639   21.263755432   11.014663755
    1.621368948   21.420439602   21.315416574   11.034586936
    1.628547579   21.473103169   21.367595456   11.054685573
    1.635726210   21.526296917   21.420298567   11.074961442
    1.642904841   21.580027570   21.473532543   11.095416345
    1.650083472   21.634301904   21.527304064   11.116052116
    1.657262104   21.689126823   21.581619932   11.136870614
    1.664440735   21.744509374   21.636487095   11.157873730
    1.671619366   21.800456746   21.691912639   11.179063385
    1.678797997   21.856976267   21.747903787   11.200441530
    1.685976628   21.914075405   21.804467903   11.222010147
    1.693155259   21.971761776   21.861612491   11.243771251
    1.700333890   22.030043140   21.919345203   11.265726888
    1.707512521   22.088927415   21.977673840   11.287879140
    1.714691152   22.148422670   22.036606357   11.310230121
    1.721869783   22.208537137   22.096150865   11.332781978
    1.729048414   22.269279209   22.156315637   11.355536897
    1.736227045   22.330657439   22.217109102   11.378497098
    1.743405676   22.392680535   22.278539843   11.401664839
    1.750584307   22.455357391   22.340616627   11.425042414
    1.757762938   22.518697183   22.403348488   11.448632156
    1.764941569   22.582709233   22.466744605   11.472436439
    1.772120200   22.647402978   22.530814280   11.496457674
    1.779298831   22.712788066   22.595567022   11.520698316
    1.786477462   22.778874337   22.661012532   11.545160859
    1.793656093   22.845671775   22.727160668   11.569847837
    1.800834725   22.913190480   22.794021403   11.594761824
    1.808013356   22.981441051   22.861605089   11.619905445
    1.815191987   23.050434663   22.929922682   11.645281391
    1.822370618   23.120182336   22.998985134   11.670892391
    1.829549249   23.190695094   23.068803315   11.696741201
    1.836727880   23.261984294   23.139388397   11.722830631
    1.843906511   23.334061616   23.210751878   11.749163545
    1.851085142   23.406939015   23.282905532   11.775742857
    1.858263773   23.480628722   23.355861402   11.802571537
    1.865442404   23.555143240   23.429631795   11.829652606
    1.872621035   23.630495355   23.504229269   11.856989137
    1.879799666   23.706698136   23.579666593   11.884584261
    1.886978297   23.783764917   23.655956769   11.912441164
    1.894156928   23.861709227   23.733113252   11.940563095
    1.901335559   23.940544682   23.811149528   11.968953351
    1.908514190   24.020285343   23.890079723   11.997615300
    1.915692821   24.100946045   23.969918929   12.026552384
    1.922871452   24.182542441   24.050682015   12.055768097
    1.930050083   24.265090131   24.132383757   12.085265984
    1.937228715   24.348604645   24.215039596   12.115049679
    1.944407346   24.433101952   24.298665745   12.145122902
    1.951585977   24.518599036   24.383278528   12.175489393
    1.958764608   24.605112620   24.468894306   12.206152906
    1.965943239   24.692659656   24.555529868   12.237117405
    1.973121870   24.781257726   24.643202565   12.268387021
    1.980300501   24.870924985   24.731930327   12.299965798
    1.987479132   24.961680231   24.821731710   12.331857840
    1.994657763   25.053542619   24.912625505   12.364067368
    2.001836394   25.146531694   25.004630911   12.396598685
    2.009015025   25.240667532   25.097767677   12.429456186
    2.016193656   25.335970763   25.192056096   12.462644358
    2.023372287   25.432462565   25.287516998   12.496167782
    2.030550918   25.530164665   25.384171752   12.530031131
    2.037729549   25.629099323   25.482042254   12.564239172
    2.044908180   25.729289236   25.581150845   12.598796760
    2.052086811   25.830757582   25.681520350   12.633708844
    2.059265442   25.933528994   25.783174950   12.668980522
    2.066444073   26.037629114   25.886139788   12.704617016
    2.073622705   26.143083253   25.990439769   12.740623600
    2.080801336   26.249917371   26.096100441   12.777005658
    2.087979967   26.358158367   26.203148261   12.813768701
    2.095158598   26.467834008   26.311610525   12.850918363
    2.102337229   26.578972911   26.421515356   12.888460400
    2.109515860   26.691604494   26.532891669   12.926400697
    2.116694491   26.805758997   26.645769189   12.964745264
    2.123873122   26.921467453   26.760178422   13.003500247
    2.131051753   27.038761547   26.876150521   13.042671924
    2.138230384   27.157674126   26.993717771   13.082266718
    2.145409015   27.278240450   27.112914780   13.122291201
    2.152587646   27.400496139   27.233776537   13.162752087
    2.159766277   27.524476918   27.356338164   13.203656218
    2.166944908   27.650219893   27.480636101   13.245010559
    2.174123539   27.777763625   27.606708162   13.286822294
    2.181302170   27.907147952   27.734593520   13.329098948
    2.188480801   28.038414006   27.864332662   13.371848086
    2.195659432   28.171604281   27.995967338   13.415077353
    2.202838063   28.306762654   28.129540590   13.458794614
    2.210016694   28.443934487   28.265096925   13.503007949
    2.217195326   28.583166697   28.402682459   13.547725641
    2.224373957   28.724507816   28.542344891   13.592956179
    2.231552588   28.868008063   28.684133510   13.638708261
    2.238731219   29.013719426   28.828099344   13.684990801
    2.245909850   29.161695749   28.974295251   13.731812938
    2.253088481   29.311992816   29.122775998   13.779184044
    2.260267112   29.464668453   29.273598348   13.827113725
    2.267445743   29.619782616   29.426821156   13.875611814
    2.274624374   29.777397481   29.582505444   13.924688302
    2.281803005   29.937577498   29.740714454   13.974353173
    2.288981636   30.100389580   29.901513853   14.024616629
    2.296160267   30.265903476   30.064972168   14.075489960
    2.303338898   30.434191564   30.231160477   14.126984310
    2.310517529   30.605329417   30.400152881   14.179111977
    2.317696160   30.779395586   30.572026538   14.231885850
    2.324874791   30.956471094   30.746861312   14.285317505
    2.332053422   31.136640776   30.924740339   14.339418828
    2.339232053   31.319994094   31.105750185   14.394202468
    2.346410684   31.506623485   31.289981200   14.449681571
    2.353589316   31.696624934   31.477528658   14.505869696
    2.360767947   31.890098691   31.668491513   14.562780718
    2.367946578   32.087149416   31.862972190   14.620428732
    2.375125209   32.287887308   32.061078711   14.678828464
    2.382303840   32.492428559   32.262924463   14.737995747
    2.389482471   32.700894062   32.468627294   14.797946398
    2.396661102   32.913409888   32.678311233   14.858696304
    2.403839733   33.130108502   32.892107456   14.920261920
    2.411018364   33.351128740   33.110151873   14.982660098
    2.418196995   33.576616448   33.332586912   15.045908400
    2.425375626   33.806725097   33.559563164   15.110025564
    2.432554257   34.041615769   33.791238599   15.175030594
    2.439732888   34.281458868   34.027779852   15.240942598
    2.446911519   34.526433594   34.269361653   15.307781340
    2.454090150   34.776727857   34.516167564   15.375567323
    2.461268781   35.032545866   34.768400342   15.444322145
    2.468447412   35.294101489   35.026270582   15.514068004
    2.475626043   35.561616386   35.289994377   15.584827541
    2.482804674   35.835325761   35.559802262   15.656624188
    2.489983306   36.115479327   35.835939731   15.729482059
    2.497161937   36.402346032   36.118670283   15.803426314
    2.504340568   36.696218827   36.408278712   15.878483608
    2.511519199   36.997401561   36.705062154   15.954680911
    2.518697830   37.306214522   37.009334653   16.032045744
    2.525876461   37.623004683   37.321437524   16.110607291
    2.533055092   37.948145634   37.641738574   16.190396103
    2.540233723   38.282034789   37.970626940   16.271443224
