# energy grid [eV]     ieps_x  ieps_y  ieps_z
#
    0.200000000   10.751839361   10.693749139    5.479305749
    0.207178631   10.749438124   10.691368562    5.478359446
    0.214357262   10.746953517   10.688905329    5.477380212
    0.221535893   10.744385672   10.686359572    5.476368092
    0.228714524   10.741734730   10.683731427    5.475323131
    0.235893155   10.739000831   10.681021036    5.474245379
    0.243071786   10.736184122   10.678228543    5.473134883
    0.250250417   10.733284756   10.675354098    5.471991696
    0.257429048   10.730302886   10.672397854    5.470815868
    0.264607679   10.727238673   10.669359970    5.469607455
    0.271786311   10.724092281   10.666240608    5.468366511
    0.278964942   10.720863877   10.663039933    5.467093093
    0.286143573   10.717553635   10.659758117    5.465787258
    0.293322204   10.714161729   10.656395333    5.464449067
    0.300500835   10.710688342   10.652951760    5.463078579
    0.307679466   10.707133657   10.649427581    5.461675858
    0.314858097   10.703497864   10.645822983    5.460240967
    0.322036728   10.699781156   10.642138157    5.458773971
    0.329215359   10.695983728   10.638373296    5.457274936
    0.336393990   10.692105783   10.634528601    5.455743930
    0.343572621   10.688147525   10.630604273    5.454181023
    0.350751252   10.684109163   10.626600519    5.452586285
    0.357929883   10.679990910   10.622517549    5.450959787
    0.365108514   10.675792983   10.618355579    5.449301604
    0.372287145   10.671515602   10.614114826    5.447611809
    0.379465776   10.667158991   10.609795512    5.445890478
    0.386644407   10.662723379   10.605397863    5.444137689
    0.393823038   10.658208998   10.600922108    5.442353521
    0.401001669   10.653616084   10.596368481    5.440538052
    0.408180301   10.648944876   10.591737218    5.438691365
    0.415358932   10.644195617   10.587028560    5.436813541
    0.422537563   10.639368555   10.582242752    5.434904664
    0.429716194   10.634463939   10.577380040    5.432964820
    0.436894825   10.629482025   10.572440677    5.430994094
    0.444073456   10.624423069   10.567424917    5.428992573
    0.451252087   10.619287332   10.562333018    5.426960347
    0.458430718   10.614075080   10.557165243    5.424897505
    0.465609349   10.608786580   10.551921855    5.422804139
    0.472787980   10.603422104   10.546603125    5.420680341
    0.479966611   10.597981928   10.541209324    5.418526203
    0.487145242   10.592466328   10.535740727    5.416341822
    0.494323873   10.586875587   10.530197612    5.414127292
    0.501502504   10.581209990   10.524580262    5.411882711
    0.508681135   10.575469825   10.518888962    5.409608178
    0.515859766   10.569655383   10.513123999    5.407303790
    0.523038397   10.563766958   10.507285665    5.404969649
    0.530217028   10.557804849   10.501374255    5.402605857
    0.537395659   10.551769356   10.495390066    5.400212515
    0.544574290   10.545660782   10.489333398    5.397789728
    0.551752922   10.539479436   10.483204555    5.395337601
    0.558931553   10.533225625   10.477003843    5.392856239
    0.566110184   10.526899664   10.470731572    5.390345750
    0.573288815   10.520501868   10.464388054    5.387806242
    0.580467446   10.514032555   10.457973604    5.385237823
    0.587646077   10.507492046   10.451488539    5.382640604
    0.594824708   10.500880667   10.444933182    5.380014696
    0.602003339   10.494198742   10.438307854    5.377360211
    0.609181970   10.487446603   10.431612882    5.374677262
    0.616360601   10.480624582   10.424848595    5.371965963
    0.623539232   10.473733013   10.418015323    5.369226430
    0.630717863   10.466772233   10.411113401    5.366458778
    0.637896494   10.459742583   10.404143166    5.363663125
    0.645075125   10.452644406   10.397104955    5.360839588
    0.652253756   10.445478045   10.389999110    5.357988287
    0.659432387   10.438243849   10.382825975    5.355109340
    0.666611018   10.430942168   10.375585897    5.352202869
    0.673789649   10.423573353   10.368279222    5.349268995
    0.680968280   10.416137759   10.360906302    5.346307840
    0.688146912   10.408635743   10.353467491    5.343319528
    0.695325543   10.401067663   10.345963142    5.340304183
    0.702504174   10.393433881   10.338393613    5.337261930
    0.709682805   10.385734759   10.330759264    5.334192895
    0.716861436   10.377970664   10.323060456    5.331097204
    0.724040067   10.370141962   10.315297552    5.327974984
    0.731218698   10.362249023   10.307470918    5.324826364
    0.738397329   10.354292218   10.299580922    5.321651472
    0.745575960   10.346271920   10.291627932    5.318450439
    0.752754591   10.338188505   10.283612320    5.315223395
    0.759933222   10.330042350   10.275534459    5.311970470
    0.767111853   10.321833833   10.267394724    5.308691797
    0.774290484   10.313563334   10.259193491    5.305387509
    0.781469115   10.305231238   10.250931138    5.302057738
    0.788647746   10.296837926   10.242608046    5.298702619
    0.795826377   10.288383785   10.234224596    5.295322286
    0.803005008   10.279869202   10.225781170    5.291916874
    0.810183639   10.271294566   10.217278155    5.288486520
    0.817362270   10.262660266   10.208715936    5.285031360
    0.824540902   10.253966695   10.200094900    5.281551531
    0.831719533   10.245214246   10.191415437    5.278047171
    0.838898164   10.236403314   10.182677938    5.274518419
    0.846076795   10.227534293   10.173882793    5.270965412
    0.853255426   10.218607582   10.165030396    5.267388292
    0.860434057   10.209623579   10.156121141    5.263787197
    0.867612688   10.200582684   10.147155424    5.260162269
    0.874791319   10.191485296   10.138133641    5.256513648
    0.881969950   10.182331820   10.129056191    5.252841476
    0.889148581   10.173122656   10.119923472    5.249145896
    0.896327212   10.163858210   10.110735884    5.245427050
    0.903505843   10.154538887   10.101493829    5.241685082
    0.910684474   10.145165093   10.092197708    5.237920133
    0.917863105   10.135737235   10.082847924    5.234132350
    0.925041736   10.126255721   10.073444881    5.230321876
    0.932220367   10.116720960   10.063988984    5.226488856
    0.939398998   10.107133362   10.054480637    5.222633435
    0.946577629   10.097493336   10.044920249    5.218755760
    0.953756260   10.087801295   10.035308224    5.214855976
    0.960934891   10.078057650   10.025644972    5.210934229
    0.968113523   10.068262814   10.015930900    5.206990667
    0.975292154   10.058417199   10.006166418    5.203025437
    0.982470785   10.048521220    9.996351934    5.199038686
    0.989649416   10.038575292    9.986487860    5.195030562
    0.996828047   10.028579828    9.976574606    5.191001213
    1.004006678   10.018535244    9.966612583    5.186950788
    1.011185309   10.008441956    9.956602202    5.182879435
    1.018363940    9.998300381    9.946543875    5.178787304
    1.025542571    9.988110934    9.936438016    5.174674544
    1.032721202    9.977874032    9.926285036    5.170541303
    1.039899833    9.967590093    9.916085348    5.166387733
    1.047078464    9.957259534    9.905839366    5.162213983
    1.054257095    9.946882773    9.895547503    5.158020203
    1.061435726    9.936460227    9.885210172    5.153806544
    1.068614357    9.925992314    9.874827788    5.149573156
    1.075792988    9.915479452    9.864400764    5.145320190
    1.082971619    9.904922060    9.853929514    5.141047797
    1.090150250    9.894320555    9.843414453    5.136756128
    1.097328881    9.883675356    9.832855993    5.132445335
    1.104507513    9.872986881    9.822254550    5.128115568
    1.111686144    9.862255547    9.811610536    5.123766980
    1.118864775    9.851481773    9.800924367    5.119399722
    1.126043406    9.840665977    9.790196455    5.115013946
    1.133222037    9.829808577    9.779427214    5.110609803
    1.140400668    9.818909988    9.768617058    5.106187445
    1.147579299    9.807970630    9.757766399    5.101747025
    1.154757930    9.796990919    9.746875651    5.097288694
    1.161936561    9.785971272    9.735945226    5.092812605
    1.169115192    9.774912104    9.724975536    5.088318909
    1.176293823    9.763813833    9.713966993    5.083807759
    1.183472454    9.752676873    9.702920010    5.079279307
    1.190651085    9.741501640    9.691834997    5.074733704
    1.197829716    9.730288548    9.680712364    5.070171104
    1.205008347    9.719038012    9.669552522    5.065591658
    1.212186978    9.707750446    9.658355882    5.060995518
    1.219365609    9.696426263    9.647122851    5.056382836
    1.226544240    9.685065875    9.635853839    5.051753765
    1.233722871    9.673669694    9.624549254    5.047108455
    1.240901503    9.662238133    9.613209503    5.042447060
    1.248080134    9.650771601    9.601834993    5.037769730
    1.255258765    9.639270509    9.590426130    5.033076618
    1.262437396    9.627735266    9.578983321    5.028367874
    1.269616027    9.616166281    9.567506969    5.023643652
    1.276794658    9.604563961    9.555997478    5.018904100
    1.283973289    9.592928715    9.544455252    5.014149372
    1.291151920    9.581260947    9.532880693    5.009379618
    1.298330551    9.569561065    9.521274204    5.004594989
    1.305509182    9.557829471    9.509636184    4.999795635
    1.312687813    9.546066570    9.497967033    4.994981708
    1.319866444    9.534272765    9.486267151    4.990153358
    1.327045075    9.522448458    9.474536935    4.985310734
    1.334223706    9.510594048    9.462776783    4.980453988
    1.341402337    9.498709937    9.450987091    4.975583268
    1.348580968    9.486796523    9.439168253    4.970698725
    1.355759599    9.474854204    9.427320665    4.965800507
    1.362938230    9.462883377    9.415444719    4.960888764
    1.370116861    9.450884437    9.403540807    4.955963646
    1.377295492    9.438857779    9.391609320    4.951025300
    1.384474124    9.426803797    9.379650648    4.946073875
    1.391652755    9.414722882    9.367665180    4.941109519
    1.398831386    9.402615427    9.355653302    4.936132380
    1.406010017    9.390481820    9.343615403    4.931142606
    1.413188648    9.378322451    9.331551866    4.926140343
    1.420367279    9.366137707    9.319463076    4.921125740
    1.427545910    9.353927975    9.307349415    4.916098942
    1.434724541    9.341693639    9.295211265    4.911060097
    1.441903172    9.329435083    9.283049007    4.906009350
    1.449081803    9.317152690    9.270863018    4.900946847
    1.456260434    9.304846840    9.258653677    4.895872733
    1.463439065    9.292517915    9.246421361    4.890787154
    1.470617696    9.280166291    9.234166443    4.885690254
    1.477796327    9.267792345    9.221889299    4.880582178
    1.484974958    9.255396455    9.209590299    4.875463069
    1.492153589    9.242978993    9.197269815    4.870333072
    1.499332220    9.230540332    9.184928216    4.865192329
    1.506510851    9.218080845    9.172565870    4.860040984
    1.513689482    9.205600900    9.160183145    4.854879179
    1.520868114    9.193100866    9.147780404    4.849707056
    1.528046745    9.180581110    9.135358012    4.844524758
    1.535225376    9.168041997    9.122916330    4.839332424
    1.542404007    9.155483892    9.110455720    4.834130196
    1.549582638    9.142907156    9.097976541    4.828918215
    1.556761269    9.130312151    9.085479149    4.823696621
    1.563939900    9.117699235    9.072963902    4.818465553
    1.571118531    9.105068767    9.060431154    4.813225151
    1.578297162    9.092421102    9.047881258    4.807975552
    1.585475793    9.079756594    9.035314564    4.802716896
    1.592654424    9.067075598    9.022731424    4.797449320
    1.599833055    9.054378463    9.010132185    4.792172962
    1.607011686    9.041665540    8.997517193    4.786887959
    1.614190317    9.028937176    8.984886794    4.781594447
    1.621368948    9.016193717    8.972241331    4.776292561
    1.628547579    9.003435509    8.959581146    4.770982438
    1.635726210    8.990662894    8.946906578    4.765664213
    1.642904841    8.977876214    8.934217965    4.760338019
    1.650083472    8.965075807    8.921515646    4.755003991
    1.657262104    8.952262013    8.908799954    4.749662263
    1.664440735    8.939435166    8.896071222    4.744312968
    1.671619366    8.926595601    8.883329783    4.738956237
    1.678797997    8.913743651    8.870575966    4.733592203
    1.685976628    8.900879647    8.857810099    4.728220997
    1.693155259    8.888003918    8.845032508    4.722842751
    1.700333890    8.875116791    8.832243519    4.717457595
    1.707512521    8.862218591    8.819443453    4.712065658
    1.714691152    8.849309644    8.806632633    4.706667070
    1.721869783    8.836390269    8.793811377    4.701261959
    1.729048414    8.823460789    8.780980003    4.695850455
    1.736227045    8.810521521    8.768138827    4.690432684
    1.743405676    8.797572781    8.755288163    4.685008774
    1.750584307    8.784614885    8.742428323    4.679578852
    1.757762938    8.771648146    8.729559617    4.674143043
    1.764941569    8.758672875    8.716682354    4.668701473
    1.772120200    8.745689381    8.703796842    4.663254267
    1.779298831    8.732697971    8.690903384    4.657801549
    1.786477462    8.719698952    8.678002284    4.652343444
    1.793656093    8.706692626    8.665093844    4.646880073
    1.800834725    8.693679297    8.652178363    4.641411561
    1.808013356    8.680659264    8.639256138    4.635938028
    1.815191987    8.667632825    8.626327467    4.630459597
    1.822370618    8.654600277    8.613392641    4.624976388
    1.829549249    8.641561914    8.600451955    4.619488522
    1.836727880    8.628518029    8.587505697    4.613996118
    1.843906511    8.615468913    8.574554158    4.608499295
    1.851085142    8.602414854    8.561597622    4.602998173
    1.858263773    8.589356141    8.548636376    4.597492868
    1.865442404    8.576293057    8.535670701    4.591983498
    1.872621035    8.563225886    8.522700880    4.586470181
    1.879799666    8.550154909    8.509727191    4.580953031
    1.886978297    8.537080407    8.496749911    4.575432165
    1.894156928    8.524002657    8.483769317    4.569907698
    1.901335559    8.510921933    8.470785681    4.564379743
    1.908514190    8.497838511    8.457799276    4.558848415
    1.915692821    8.484752663    8.444810371    4.553313826
    1.922871452    8.471664657    8.431819235    4.547776089
    1.930050083    8.458574763    8.418826133    4.542235316
    1.937228715    8.445483247    8.405831330    4.536691618
    1.944407346    8.432390373    8.392835089    4.531145106
    1.951585977    8.419296404    8.379837669    4.525595889
    1.958764608    8.406201600    8.366839330    4.520044077
    1.965943239    8.393106221    8.353840328    4.514489779
    1.973121870    8.380010522    8.340840919    4.508933103
    1.980300501    8.366914759    8.327841354    4.503374155
    1.987479132    8.353819185    8.314841887    4.497813044
    1.994657763    8.340724052    8.301842765    4.492249876
    2.001836394    8.327629608    8.288844237    4.486684755
    2.009015025    8.314536100    8.275846548    4.481117787
    2.016193656    8.301443776    8.262849941    4.475549077
    2.023372287    8.288352877    8.249854660    4.469978727
    2.030550918    8.275263647    8.236860943    4.464406841
    2.037729549    8.262176324    8.223869029    4.458833522
    2.044908180    8.249091148    8.210879154    4.453258871
    2.052086811    8.236008353    8.197891554    4.447682990
    2.059265442    8.222928175    8.184906460    4.442105978
    2.066444073    8.209850846    8.171924103    4.436527937
    2.073622705    8.196776596    8.158944712    4.430948964
    2.080801336    8.183705655    8.145968515    4.425369159
    2.087979967    8.170638248    8.132995737    4.419788621
    2.095158598    8.157574602    8.120026601    4.414207445
    2.102337229    8.144514939    8.107061328    4.408625729
    2.109515860    8.131459480    8.094100140    4.403043569
    2.116694491    8.118408446    8.081143253    4.397461060
    2.123873122    8.105362054    8.068190883    4.391878298
    2.131051753    8.092320519    8.055243246    4.386295376
    2.138230384    8.079284055    8.042300554    4.380712388
    2.145409015    8.066252876    8.029363017    4.375129427
    2.152587646    8.053227190    8.016430844    4.369546585
    2.159766277    8.040207208    8.003504243    4.363963954
    2.166944908    8.027193134    7.990583419    4.358381625
    2.174123539    8.014185175    7.977668575    4.352799688
    2.181302170    8.001183534    7.964759914    4.347218233
    2.188480801    7.988188411    7.951857635    4.341637349
    2.195659432    7.975200007    7.938961937    4.336057124
    2.202838063    7.962218519    7.926073015    4.330477647
    2.210016694    7.949244142    7.913191065    4.324899005
    2.217195326    7.936277072    7.900316280    4.319321284
    2.224373957    7.923317501    7.887448851    4.313744570
    2.231552588    7.910365619    7.874588968    4.308168948
    2.238731219    7.897421615    7.861736817    4.302594504
    2.245909850    7.884485677    7.848892586    4.297021321
    2.253088481    7.871557990    7.836056457    4.291449483
    2.260267112    7.858638737    7.823228615    4.285879072
    2.267445743    7.845728100    7.810409239    4.280310172
    2.274624374    7.832826260    7.797598510    4.274742862
    2.281803005    7.819933396    7.784796603    4.269177225
    2.288981636    7.807049683    7.772003695    4.263613341
    2.296160267    7.794175298    7.759219961    4.258051289
    2.303338898    7.781310412    7.746445571    4.252491148
    2.310517529    7.768455199    7.733680697    4.246932998
    2.317696160    7.755609828    7.720925509    4.241376916
    2.324874791    7.742774467    7.708180172    4.235822978
    2.332053422    7.729949283    7.695444854    4.230271262
    2.339232053    7.717134441    7.682719717    4.224721845
    2.346410684    7.704330104    7.670004924    4.219174800
    2.353589316    7.691536433    7.657300636    4.213630204
    2.360767947    7.678753590    7.644607013    4.208088130
    2.367946578    7.665981732    7.631924210    4.202548651
    2.375125209    7.653221016    7.619252385    4.197011842
    2.382303840    7.640471596    7.606591692    4.191477774
    2.389482471    7.627733627    7.593942283    4.185946519
    2.396661102    7.615007261    7.581304308    4.180418148
    2.403839733    7.602292647    7.568677919    4.174892732
    2.411018364    7.589589934    7.556063262    4.169370341
    2.418196995    7.576899269    7.543460483    4.163851045
    2.425375626    7.564220798    7.530869729    4.158334911
    2.432554257    7.551554665    7.518291140    4.152822009
    2.439732888    7.538901012    7.505724860    4.147312406
    2.446911519    7.526259979    7.493171028    4.141806169
    2.454090150    7.513631707    7.480629783    4.136303364
    2.461268781    7.501016332    7.468101262    4.130804058
    2.468447412    7.488413991    7.455585600    4.125308316
    2.475626043    7.475824818    7.443082931    4.119816202
    2.482804674    7.463248947    7.430593387    4.114327780
    2.489983306    7.450686509    7.418117100    4.108843115
    2.497161937    7.438137634    7.405654200    4.103362269
    2.504340568    7.425602452    7.393204813    4.097885305
    2.511519199    7.413081088    7.380769066    4.092412284
    2.518697830    7.400573668    7.368347086    4.086943267
    2.525876461    7.388080317    7.355938994    4.081478317
    2.533055092    7.375601158    7.343544913    4.076017492
    2.540233723    7.363136311    7.331164964    4.070560852
