# energy grid [eV]     epsr_x  epsr_y  epsr_z
#
    0.200000000   10.241730589    4.271532334    9.741767440
    0.207178631   10.243486422    4.272118196    9.743656849
    0.214357262   10.245304911    4.272724976    9.745613838
    0.221535893   10.247186132    4.273352699    9.747638508
    0.228714524   10.249130166    4.274001395    9.749730963
    0.235893155   10.251137097    4.274671092    9.751891311
    0.243071786   10.253207010    4.275361821    9.754119663
    0.250250417   10.255339995    4.276073612    9.756416133
    0.257429048   10.257536142    4.276806498    9.758780842
    0.264607679   10.259795547    4.277560511    9.761213910
    0.271786311   10.262118307    4.278335685    9.763715464
    0.278964942   10.264504521    4.279132056    9.766285633
    0.286143573   10.266954292    4.279949660    9.768924551
    0.293322204   10.269467726    4.280788532    9.771632354
    0.300500835   10.272044932    4.281648712    9.774409183
    0.307679466   10.274686020    4.282530238    9.777255182
    0.314858097   10.277391106    4.283433150    9.780170500
    0.322036728   10.280160305    4.284357488    9.783155289
    0.329215359   10.282993739    4.285303296    9.786209705
    0.336393990   10.285891530    4.286270616    9.789333908
    0.343572621   10.288853804    4.287259492    9.792528060
    0.350751252   10.291880689    4.288269969    9.795792330
    0.357929883   10.294972317    4.289302093    9.799126889
    0.365108514   10.298128824    4.290355911    9.802531912
    0.372287145   10.301350346    4.291431472    9.806007578
    0.379465776   10.304637025    4.292528825    9.809554072
    0.386644407   10.307989004    4.293648020    9.813171580
    0.393823038   10.311406430    4.294789109    9.816860293
    0.401001669   10.314889452    4.295952144    9.820620408
    0.408180301   10.318438224    4.297137179    9.824452124
    0.415358932   10.322052901    4.298344268    9.828355643
    0.422537563   10.325733642    4.299573467    9.832331176
    0.429716194   10.329480610    4.300824833    9.836378932
    0.436894825   10.333293970    4.302098425    9.840499129
    0.444073456   10.337173890    4.303394300    9.844691988
    0.451252087   10.341120542    4.304712521    9.848957733
    0.458430718   10.345134100    4.306053147    9.853296593
    0.465609349   10.349214744    4.307416241    9.857708802
    0.472787980   10.353362654    4.308801867    9.862194598
    0.479966611   10.357578014    4.310210091    9.866754223
    0.487145242   10.361861013    4.311640977    9.871387925
    0.494323873   10.366211842    4.313094594    9.876095954
    0.501502504   10.370630695    4.314571010    9.880878567
    0.508681135   10.375117770    4.316070293    9.885736024
    0.515859766   10.379673268    4.317592516    9.890668590
    0.523038397   10.384297395    4.319137750    9.895676535
    0.530217028   10.388990357    4.320706068    9.900760134
    0.537395659   10.393752367    4.322297546    9.905919666
    0.544574290   10.398583639    4.323912257    9.911155415
    0.551752922   10.403484393    4.325550281    9.916467670
    0.558931553   10.408454849    4.327211695    9.921856725
    0.566110184   10.413495234    4.328896578    9.927322879
    0.573288815   10.418605777    4.330605011    9.932866435
    0.580467446   10.423786711    4.332337077    9.938487702
    0.587646077   10.429038272    4.334092859    9.944186995
    0.594824708   10.434360700    4.335872442    9.949964632
    0.602003339   10.439754239    4.337675912    9.955820937
    0.609181970   10.445219137    4.339503356    9.961756240
    0.616360601   10.450755644    4.341354864    9.967770875
    0.623539232   10.456364017    4.343230525    9.973865183
    0.630717863   10.462044514    4.345130431    9.980039509
    0.637896494   10.467797397    4.347054675    9.986294205
    0.645075125   10.473622934    4.349003352    9.992629625
    0.652253756   10.479521395    4.350976557    9.999046134
    0.659432387   10.485493055    4.352974388   10.005544097
    0.666611018   10.491538192    4.354996943   10.012123889
    0.673789649   10.497657089    4.357044323   10.018785889
    0.680968280   10.503850032    4.359116629   10.025530481
    0.688146912   10.510117313    4.361213965   10.032358056
    0.695325543   10.516459226    4.363336435   10.039269012
    0.702504174   10.522876071    4.365484145   10.046263751
    0.709682805   10.529368151    4.367657204   10.053342682
    0.716861436   10.535935772    4.369855720   10.060506220
    0.724040067   10.542579249    4.372079804   10.067754785
    0.731218698   10.549298896    4.374329570   10.075088807
    0.738397329   10.556095034    4.376605130   10.082508719
    0.745575960   10.562967988    4.378906601   10.090014961
    0.752754591   10.569918088    4.381234101   10.097607980
    0.759933222   10.576945668    4.383587748   10.105288229
    0.767111853   10.584051066    4.385967663   10.113056170
    0.774290484   10.591234626    4.388373968   10.120912269
    0.781469115   10.598496695    4.390806787   10.128857000
    0.788647746   10.605837627    4.393266247   10.136890844
    0.795826377   10.613257777    4.395752476   10.145014288
    0.803005008   10.620757509    4.398265601   10.153227829
    0.810183639   10.628337190    4.400805755   10.161531967
    0.817362270   10.635997190    4.403373071   10.169927213
    0.824540902   10.643737887    4.405967683   10.178414083
    0.831719533   10.651559663    4.408589729   10.186993102
    0.838898164   10.659462905    4.411239346   10.195664802
    0.846076795   10.667448003    4.413916676   10.204429722
    0.853255426   10.675515356    4.416621860   10.213288411
    0.860434057   10.683665366    4.419355044   10.222241422
    0.867612688   10.691898440    4.422116373   10.231289321
    0.874791319   10.700214991    4.424905995   10.240432678
    0.881969950   10.708615437    4.427724062   10.249672073
    0.889148581   10.717100202    4.430570725   10.259008094
    0.896327212   10.725669716    4.433446139   10.268441337
    0.903505843   10.734324412    4.436350460   10.277972409
    0.910684474   10.743064732    4.439283848   10.287601921
    0.917863105   10.751891122    4.442246462   10.297330498
    0.925041736   10.760804032    4.445238467   10.307158770
    0.932220367   10.769803922    4.448260026   10.317087378
    0.939398998   10.778891254    4.451311308   10.327116971
    0.946577629   10.788066498    4.454392482   10.337248210
    0.953756260   10.797330130    4.457503720   10.347481761
    0.960934891   10.806682631    4.460645196   10.357818304
    0.968113523   10.816124489    4.463817088   10.368258526
    0.975292154   10.825656199    4.467019573   10.378803125
    0.982470785   10.835278260    4.470252833   10.389452809
    0.989649416   10.844991179    4.473517053   10.400208294
    0.996828047   10.854795470    4.476812418   10.411070311
    1.004006678   10.864691653    4.480139117   10.422039596
    1.011185309   10.874680253    4.483497342   10.433116900
    1.018363940   10.884761805    4.486887286   10.444302982
    1.025542571   10.894936847    4.490309146   10.455598614
    1.032721202   10.905205927    4.493763121   10.467004578
    1.039899833   10.915569599    4.497249413   10.478521667
    1.047078464   10.926028423    4.500768226   10.490150686
    1.054257095   10.936582967    4.504319768   10.501892451
    1.061435726   10.947233807    4.507904249   10.513747792
    1.068614357   10.957981526    4.511521881   10.525717548
    1.075792988   10.968826712    4.515172881   10.537802572
    1.082971619   10.979769964    4.518857467   10.550003729
    1.090150250   10.990811886    4.522575861   10.562321897
    1.097328881   11.001953092    4.526328287   10.574757966
    1.104507513   11.013194201    4.530114973   10.587312839
    1.111686144   11.024535843    4.533936149   10.599987433
    1.118864775   11.035978653    4.537792051   10.612782679
    1.126043406   11.047523277    4.541682913   10.625699520
    1.133222037   11.059170367    4.545608978   10.638738914
    1.140400668   11.070920585    4.549570488   10.651901833
    1.147579299   11.082774599    4.553567690   10.665189262
    1.154757930   11.094733088    4.557600835   10.678602202
    1.161936561   11.106796740    4.561670175   10.692141670
    1.169115192   11.118966248    4.565775968   10.705808695
    1.176293823   11.131242319    4.569918475   10.719604323
    1.183472454   11.143625665    4.574097959   10.733529617
    1.190651085   11.156117010    4.578314688   10.747585654
    1.197829716   11.168717084    4.582568935   10.761773527
    1.205008347   11.181426630    4.586860972   10.776094347
    1.212186978   11.194246399    4.591191081   10.790549241
    1.219365609   11.207177150    4.595559543   10.805139351
    1.226544240   11.220219655    4.599966646   10.819865840
    1.233722871   11.233374694    4.604412679   10.834729887
    1.240901503   11.246643057    4.608897937   10.849732688
    1.248080134   11.260025545    4.613422720   10.864875458
    1.255258765   11.273522969    4.617987330   10.880159431
    1.262437396   11.287136151    4.622592075   10.895585859
    1.269616027   11.300865922    4.627237265   10.911156015
    1.276794658   11.314713127    4.631923216   10.926871189
    1.283973289   11.328678618    4.636650250   10.942732694
    1.291151920   11.342763262    4.641418690   10.958741862
    1.298330551   11.356967935    4.646228865   10.974900044
    1.305509182   11.371293524    4.651081111   10.991208615
    1.312687813   11.385740930    4.655975764   11.007668971
    1.319866444   11.400311065    4.660913170   11.024282527
    1.327045075   11.415004850    4.665893676   11.041050725
    1.334223706   11.429823224    4.670917636   11.057975027
    1.341402337   11.444767133    4.675985408   11.075056917
    1.348580968   11.459837537    4.681097355   11.092297906
    1.355759599   11.475035412    4.686253846   11.109699527
    1.362938230   11.490361742    4.691455256   11.127263338
    1.370116861   11.505817528    4.696701964   11.144990923
    1.377295492   11.521403781    4.701994354   11.162883890
    1.384474124   11.537121530    4.707332817   11.180943874
    1.391652755   11.552971812    4.712717750   11.199172536
    1.398831386   11.568955684    4.718149555   11.217571566
    1.406010017   11.585074213    4.723628639   11.236142680
    1.413188648   11.601328481    4.729155415   11.254887621
    1.420367279   11.617719586    4.734730305   11.273808165
    1.427545910   11.634248641    4.740353735   11.292906113
    1.434724541   11.650916773    4.746026136   11.312183299
    1.441903172   11.667725123    4.751747948   11.331641586
    1.449081803   11.684674852    4.757519615   11.351282869
    1.456260434   11.701767132    4.763341591   11.371109075
    1.463439065   11.719003154    4.769214334   11.391122164
    1.470617696   11.736384125    4.775138309   11.411324128
    1.477796327   11.753911269    4.781113990   11.431716994
    1.484974958   11.771585824    4.787141857   11.452302823
    1.492153589   11.789409049    4.793222396   11.473083714
    1.499332220   11.807382219    4.799356102   11.494061799
    1.506510851   11.825506625    4.805543477   11.515239248
    1.513689482   11.843783580    4.811785032   11.536618270
    1.520868114   11.862214412    4.818081283   11.558201112
    1.528046745   11.880800469    4.824432758   11.579990061
    1.535225376   11.899543117    4.830839989   11.601987443
    1.542404007   11.918443743    4.837303518   11.624195627
    1.549582638   11.937503753    4.843823897   11.646617024
    1.556761269   11.956724573    4.850401685   11.669254088
    1.563939900   11.976107648    4.857037449   11.692109317
    1.571118531   11.995654446    4.863731767   11.715185254
    1.578297162   12.015366453    4.870485224   11.738484486
    1.585475793   12.035245173    4.877298414   11.762009641
    1.592654424   12.055292126    4.884171939   11.785763379
    1.599833055   12.075508866    4.891106414   11.809748442
    1.607011686   12.095897002    4.898102472   11.833967674
    1.614190317   12.116458131    4.905160747   11.858423916
    1.621368948   12.137193865    4.912281883   11.883120036
    1.628547579   12.158105845    4.919466531   11.908058968
    1.635726210   12.179195740    4.926715359   11.933243712
    1.642904841   12.200465244    4.934029042   11.958677326
    1.650083472   12.221916077    4.941408268   11.984362926
    1.657262104   12.243549986    4.948853738   12.010303689
    1.664440735   12.265368741    4.956366161   12.036502854
    1.671619366   12.287374141    4.963946261   12.062963721
    1.678797997   12.309568011    4.971594773   12.089689655
    1.685976628   12.331952203    4.979312443   12.116684089
    1.693155259   12.354528599    4.987100031   12.143950522
    1.700333890   12.377299106    4.994958310   12.171492523
    1.707512521   12.400265664    5.002888066   12.199313732
    1.714691152   12.423430239    5.010890097   12.227417863
    1.721869783   12.446794832    5.018965217   12.255808704
    1.729048414   12.470361469    5.027114252   12.284490121
    1.736227045   12.494132212    5.035338044   12.313466058
    1.743405676   12.518109152    5.043637447   12.342740543
    1.750584307   12.542294415    5.052013334   12.372317683
    1.757762938   12.566690158    5.060466589   12.402201673
    1.764941569   12.591298574    5.068998114   12.432396797
    1.772120200   12.616121890    5.077608827   12.462907426
    1.779298831   12.641162366    5.086299661   12.493738027
    1.786477462   12.666422301    5.095071567   12.524893161
    1.793656093   12.691904030    5.103925513   12.556377486
    1.800834725   12.717609924    5.112862482   12.588195763
    1.808013356   12.743542392    5.121883479   12.620352852
    1.815191987   12.769703882    5.130989523   12.652853722
    1.822370618   12.796096871    5.140181651   12.685703442
    1.829549249   12.822723874    5.149460919   12.718907191
    1.836727880   12.849587486    5.158828411   12.752470297
    1.843906511   12.876690348    5.168285233   12.786398210
    1.851085142   12.904035104    5.177832502   12.820696470
    1.858263773   12.931624442    5.187471355   12.855370741
    1.865442404   12.959461105    5.197202952   12.890426826
    1.872621035   12.987547882    5.207028475   12.925870663
    1.879799666   13.015887607    5.216949120   12.961708329
    1.886978297   13.044483159    5.226966077   12.997946041
    1.894156928   13.073337456    5.237080526   13.034590164
    1.901335559   13.102453496    5.247293810   13.071647216
    1.908514190   13.131834349    5.257607395   13.109123873
    1.915692821   13.161483096    5.268022575   13.147026967
    1.922871452   13.191402864    5.278540639   13.185363495
    1.930050083   13.221596842    5.289162947   13.224140624
    1.937228715   13.252068280    5.299890901   13.263365701
    1.944407346   13.282820486    5.310725935   13.303046251
    1.951585977   13.313856825    5.321669513   13.343189991
    1.958764608   13.345180722    5.332723127   13.383804828
    1.965943239   13.376795661    5.343888303   13.424898873
    1.973121870   13.408705192    5.355166592   13.466480437
    1.980300501   13.440912923    5.366559582   13.508558040
    1.987479132   13.473422529    5.378068889   13.551140401
    1.994657763   13.506237752    5.389696167   13.594236490
    2.001836394   13.539362409    5.401443102   13.637855609
    2.009015025   13.572800382    5.413311415   13.682007240
    2.016193656   13.606555619    5.425302864   13.726701062
    2.023372287   13.640632144    5.437419243   13.771947033
    2.030550918   13.675034054    5.449662387   13.817755395
    2.037729549   13.709765521    5.462034166   13.864136671
    2.044908180   13.744830792    5.474536494   13.911101663
    2.052086811   13.780234216    5.487171325   13.958661451
    2.059265442   13.815980217    5.499940657   14.006827391
    2.066444073   13.852073290    5.512846529   14.055611333
    2.073622705   13.888518020    5.525891027   14.105025549
    2.080801336   13.925319082    5.539076285   14.155082427
    2.087979967   13.962481239    5.552404481   14.205794704
    2.095158598   14.000009351    5.565877844   14.257175536
    2.102337229   14.037908371    5.579498654   14.309238489
    2.109515860   14.076183351    5.593269242   14.361997538
    2.116694491   14.114839443    5.607191992   14.415467078
    2.123873122   14.153881900    5.621269345   14.469661946
    2.131051753   14.193316083    5.635503796   14.524597431
    2.138230384   14.233147460    5.649897901   14.580289296
    2.145409015   14.273381608    5.664454275   14.636753800
    2.152587646   14.314024221    5.679175593   14.694007711
    2.159766277   14.355081104    5.694064597   14.752068334
    2.166944908   14.396558182    5.709124094   14.810953526
    2.174123539   14.438461498    5.724356956   14.870681723
    2.181302170   14.480797247    5.739766130   14.931271974
    2.188480801   14.523571751    5.755354628   14.992743937
    2.195659432   14.566791437    5.771125536   15.055117905
    2.202838063   14.610462870    5.787081998   15.118414973
    2.210016694   14.654592758    5.803227234   15.182656959
    2.217195326   14.699187995    5.819564626   15.247866331
    2.224373957   14.744255629    5.836097642   15.314066347
    2.231552588   14.789802808    5.852829753   15.381281096
    2.238731219   14.835836846    5.869764526   15.449535533
    2.245909850   14.882365223    5.886905637   15.518855514
    2.253088481   14.929395587    5.904256863   15.589267831
    2.260267112   14.976935736    5.921822081   15.660800232
    2.267445743   15.024993648    5.939605272   15.733481503
    2.274624374   15.073577575    5.957610522   15.807341637
    2.281803005   15.122695938    5.975842031   15.882411717
    2.288981636   15.172357268    5.994304107   15.958723821
    2.296160267   15.222570294    6.013001175   16.036311336
    2.303338898   15.273343963    6.031937783   16.115209354
    2.310517529   15.324687455    6.051118604   16.195454204
    2.317696160   15.376610213    6.070548452   16.277083438
    2.324874791   15.429121820    6.090232268   16.360136141
    2.332053422   15.482232076    6.110175128   16.444653064
    2.339232053   15.535951180    6.130382261   16.530676841
    2.346410684   15.590289526    6.150859044   16.618251855
    2.353589316   15.645257658    6.171611007   16.707424278
    2.360767947   15.700866401    6.192643836   16.798242309
    2.367946578   15.757126872    6.213963369   16.890756285
    2.375125209   15.814050473    6.235575613   16.985018790
    2.382303840   15.871648919    6.257486855   17.081084823
    2.389482471   15.929934221    6.279703559   17.179011892
    2.396661102   15.988918684    6.302232293   17.278860138
    2.403839733   16.048614929    6.325079833   17.380692529
    2.411018364   16.109035912    6.348253163   17.484575043
    2.418196995   16.170194934    6.371759502   17.590576846
    2.425375626   16.232105669    6.395606378   17.698770501
    2.432554257   16.294782153    6.419801533   17.809232171
    2.439732888   16.358238782    6.444352889   17.922041854
    2.446911519   16.422490334    6.469268639   18.037283622
    2.454090150   16.487551966    6.494557258   18.155045854
    2.461268781   16.553439342    6.520227504   18.275421587
    2.468447412   16.620168667    6.546288429   18.398509105
    2.475626043   16.687756480    6.572749394   18.524412107
    2.482804674   16.756219743    6.599620075   18.653239679
    2.489983306   16.825575940    6.626910477   18.785107009
    2.497161937   16.895843083    6.654630957   18.920135927
    2.504340568   16.967039718    6.682792231   19.058455352
    2.511519199   17.039184935    6.711405395   19.200201801
    2.518697830   17.112298364    6.740481936   19.345519949
    2.525876461   17.186400178    6.770033749   19.494563257
    2.533055092   17.261511333    6.800073184   19.647494812
    2.540233723   17.337653643    6.830613065   19.804488120
