# energy grid [eV]     epsr_x  epsr_y  epsr_z
#
    0.200000000    9.481809548    4.547831348   10.330285738
    0.207178631    9.483631849    4.548473238   10.332052990
    0.214357262    9.485519324    4.549138046   10.333883300
    0.221535893    9.487472070    4.549825803   10.335776746
    0.228714524    9.489490187    4.550536540   10.337733409
    0.235893155    9.491573777    4.551270287   10.339753372
    0.243071786    9.493722948    4.552027079   10.341836721
    0.250250417    9.495937810    4.552806949   10.343983545
    0.257429048    9.498218475    4.553609933   10.346193935
    0.264607679    9.500565062    4.554436067   10.348467987
    0.271786311    9.502977691    4.555285388   10.350805798
    0.278964942    9.505456487    4.556157934   10.353207466
    0.286143573    9.508001576    4.557053746   10.355673097
    0.293322204    9.510613090    4.557972863   10.358202794
    0.300500835    9.513291163    4.558915329   10.360796667
    0.307679466    9.516035936    4.559881184   10.363454827
    0.314858097    9.518847549    4.560870474   10.366177389
    0.322036728    9.521726147    4.561883243   10.368964470
    0.329215359    9.524671882    4.562919537   10.371816189
    0.336393990    9.527684905    4.563979404   10.374732670
    0.343572621    9.530765373    4.565062893   10.377714038
    0.350751252    9.533913448    4.566170052   10.380760423
    0.357929883    9.537129292    4.567300933   10.383871957
    0.365108514    9.540413075    4.568455587   10.387048774
    0.372287145    9.543764967    4.569634067   10.390291011
    0.379465776    9.547185145    4.570836429   10.393598810
    0.386644407    9.550673789    4.572062726   10.396972315
    0.393823038    9.554231080    4.573313016   10.400411672
    0.401001669    9.557857208    4.574587356   10.403917031
    0.408180301    9.561552363    4.575885805   10.407488546
    0.415358932    9.565316740    4.577208424   10.411126371
    0.422537563    9.569150538    4.578555274   10.414830667
    0.429716194    9.573053961    4.579926417   10.418601595
    0.436894825    9.577027216    4.581321917   10.422439321
    0.444073456    9.581070515    4.582741840   10.426344014
    0.451252087    9.585184072    4.584186251   10.430315845
    0.458430718    9.589368107    4.585655218   10.434354989
    0.465609349    9.593622844    4.587148810   10.438461624
    0.472787980    9.597948511    4.588667098   10.442635932
    0.479966611    9.602345340    4.590210151   10.446878097
    0.487145242    9.606813568    4.591778044   10.451188307
    0.494323873    9.611353436    4.593370849   10.455566754
    0.501502504    9.615965188    4.594988643   10.460013632
    0.508681135    9.620649075    4.596631502   10.464529140
    0.515859766    9.625405350    4.598299503   10.469113477
    0.523038397    9.630234272    4.599992727   10.473766850
    0.530217028    9.635136103    4.601711253   10.478489465
    0.537395659    9.640111112    4.603455164   10.483281536
    0.544574290    9.645159570    4.605224544   10.488143276
    0.551752922    9.650281755    4.607019475   10.493074905
    0.558931553    9.655477947    4.608840046   10.498076645
    0.566110184    9.660748433    4.610686344   10.503148720
    0.573288815    9.666093503    4.612558457   10.508291362
    0.580467446    9.671513454    4.614456476   10.513504801
    0.587646077    9.677008586    4.616380492   10.518789275
    0.594824708    9.682579205    4.618330600   10.524145024
    0.602003339    9.688225620    4.620306894   10.529572292
    0.609181970    9.693948148    4.622309470   10.535071327
    0.616360601    9.699747109    4.624338426   10.540642379
    0.623539232    9.705622829    4.626393862   10.546285704
    0.630717863    9.711575638    4.628475877   10.552001561
    0.637896494    9.717605872    4.630584576   10.557790212
    0.645075125    9.723713874    4.632720060   10.563651925
    0.652253756    9.729899989    4.634882437   10.569586970
    0.659432387    9.736164569    4.637071813   10.575595622
    0.666611018    9.742507972    4.639288297   10.581678159
    0.673789649    9.748930560    4.641531999   10.587834863
    0.680968280    9.755432704    4.643803031   10.594066023
    0.688146912    9.762014775    4.646101507   10.600371927
    0.695325543    9.768677155    4.648427542   10.606752872
    0.702504174    9.775420229    4.650781253   10.613209155
    0.709682805    9.782244388    4.653162759   10.619741082
    0.716861436    9.789150029    4.655572180   10.626348958
    0.724040067    9.796137557    4.658009638   10.633033096
    0.731218698    9.803207379    4.660475257   10.639793813
    0.738397329    9.810359912    4.662969163   10.646631428
    0.745575960    9.817595577    4.665491484   10.653546266
    0.752754591    9.824914801    4.668042348   10.660538658
    0.759933222    9.832318020    4.670621887   10.667608936
    0.767111853    9.839805672    4.673230233   10.674757440
    0.774290484    9.847378206    4.675867522   10.681984513
    0.781469115    9.855036075    4.678533891   10.689290501
    0.788647746    9.862779738    4.681229477   10.696675758
    0.795826377    9.870609663    4.683954422   10.704140641
    0.803005008    9.878526324    4.686708868   10.711685511
    0.810183639    9.886530200    4.689492960   10.719310735
    0.817362270    9.894621779    4.692306844   10.727016686
    0.824540902    9.902801557    4.695150669   10.734803738
    0.831719533    9.911070034    4.698024585   10.742672275
    0.838898164    9.919427719    4.700928746   10.750622682
    0.846076795    9.927875129    4.703863305   10.758655351
    0.853255426    9.936412788    4.706828421   10.766770679
    0.860434057    9.945041227    4.709824252   10.774969068
    0.867612688    9.953760984    4.712850959   10.783250924
    0.874791319    9.962572606    4.715908706   10.791616662
    0.881969950    9.971476648    4.718997658   10.800066697
    0.889148581    9.980473672    4.722117984   10.808601455
    0.896327212    9.989564249    4.725269854   10.817221363
    0.903505843    9.998748957    4.728453441   10.825926856
    0.910684474   10.008028383    4.731668918   10.834718374
    0.917863105   10.017403122    4.734916464   10.843596363
    0.925041736   10.026873779    4.738196259   10.852561274
    0.932220367   10.036440966    4.741508484   10.861613563
    0.939398998   10.046105303    4.744853324   10.870753695
    0.946577629   10.055867422    4.748230966   10.879982138
    0.953756260   10.065727960    4.751641600   10.889299368
    0.960934891   10.075687567    4.755085418   10.898705864
    0.968113523   10.085746900    4.758562615   10.908202115
    0.975292154   10.095906626    4.762073388   10.917788614
    0.982470785   10.106167421    4.765617937   10.927465861
    0.989649416   10.116529972    4.769196466   10.937234361
    0.996828047   10.126994974    4.772809179   10.947094628
    1.004006678   10.137563133    4.776456285   10.957047180
    1.011185309   10.148235166    4.780137995   10.967092543
    1.018363940   10.159011799    4.783854523   10.977231249
    1.025542571   10.169893768    4.787606085   10.987463838
    1.032721202   10.180881821    4.791392903   10.997790856
    1.039899833   10.191976717    4.795215197   11.008212855
    1.047078464   10.203179223    4.799073195   11.018730395
    1.054257095   10.214490121    4.802967125   11.029344043
    1.061435726   10.225910202    4.806897219   11.040054374
    1.068614357   10.237440268    4.810863711   11.050861969
    1.075792988   10.249081134    4.814866841   11.061767417
    1.082971619   10.260833627    4.818906849   11.072771315
    1.090150250   10.272698585    4.822983981   11.083874265
    1.097328881   10.284676858    4.827098484   11.095076880
    1.104507513   10.296769309    4.831250610   11.106379779
    1.111686144   10.308976813    4.835440613   11.117783590
    1.118864775   10.321300259    4.839668753   11.129288947
    1.126043406   10.333740548    4.843935290   11.140896493
    1.133222037   10.346298594    4.848240491   11.152606881
    1.140400668   10.358975326    4.852584623   11.164420770
    1.147579299   10.371771685    4.856967961   11.176338827
    1.154757930   10.384688625    4.861390781   11.188361730
    1.161936561   10.397727118    4.865853362   11.200490165
    1.169115192   10.410888146    4.870355989   11.212724823
    1.176293823   10.424172708    4.874898950   11.225066410
    1.183472454   10.437581818    4.879482536   11.237515636
    1.190651085   10.451116503    4.884107045   11.250073222
    1.197829716   10.464777809    4.888772775   11.262739899
    1.205008347   10.478566793    4.893480031   11.275516405
    1.212186978   10.492484532    4.898229123   11.288403491
    1.219365609   10.506532117    4.903020361   11.301401914
    1.226544240   10.520710656    4.907854064   11.314512443
    1.233722871   10.535021273    4.912730553   11.327735857
    1.240901503   10.549465111    4.917650154   11.341072942
    1.248080134   10.564043328    4.922613198   11.354524498
    1.255258765   10.578757102    4.927620020   11.368091334
    1.262437396   10.593607628    4.932670959   11.381774269
    1.269616027   10.608596117    4.937766361   11.395574132
    1.276794658   10.623723803    4.942906575   11.409491764
    1.283973289   10.638991936    4.948091956   11.423528017
    1.291151920   10.654401786    4.953322863   11.437683752
    1.298330551   10.669954643    4.958599661   11.451959845
    1.305509182   10.685651817    4.963922720   11.466357180
    1.312687813   10.701494638    4.969292414   11.480876654
    1.319866444   10.717484458    4.974709125   11.495519175
    1.327045075   10.733622649    4.980173239   11.510285664
    1.334223706   10.749910604    4.985685146   11.525177053
    1.341402337   10.766349741    4.991245245   11.540194288
    1.348580968   10.782941498    4.996853937   11.555338325
    1.355759599   10.799687335    5.002511633   11.570610135
    1.362938230   10.816588739    5.008218746   11.586010700
    1.370116861   10.833647218    5.013975697   11.601541017
    1.377295492   10.850864304    5.019782913   11.617202093
    1.384474124   10.868241556    5.025640828   11.632994952
    1.391652755   10.885780556    5.031549881   11.648920631
    1.398831386   10.903482913    5.037510518   11.664980178
    1.406010017   10.921350263    5.043523191   11.681174658
    1.413188648   10.939384266    5.049588360   11.697505150
    1.420367279   10.957586613    5.055706491   11.713972746
    1.427545910   10.975959020    5.061878057   11.730578555
    1.434724541   10.994503232    5.068103538   11.747323698
    1.441903172   11.013221026    5.074383423   11.764209315
    1.449081803   11.032114204    5.080718204   11.781236558
    1.456260434   11.051184603    5.087108386   11.798406597
    1.463439065   11.070434087    5.093554477   11.815720617
    1.470617696   11.089864553    5.100056995   11.833179819
    1.477796327   11.109477929    5.106616465   11.850785421
    1.484974958   11.129276167    5.113233421   11.868538655
    1.492153589   11.149261237    5.119908400   11.886440765
    1.499332220   11.169435164    5.126641952   11.904493021
    1.506510851   11.189800083    5.133434644   11.922696725
    1.513689482   11.210358109    5.140287044   11.941053187
    1.520868114   11.231111353    5.147199726   11.959563722
    1.528046745   11.252061975    5.154173272   11.978229667
    1.535225376   11.273212188    5.161208277   11.997052383
    1.542404007   11.294564241    5.168305345   12.016033248
    1.549582638   11.316120430    5.175465088   12.035173661
    1.556761269   11.337883087    5.182688130   12.054475041
    1.563939900   11.359854588    5.189975103   12.073938827
    1.571118531   11.382037352    5.197326650   12.093566477
    1.578297162   11.404433840    5.204743425   12.113359473
    1.585475793   11.427046560    5.212226091   12.133319315
    1.592654424   11.449878064    5.219775323   12.153447527
    1.599833055   11.472930951    5.227391807   12.173745652
    1.607011686   11.496207869    5.235076238   12.194215259
    1.614190317   11.519711515    5.242829325   12.214857938
    1.621368948   11.543444635    5.250651788   12.235675301
    1.628547579   11.567410029    5.258544358   12.256668984
    1.635726210   11.591610546    5.266507779   12.277840650
    1.642904841   11.616049093    5.274542807   12.299191983
    1.650083472   11.640728629    5.282650210   12.320724693
    1.657262104   11.665652172    5.290830770   12.342440516
    1.664440735   11.690822797    5.299085282   12.364341211
    1.671619366   11.716243638    5.307414554   12.386428568
    1.678797997   11.741917892    5.315819409   12.408704400
    1.685976628   11.767848816    5.324300681   12.431170549
    1.693155259   11.794039733    5.332859222   12.453828884
    1.700333890   11.820494030    5.341495898   12.476681302
    1.707512521   11.847215164    5.350211587   12.499729730
    1.714691152   11.874206658    5.359007186   12.522976123
    1.721869783   11.901472108    5.367883607   12.546422468
    1.729048414   11.929015183    5.376841774   12.570070780
    1.736227045   11.956839625    5.385882621   12.593923103
    1.743405676   11.984949252    5.395007076   12.617981501
    1.750584307   12.013347960    5.404216059   12.642248066
    1.757762938   12.042039731    5.413510629   12.666724964
    1.764941569   12.071028632    5.422891923   12.691414424
    1.772120200   12.100318808    5.432360940   12.716318644
    1.779298831   12.129914493    5.441918680   12.741439852
    1.786477462   12.159820010    5.451566196   12.766780324
    1.793656093   12.190039777    5.461304573   12.792342378
    1.800834725   12.220578306    5.471134918   12.818128369
    1.808013356   12.251440205    5.481058361   12.844140690
    1.815191987   12.282630186    5.491076050   12.870381774
    1.822370618   12.314153062    5.501189156   12.896854092
    1.829549249   12.346013752    5.511398872   12.923560155
    1.836727880   12.378217285    5.521706414   12.950502516
    1.843906511   12.410768802    5.532113018   12.977683768
    1.851085142   12.443673561    5.542619947   13.005106548
    1.858263773   12.476936937    5.553228486   13.032773537
    1.865442404   12.510564430    5.563939945   13.060687459
    1.872621035   12.544561663    5.574755660   13.088851084
    1.879799666   12.578934393    5.585676993   13.117267230
    1.886978297   12.613688509    5.596705332   13.145938759
    1.894156928   12.648830038    5.607842093   13.174868585
    1.901335559   12.684365149    5.619088719   13.204059668
    1.908514190   12.720300157    5.630446681   13.233515019
    1.915692821   12.756641524    5.641917477   13.263237691
    1.922871452   12.793395863    5.653502637   13.293230792
    1.930050083   12.830569976    5.665203730   13.323497512
    1.937228715   12.868170826    5.677022358   13.354041097
    1.944407346   12.906205505    5.688960144   13.384864817
    1.951585977   12.944681279    5.701018746   13.415972001
    1.958764608   12.983605682    5.713199858   13.447366049
    1.965943239   13.022986437    5.725505210   13.479050423
    1.973121870   13.062831387    5.737936570   13.511028642
    1.980300501   13.103148576    5.750495739   13.543304285
    1.987479132   13.143946274    5.763184560   13.575880997
    1.994657763   13.185232964    5.776004914   13.608762484
    2.001836394   13.227017342    5.788958721   13.641952533
    2.009015025   13.269308299    5.802047946   13.675455006
    2.016193656   13.312114976    5.815274592   13.709273822
    2.023372287   13.355446970    5.828640709   13.743412969
    2.030550918   13.399314046    5.842148390   13.777876513
    2.037729549   13.443726079    5.855799777   13.812668597
    2.044908180   13.488693254    5.869597056   13.847793440
    2.052086811   13.534226068    5.883542464   13.883255343
    2.059265442   13.580335325    5.897638289   13.919058687
    2.066444073   13.627032135    5.911886870   13.955207938
    2.073622705   13.674327926    5.926290598   13.991707647
    2.080801336   13.722234454    5.940851920   14.028562452
    2.087979967   13.770763816    5.955573342   14.065777083
    2.095158598   13.819928466    5.970457424   14.103356360
    2.102337229   13.869741222    5.985506788   14.141305198
    2.109515860   13.920215288    6.000724119   14.179628611
    2.116694491   13.971364263    6.016112163   14.218331711
    2.123873122   14.023202161    6.031673734   14.257419711
    2.131051753   14.075743424    6.047411712   14.296897931
    2.138230384   14.129002943    6.063329049   14.336771797
    2.145409015   14.182996075    6.079428766   14.377046846
    2.152587646   14.237738660    6.095713961   14.417728729
    2.159766277   14.293247044    6.112187806   14.458823212
    2.166944908   14.349538098    6.128853555   14.500336181
    2.174123539   14.406629245    6.145714542   14.542273646
    2.181302170   14.464538477    6.162774184   14.584641742
    2.188480801   14.523284383    6.180035988   14.627446734
    2.195659432   14.582886177    6.197503549   14.670695019
    2.202838063   14.643363722    6.215180555   14.714393134
    2.210016694   14.704737563    6.233070791   14.758547754
    2.217195326   14.767028953    6.251178141   14.803165699
    2.224373957   14.830259885    6.269506591   14.848253934
    2.231552588   14.894453122    6.288060233   14.893819568
    2.238731219   14.959632245    6.306843271   14.939869886
    2.245909850   15.025821672    6.325860018   14.986412343
    2.253088481   15.093046719    6.345114900   15.033454540
    2.260267112   15.161333738    6.364612434   15.081004283
    2.267445743   15.230709991    6.384357250   15.129069527
    2.274624374   15.301203695    6.404354216   15.177658396
    2.281803005   15.372844204    6.424608374   15.226779226
    2.288981636   15.445662059    6.445124823   15.276440538
    2.296160267   15.519688935    6.465908739   15.326651015
    2.303338898   15.594957758    6.486965448   15.377419653
    2.310517529   15.671502778    6.508300514   15.428755654
    2.317696160   15.749359609    6.529919711   15.480668354
    2.324874791   15.828565325    6.551828893   15.533167314
    2.332053422   15.909158678    6.574034079   15.586262360
    2.339232053   15.991180030    6.596541487   15.639963563
    2.346410684   16.074671341    6.619357532   15.694281238
    2.353589316   16.159676390    6.642488828   15.749225945
    2.360767947   16.246240873    6.665942191   15.804808488
    2.367946578   16.334412540    6.689724651   15.861039965
    2.375125209   16.424241425    6.713843461   15.917931895
    2.382303840   16.515779778    6.738306105   15.975496027
    2.389482471   16.609082170    6.763120300   16.033744325
    2.396661102   16.704205752    6.788294016   16.092689087
    2.403839733   16.801210419    6.813835483   16.152342963
    2.411018364   16.900158958    6.839753201   16.212718948
    2.418196995   17.001117229    6.866055952   16.273830392
    2.425375626   17.104154344    6.892752816   16.335691011
    2.432554257   17.209342825    6.919853176   16.398314898
    2.439732888   17.316758840    6.947366739   16.461716541
    2.446911519   17.426482899    6.975303547   16.525910843
    2.454090150   17.538599951    7.003673991   16.590913130
    2.461268781   17.653198973    7.032488830   16.656739139
    2.468447412   17.770373736    7.061759203   16.723405030
    2.475626043   17.890223340    7.091496647   16.790927481
    2.482804674   18.012852504    7.121713112   16.859323659
    2.489983306   18.138372063    7.152421013   16.928611420
    2.497161937   18.266899379    7.183633236   16.998809271
    2.504340568   18.398558567    7.215363117   17.069935942
    2.511519199   18.533481234    7.247624500   17.142010742
    2.518697830   18.671807125    7.280431764   17.215053666
    2.525876461   18.813684751    7.313799848   17.289085379
    2.533055092   18.959272101    7.347744279   17.364127223
    2.540233723   19.108737434    7.382281200   17.440201243
