# energy grid [eV]     ieps_x  ieps_y  ieps_z
#
    0.200000000    8.923886482    8.227016787    8.900635954
    0.207178631    8.922131284    8.225336687    8.898766680
    0.214357262    8.920315050    8.223598207    8.896832469
    0.221535893    8.918437868    8.221801436    8.894833422
    0.228714524    8.916499828    8.219946465    8.892769641
    0.235893155    8.914501025    8.218033391    8.890641235
    0.243071786    8.912441555    8.216062309    8.888448313
    0.250250417    8.910321518    8.214033320    8.886190989
    0.257429048    8.908141015    8.211946529    8.883869380
    0.264607679    8.905900152    8.209802039    8.881483605
    0.271786311    8.903599037    8.207599961    8.879033788
    0.278964942    8.901237780    8.205340406    8.876520054
    0.286143573    8.898816495    8.203023488    8.873942533
    0.293322204    8.896335299    8.200649326    8.871301358
    0.300500835    8.893794309    8.198218037    8.868596665
    0.307679466    8.891193648    8.195729747    8.865828592
    0.314858097    8.888533440    8.193184579    8.862997280
    0.322036728    8.885813813    8.190582662    8.860102876
    0.329215359    8.883034897    8.187924128    8.857145527
    0.336393990    8.880196823    8.185209109    8.854125384
    0.343572621    8.877299727    8.182437742    8.851042601
    0.350751252    8.874343747    8.179610166    8.847897335
    0.357929883    8.871329023    8.176726521    8.844689745
    0.365108514    8.868255698    8.173786954    8.841419996
    0.372287145    8.865123919    8.170791609    8.838088253
    0.379465776    8.861933833    8.167740637    8.834694684
    0.386644407    8.858685591    8.164634189    8.831239461
    0.393823038    8.855379347    8.161472420    8.827722759
    0.401001669    8.852015256    8.158255487    8.824144755
    0.408180301    8.848593476    8.154983549    8.820505629
    0.415358932    8.845114169    8.151656767    8.816805564
    0.422537563    8.841577498    8.148275307    8.813044746
    0.429716194    8.837983629    8.144839334    8.809223363
    0.436894825    8.834332729    8.141349019    8.805341607
    0.444073456    8.830624970    8.137804533    8.801399671
    0.451252087    8.826860524    8.134206050    8.797397752
    0.458430718    8.823039566    8.130553745    8.793336048
    0.465609349    8.819162275    8.126847799    8.789214763
    0.472787980    8.815228831    8.123088391    8.785034100
    0.479966611    8.811239414    8.119275705    8.780794267
    0.487145242    8.807194212    8.115409926    8.776495472
    0.494323873    8.803093409    8.111491242    8.772137928
    0.501502504    8.798937195    8.107519844    8.767721849
    0.508681135    8.794725762    8.103495922    8.763247453
    0.515859766    8.790459303    8.099419672    8.758714958
    0.523038397    8.786138014    8.095291291    8.754124587
    0.530217028    8.781762092    8.091110975    8.749476565
    0.537395659    8.777331737    8.086878927    8.744771116
    0.544574290    8.772847152    8.082595349    8.740008472
    0.551752922    8.768308540    8.078260445    8.735188862
    0.558931553    8.763716108    8.073874423    8.730312520
    0.566110184    8.759070064    8.069437492    8.725379682
    0.573288815    8.754370618    8.064949861    8.720390586
    0.580467446    8.749617983    8.060411745    8.715345473
    0.587646077    8.744812372    8.055823357    8.710244583
    0.594824708    8.739954001    8.051184914    8.705088163
    0.602003339    8.735043090    8.046496635    8.699876458
    0.609181970    8.730079857    8.041758740    8.694609717
    0.616360601    8.725064524    8.036971451    8.689288192
    0.623539232    8.719997316    8.032134991    8.683912133
    0.630717863    8.714878457    8.027249588    8.678481797
    0.637896494    8.709708175    8.022315467    8.672997439
    0.645075125    8.704486698    8.017332859    8.667459319
    0.652253756    8.699214258    8.012301994    8.661867697
    0.659432387    8.693891087    8.007223104    8.656222835
    0.666611018    8.688517420    8.002096424    8.650524997
    0.673789649    8.683093491    7.996922190    8.644774449
    0.680968280    8.677619538    7.991700639    8.638971460
    0.688146912    8.672095802    7.986432010    8.633116297
    0.695325543    8.666522521    7.981116542    8.627209234
    0.702504174    8.660899939    7.975754480    8.621250542
    0.709682805    8.655228299    7.970346065    8.615240496
    0.716861436    8.649507847    7.964891542    8.609179373
    0.724040067    8.643738829    7.959391159    8.603067450
    0.731218698    8.637921493    7.953845162    8.596905006
    0.738397329    8.632056090    7.948253801    8.590692322
    0.745575960    8.626142871    7.942617327    8.584429680
    0.752754591    8.620182087    7.936935991    8.578117366
    0.759933222    8.614173994    7.931210045    8.571755662
    0.767111853    8.608118845    7.925439746    8.565344858
    0.774290484    8.602016898    7.919625348    8.558885239
    0.781469115    8.595868410    7.913767107    8.552377096
    0.788647746    8.589673641    7.907865283    8.545820720
    0.795826377    8.583432850    7.901920133    8.539216402
    0.803005008    8.577146299    7.895931919    8.532564436
    0.810183639    8.570814251    7.889900902    8.525865116
    0.817362270    8.564436970    7.883827344    8.519118738
    0.824540902    8.558014720    7.877711509    8.512325599
    0.831719533    8.551547768    7.871553661    8.505485997
    0.838898164    8.545036381    7.865354065    8.498600230
    0.846076795    8.538480826    7.859112990    8.491668599
    0.853255426    8.531881374    7.852830701    8.484691405
    0.860434057    8.525238294    7.846507467    8.477668951
    0.867612688    8.518551857    7.840143558    8.470601539
    0.874791319    8.511822336    7.833739243    8.463489473
    0.881969950    8.505050003    7.827294794    8.456333059
    0.889148581    8.498235133    7.820810482    8.449132603
    0.896327212    8.491378000    7.814286580    8.441888411
    0.903505843    8.484478881    7.807723362    8.434600791
    0.910684474    8.477538050    7.801121101    8.427270051
    0.917863105    8.470555787    7.794480072    8.419896501
    0.925041736    8.463532368    7.787800550    8.412480451
    0.932220367    8.456468073    7.781082812    8.405022211
    0.939398998    8.449363180    7.774327135    8.397522092
    0.946577629    8.442217971    7.767533795    8.389980407
    0.953756260    8.435032726    7.760703071    8.382397467
    0.960934891    8.427807726    7.753835241    8.374773588
    0.968113523    8.420543253    7.746930585    8.367109081
    0.975292154    8.413239591    7.739989380    8.359404261
    0.982470785    8.405897023    7.733011909    8.351659444
    0.989649416    8.398515832    7.725998451    8.343874944
    0.996828047    8.391096302    7.718949286    8.336051078
    1.004006678    8.383638719    7.711864697    8.328188161
    1.011185309    8.376143368    7.704744964    8.320286510
    1.018363940    8.368610534    7.697590370    8.312346441
    1.025542571    8.361040503    7.690401197    8.304368273
    1.032721202    8.353433563    7.683177728    8.296352323
    1.039899833    8.345790001    7.675920246    8.288298908
    1.047078464    8.338110102    7.668629033    8.280208347
    1.054257095    8.330394155    7.661304373    8.272080958
    1.061435726    8.322642449    7.653946550    8.263917059
    1.068614357    8.314855270    7.646555848    8.255716970
    1.075792988    8.307032908    7.639132550    8.247481009
    1.082971619    8.299175651    7.631676940    8.239209496
    1.090150250    8.291283788    7.624189303    8.230902748
    1.097328881    8.283357608    7.616669923    8.222561087
    1.104507513    8.275397401    7.609119084    8.214184830
    1.111686144    8.267403455    7.601537071    8.205774297
    1.118864775    8.259376061    7.593924168    8.197329807
    1.126043406    8.251315507    7.586280660    8.188851680
    1.133222037    8.243222084    7.578606830    8.180340234
    1.140400668    8.235096081    7.570902964    8.171795789
    1.147579299    8.226937789    7.563169345    8.163218664
    1.154757930    8.218747495    7.555406257    8.154609177
    1.161936561    8.210525492    7.547613986    8.145967647
    1.169115192    8.202272067    7.539792814    8.137294393
    1.176293823    8.193987512    7.531943026    8.128589733
    1.183472454    8.185672115    7.524064905    8.119853986
    1.190651085    8.177326166    7.516158735    8.111087468
    1.197829716    8.168949954    7.508224799    8.102290497
    1.205008347    8.160543769    7.500263379    8.093463391
    1.212186978    8.152107900    7.492274759    8.084606467
    1.219365609    8.143642635    7.484259222    8.075720042
    1.226544240    8.135148264    7.476217048    8.066804431
    1.233722871    8.126625074    7.468148521    8.057859950
    1.240901503    8.118073355    7.460053922    8.048886916
    1.248080134    8.109493394    7.451933532    8.039885642
    1.255258765    8.100885478    7.443787631    8.030856444
    1.262437396    8.092249896    7.435616500    8.021799636
    1.269616027    8.083586935    7.427420420    8.012715531
    1.276794658    8.074896880    7.419199670    8.003604443
    1.283973289    8.066180020    7.410954529    7.994466684
    1.291151920    8.057436639    7.402685275    7.985302566
    1.298330551    8.048667023    7.394392188    7.976112401
    1.305509182    8.039871459    7.386075544    7.966896499
    1.312687813    8.031050230    7.377735621    7.957655172
    1.319866444    8.022203621    7.369372696    7.948388727
    1.327045075    8.013331916    7.360987045    7.939097476
    1.334223706    8.004435399    7.352578943    7.929781725
    1.341402337    7.995514353    7.344148666    7.920441784
    1.348580968    7.986569059    7.335696487    7.911077957
    1.355759599    7.977599801    7.327222681    7.901690553
    1.362938230    7.968606860    7.318727521    7.892279876
    1.370116861    7.959590516    7.310211280    7.882846231
    1.377295492    7.950551049    7.301674228    7.873389923
    1.384474124    7.941488741    7.293116638    7.863911253
    1.391652755    7.932403869    7.284538780    7.854410526
    1.398831386    7.923296712    7.275940924    7.844888042
    1.406010017    7.914167549    7.267323339    7.835344102
    1.413188648    7.905016655    7.258686293    7.825779006
    1.420367279    7.895844309    7.250030054    7.816193053
    1.427545910    7.886650786    7.241354889    7.806586541
    1.434724541    7.877436360    7.232661064    7.796959767
    1.441903172    7.868201307    7.223948843    7.787313029
    1.449081803    7.858945901    7.215218493    7.777646620
    1.456260434    7.849670414    7.206470276    7.767960836
    1.463439065    7.840375119    7.197704455    7.758255971
    1.470617696    7.831060287    7.188921293    7.748532316
    1.477796327    7.821726189    7.180121050    7.738790163
    1.484974958    7.812373095    7.171303987    7.729029802
    1.492153589    7.803001274    7.162470363    7.719251524
    1.499332220    7.793610995    7.153620437    7.709455617
    1.506510851    7.784202525    7.144754467    7.699642368
    1.513689482    7.774776131    7.135872709    7.689812064
    1.520868114    7.765332079    7.126975419    7.679964990
    1.528046745    7.755870634    7.118062852    7.670101430
    1.535225376    7.746392059    7.109135262    7.660221668
    1.542404007    7.736896619    7.100192902    7.650325985
    1.549582638    7.727384575    7.091236024    7.640414663
    1.556761269    7.717856189    7.082264880    7.630487982
    1.563939900    7.708311722    7.073279718    7.620546219
    1.571118531    7.698751433    7.064280789    7.610589654
    1.578297162    7.689175581    7.055268341    7.600618562
    1.585475793    7.679584423    7.046242620    7.590633218
    1.592654424    7.669978217    7.037203873    7.580633897
    1.599833055    7.660357218    7.028152344    7.570620872
    1.607011686    7.650721681    7.019088278    7.560594414
    1.614190317    7.641071860    7.010011918    7.550554794
    1.621368948    7.631408008    7.000923506    7.540502281
    1.628547579    7.621730376    6.991823282    7.530437144
    1.635726210    7.612039216    6.982711486    7.520359649
    1.642904841    7.602334778    6.973588357    7.510270061
    1.650083472    7.592617309    6.964454133    7.500168646
    1.657262104    7.582887058    6.955309050    7.490055666
    1.664440735    7.573144272    6.946153344    7.479931384
    1.671619366    7.563389196    6.936987248    7.469796060
    1.678797997    7.553622075    6.927810997    7.459649953
    1.685976628    7.543843153    6.918624821    7.449493321
    1.693155259    7.534052671    6.909428953    7.439326421
    1.700333890    7.524250871    6.900223622    7.429149509
    1.707512521    7.514437994    6.891009056    7.418962839
    1.714691152    7.504614279    6.881785484    7.408766663
    1.721869783    7.494779963    6.872553131    7.398561234
    1.729048414    7.484935284    6.863312223    7.388346801
    1.736227045    7.475080478    6.854062983    7.378123613
    1.743405676    7.465215778    6.844805636    7.367891919
    1.750584307    7.455341420    6.835540402    7.357651963
    1.757762938    7.445457635    6.826267503    7.347403992
    1.764941569    7.435564655    6.816987157    7.337148248
    1.772120200    7.425662710    6.807699582    7.326884974
    1.779298831    7.415752028    6.798404997    7.316614411
    1.786477462    7.405832838    6.789103616    7.306336798
    1.793656093    7.395905367    6.779795654    7.296052373
    1.800834725    7.385969840    6.770481324    7.285761373
    1.808013356    7.376026481    6.761160840    7.275464034
    1.815191987    7.366075513    6.751834411    7.265160589
    1.822370618    7.356117159    6.742502248    7.254851270
    1.829549249    7.346151639    6.733164559    7.244536311
    1.836727880    7.336179174    6.723821551    7.234215939
    1.843906511    7.326199981    6.714473432    7.223890384
    1.851085142    7.316214277    6.705120404    7.213559872
    1.858263773    7.306222280    6.695762673    7.203224629
    1.865442404    7.296224203    6.686400441    7.192884881
    1.872621035    7.286220260    6.677033909    7.182540848
    1.879799666    7.276210664    6.667663276    7.172192754
    1.886978297    7.266195626    6.658288742    7.161840817
    1.894156928    7.256175356    6.648910505    7.151485257
    1.901335559    7.246150062    6.639528760    7.141126291
    1.908514190    7.236119953    6.630143702    7.130764135
    1.915692821    7.226085235    6.620755526    7.120399003
    1.922871452    7.216046112    6.611364424    7.110031108
    1.930050083    7.206002789    6.601970586    7.099660661
    1.937228715    7.195955468    6.592574204    7.089287874
    1.944407346    7.185904351    6.583175467    7.078912955
    1.951585977    7.175849638    6.573774560    7.068536111
    1.958764608    7.165791528    6.564371672    7.058157548
    1.965943239    7.155730218    6.554966987    7.047777470
    1.973121870    7.145665906    6.545560688    7.037396082
    1.980300501    7.135598785    6.536152960    7.027013584
    1.987479132    7.125529052    6.526743981    7.016630177
    1.994657763    7.115456897    6.517333934    7.006246059
    2.001836394    7.105382514    6.507922996    6.995861429
    2.009015025    7.095306091    6.498511346    6.985476482
    2.016193656    7.085227818    6.489099159    6.975091413
    2.023372287    7.075147884    6.479686611    6.964706415
    2.030550918    7.065066474    6.470273875    6.954321680
    2.037729549    7.054983773    6.460861124    6.943937398
    2.044908180    7.044899966    6.451448530    6.933553759
    2.052086811    7.034815236    6.442036262    6.923170950
    2.059265442    7.024729765    6.432624490    6.912789157
    2.066444073    7.014643732    6.423213380    6.902408564
    2.073622705    7.004557316    6.413803100    6.892029357
    2.080801336    6.994470696    6.404393815    6.881651715
    2.087979967    6.984384049    6.394985687    6.871275820
    2.095158598    6.974297549    6.385578881    6.860901852
    2.102337229    6.964211371    6.376173557    6.850529987
    2.109515860    6.954125687    6.366769876    6.840160402
    2.116694491    6.944040670    6.357367996    6.829793273
    2.123873122    6.933956489    6.347968075    6.819428773
    2.131051753    6.923873314    6.338570270    6.809067073
    2.138230384    6.913791313    6.329174736    6.798708346
    2.145409015    6.903710653    6.319781627    6.788352760
    2.152587646    6.893631499    6.310391096    6.778000483
    2.159766277    6.883554015    6.301003294    6.767651683
    2.166944908    6.873478364    6.291618372    6.757306524
    2.174123539    6.863404708    6.282236479    6.746965170
    2.181302170    6.853333209    6.272857763    6.736627785
    2.188480801    6.843264024    6.263482370    6.726294529
    2.195659432    6.833197312    6.254110447    6.715965562
    2.202838063    6.823133231    6.244742136    6.705641043
    2.210016694    6.813071935    6.235377583    6.695321129
    2.217195326    6.803013579    6.226016928    6.685005975
    2.224373957    6.792958317    6.216660311    6.674695737
    2.231552588    6.782906300    6.207307874    6.664390567
    2.238731219    6.772857680    6.197959754    6.654090617
    2.245909850    6.762812606    6.188616088    6.643796038
    2.253088481    6.752771226    6.179277012    6.633506978
    2.260267112    6.742733688    6.169942660    6.623223586
    2.267445743    6.732700137    6.160613168    6.612946007
    2.274624374    6.722670719    6.151288666    6.602674388
    2.281803005    6.712645578    6.141969287    6.592408872
    2.288981636    6.702624855    6.132655160    6.582149602
    2.296160267    6.692608691    6.123346414    6.571896718
    2.303338898    6.682597228    6.114043178    6.561650361
    2.310517529    6.672590604    6.104745577    6.551410669
    2.317696160    6.662588956    6.095453737    6.541177780
    2.324874791    6.652592421    6.086167783    6.530951829
    2.332053422    6.642601135    6.076887837    6.520732952
    2.339232053    6.632615232    6.067614022    6.510521282
    2.346410684    6.622634844    6.058346459    6.500316951
    2.353589316    6.612660105    6.049085267    6.490120091
    2.360767947    6.602691144    6.039830565    6.479930830
    2.367946578    6.592728090    6.030582471    6.469749298
    2.375125209    6.582771074    6.021341101    6.459575621
    2.382303840    6.572820221    6.012106570    6.449409926
    2.389482471    6.562875658    6.002878993    6.439252336
    2.396661102    6.552937510    5.993658482    6.429102977
    2.403839733    6.543005900    5.984445150    6.418961969
    2.411018364    6.533080953    5.975239107    6.408829434
    2.418196995    6.523162788    5.966040464    6.398705491
    2.425375626    6.513251528    5.956849328    6.388590260
    2.432554257    6.503347290    5.947665808    6.378483857
    2.439732888    6.493450194    5.938490010    6.368386398
    2.446911519    6.483560356    5.929322040    6.358298000
    2.454090150    6.473677893    5.920162002    6.348218774
    2.461268781    6.463802919    5.911009999    6.338148834
    2.468447412    6.453935549    5.901866134    6.328088292
    2.475626043    6.444075895    5.892730507    6.318037256
    2.482804674    6.434224069    5.883603219    6.307995838
    2.489983306    6.424380182    5.874484370    6.297964143
    2.497161937    6.414544342    5.865374057    6.287942279
    2.504340568    6.404716659    5.856272377    6.277930352
    2.511519199    6.394897239    5.847179426    6.267928465
    2.518697830    6.385086190    5.838095300    6.257936723
    2.525876461    6.375283616    5.829020092    6.247955227
    2.533055092    6.365489622    5.819953895    6.237984077
    2.540233723    6.355704310    5.810896801    6.228023375
