# energy grid [eV]     epsr_x  epsr_y  epsr_z
#
    0.200000000   11.945248721   15.701865810   14.806295975
    0.207178631   11.948061499   15.705887946   14.809835401
    0.214357262   11.950975797   15.710055514   14.813502171
    0.221535893   11.953991868   15.714368902   14.817296556
    0.228714524   11.957109972   15.718828519   14.821218837
    0.235893155   11.960330380   15.723434787   14.825269306
    0.243071786   11.963653374   15.728188148   14.829448264
    0.250250417   11.967079246   15.733089057   14.833756026
    0.257429048   11.970608300   15.738137992   14.838192916
    0.264607679   11.974240848   15.743335444   14.842759269
    0.271786311   11.977977216   15.748681925   14.847455431
    0.278964942   11.981817739   15.754177968   14.852281760
    0.286143573   11.985762765   15.759824121   14.857238628
    0.293322204   11.989812654   15.765620955   14.862326414
    0.300500835   11.993967776   15.771569063   14.867545514
    0.307679466   11.998228516   15.777669055   14.872896334
    0.314858097   12.002595270   15.783921568   14.878379291
    0.322036728   12.007068448   15.790327259   14.883994819
    0.329215359   12.011648471   15.796886808   14.889743362
    0.336393990   12.016335775   15.803600920   14.895625377
    0.343572621   12.021130812   15.810470327   14.901641338
    0.350751252   12.026034044   15.817495785   14.907791730
    0.357929883   12.031045951   15.824678078   14.914077053
    0.365108514   12.036167028   15.832018018   14.920497824
    0.372287145   12.041397784   15.839516446   14.927054571
    0.379465776   12.046738745   15.847174234   14.933747841
    0.386644407   12.052190453   15.854992286   14.940578197
    0.393823038   12.057753469   15.862971541   14.947546216
    0.401001669   12.063428368   15.871112970   14.954652494
    0.408180301   12.069215748   15.879417582   14.961897644
    0.415358932   12.075116222   15.887886425   14.969282297
    0.422537563   12.081130425   15.896520588   14.976807104
    0.429716194   12.087259012   15.905321199   14.984472732
    0.436894825   12.093502658   15.914289436   14.992279873
    0.444073456   12.099862061   15.923426519   15.000229236
    0.451252087   12.106337943   15.932733723   15.008321553
    0.458430718   12.112931047   15.942212371   15.016557580
    0.465609349   12.119642144   15.951863847   15.024938094
    0.472787980   12.126472029   15.961689591   15.033463899
    0.479966611   12.133421525   15.971691108   15.042135823
    0.487145242   12.140491485   15.981869971   15.050954724
    0.494323873   12.147682788   15.992227824   15.059921484
    0.501502504   12.154996349   16.002766391   15.069037019
    0.508681135   12.162433113   16.013487476   15.078302274
    0.515859766   12.169994062   16.024392974   15.087718228
    0.523038397   12.177680212   16.035484876   15.097285897
    0.530217028   12.185492620   16.046765275   15.107006332
    0.537395659   12.193432384   16.058236377   15.116880625
    0.544574290   12.201500645   16.069900509   15.126909909
    0.551752922   12.209698590   16.081760131   15.137095364
    0.558931553   12.218027456   16.093817845   15.147438218
    0.566110184   12.226488532   16.106076409   15.157939751
    0.573288815   12.235083163   16.118538752   15.168601298
    0.580467446   12.243812755   16.131207991   15.179424258
    0.587646077   12.252678777   16.144087448   15.190410090
    0.594824708   12.261682770   16.157180675   15.201560330
    0.602003339   12.270826346   16.170491470   15.212876588
    0.609181970   12.280111200   16.184023914   15.224360560
    0.616360601   12.289539116   16.197782393   15.236014035
    0.623539232   12.299111972   16.211771642   15.247838906
    0.630717863   12.308831748   16.225996777   15.259837177
    0.637896494   12.318700541   16.240463352   15.272010979
    0.645075125   12.328720572   16.255177405   15.284362583
    0.652253756   12.338894199   16.270145528   15.296894416
    0.659432387   12.349223931   16.285374938   15.309609083
    0.666611018   12.359712449   16.300873564   15.322509385
    0.673789649   12.370362619   16.316650154   15.335598348
    0.680968280   12.381177522   16.332714390   15.348879256
    0.688146912   12.392160471   16.349077039   15.362355686
    0.695325543   12.403315054   16.365750122   15.376031550
    0.702504174   12.414645158   16.382747124   15.389911154
    0.709682805   12.426155025   16.400083247   15.403999256
    0.716861436   12.437849295   16.417775713   15.418301148
    0.724040067   12.449733078   16.435844143   15.432822749
    0.731218698   12.461812023   16.454311019   15.447570723
    0.738397329   12.474092422   16.473202261   15.462552626
    0.745575960   12.486581322   16.492547948   15.477777084
    0.752754591   12.499286675   16.512383235   15.493254027
    0.759933222   12.512217525   16.532749508   15.508994982
    0.767111853   12.525384244   16.553695890   15.525013444
    0.774290484   12.538798839   16.575281184   15.541325371
    0.781469115   12.552475355   16.597576432   15.557949823
    0.788647746   12.566430394   16.620668316   15.574909815
    0.795826377   12.580683831   16.644663728   15.592233460
    0.803005008   12.595259757   16.669695994   15.609955532
    0.810183639   12.610187795   16.695933446   15.628119606
    0.817362270   12.625504911   16.723591356   15.646781049
    0.824540902   12.641257957   16.752948717   15.666011211
    0.831719533   12.657507249   16.784371935   15.685903357
    0.838898164   12.674331575   16.818348026   15.706580955
    0.846076795   12.691834960   16.855529568   15.728208925
    0.853255426   12.710154840   16.896789018   15.751007203
    0.860434057   12.729468065   16.943258409   15.775260675
    0.867612688   12.749978148   16.996243493   15.801297740
    0.874791319   12.771815827   17.056557434   15.829323879
    0.881969950   12.794580865   17.121452910   15.858655327
    0.889148581   12.815508812   17.172349458   15.884653449
    0.896327212   12.824039509   17.138473750   15.889642292
    0.903505843   12.802757857   16.903156014   15.844481425
    0.910684474   12.773687322   16.613719734   15.785974729
    0.917863105   12.775064637   16.526008684   15.778034125
    0.925041736   12.795433713   16.563206106   15.801475029
    0.932220367   12.820504984   16.629511239   15.832371097
    0.939398998   12.845842613   16.695065246   15.863268309
    0.946577629   12.870633142   16.754234668   15.892764467
    0.953756260   12.894946408   16.807271511   15.920928057
    0.960934891   12.919013392   16.855473749   15.948089463
    0.968113523   12.943061791   16.900077894   15.974564451
    0.975292154   12.967289079   16.942070237   16.000607157
    0.982470785   12.991867245   16.982207810   16.026415501
    0.989649416   13.016953199   17.021074271   16.052145368
    0.996828047   13.042699010   17.059130666   16.077923572
    1.004006678   13.069261300   17.096754983   16.103858100
    1.011185309   13.096810349   17.134272267   16.130046115
    1.018363940   13.125539803   17.171978336   16.156580498
    1.025542571   13.155678035   17.210159868   16.183555706
    1.032721202   13.187502437   17.249113294   16.211073619
    1.039899833   13.221358303   17.289164751   16.239250055
    1.047078464   13.257684613   17.330693492   16.268222753
    1.054257095   13.297049769   17.374161543   16.298161721
    1.061435726   13.340201079   17.420152702   16.329283076
    1.068614357   13.388130941   17.469423244   16.361867254
    1.075792988   13.442154920   17.522960537   16.396280549
    1.082971619   13.503961843   17.582018608   16.432990159
    1.090150250   13.575454979   17.647990839   16.472527397
    1.097328881   13.657644428   17.721549091   16.515212825
    1.104507513   13.745635120   17.798771259   16.559898276
    1.111686144   13.808981788   17.855990546   16.599019865
    1.118864775   13.739264419   17.809388473   16.605378025
    1.126043406   13.400672631   17.553989924   16.544812180
    1.133222037   13.062299794   17.296918725   16.484806383
    1.140400668   12.998651813   17.250227487   16.492553203
    1.147579299   13.067333095   17.307791370   16.524681915
    1.154757930   13.135653982   17.377571111   16.534960545
    1.161936561   13.151519964   17.433004878   16.528228750
    1.169115192   13.094026323   17.471349868   16.535339157
    1.176293823   13.039196605   17.508078696   16.559316347
    1.183472454   13.069660006   17.559975266   16.599637829
    1.190651085   13.142815746   17.618214400   16.646248352
    1.197829716   13.223803184   17.675881432   16.693518473
    1.205008347   13.303497881   17.731522258   16.740302069
    1.212186978   13.379689961   17.785245292   16.786309504
    1.219365609   13.444955002   17.836810598   16.829262564
    1.226544240   13.468781202   17.883794313   16.859509205
    1.233722871   13.400397897   17.921829846   16.860981447
    1.240901503   13.306810586   17.957423549   16.854831485
    1.248080134   13.301739309   18.001381089   16.876975650
    1.255258765   13.351192821   18.050790447   16.916649189
    1.262437396   13.413270857   18.102003772   16.960584277
    1.269616027   13.475277815   18.154094953   17.004737016
    1.276794658   13.535204042   18.207160314   17.048439269
    1.283973289   13.593527996   18.261586572   17.091838291
    1.291151920   13.650580937   18.317866529   17.135200802
    1.298330551   13.704120713   18.376534786   17.178664303
    1.305509182   13.745098326   18.438080758   17.222003914
    1.312687813   13.767987110   18.503219141   17.265170582
    1.319866444   13.800576043   18.573486083   17.309830204
    1.327045075   13.855177187   18.648898634   17.356869731
    1.334223706   13.915343997   18.723336262   17.405687299
    1.341402337   13.955683774   18.772420278   17.455079776
    1.348580968   13.943892161   18.756266639   17.503350430
    1.355759599   13.921022969   18.726653337   17.553377134
    1.362938230   13.951257202   18.758476637   17.608475688
    1.370116861   13.997699248   18.775590027   17.661786006
    1.377295492   14.012903743   18.676962326   17.703695192
    1.384474124   14.027718820   18.566272829   17.748407245
    1.391652755   14.085736455   18.582853103   17.810859428
    1.398831386   14.150912991   18.661479669   17.866840041
    1.406010017   14.152883315   18.725270090   17.858579832
    1.413188648   14.045282516   18.746017822   17.755641853
    1.420367279   13.924165729   18.775639176   17.681373539
    1.427545910   13.879582839   18.841865487   17.696493792
    1.434724541   13.921567456   18.930732064   17.765371704
    1.441903172   13.999733912   19.028048547   17.852611659
    1.449081803   14.083911618   19.129032930   17.944409670
    1.456260434   14.166714428   19.233621656   18.038330524
    1.463439065   14.247629595   19.340650251   18.133259467
    1.470617696   14.326064045   19.438052176   18.219933327
    1.477796327   14.395806039   19.476101995   18.259375427
    1.484974958   14.444466087   19.365278311   18.181131653
    1.492153589   14.489208888   19.202395328   18.062015292
    1.499332220   14.564260569   19.192747443   18.064640653
    1.506510851   14.662303409   19.287004060   18.150636066
    1.513689482   14.764653145   19.406439657   18.259362136
    1.520868114   14.832186090   19.511096071   18.363944210
    1.528046745   14.761828801   19.552337778   18.432995284
    1.535225376   14.507954492   19.521181896   18.422885817
    1.542404007   14.307269279   19.538803809   18.346229175
    1.549582638   14.284068044   19.633327474   18.323136000
    1.556761269   14.367223053   19.755585858   18.393610340
    1.563939900   14.467305317   19.873613726   18.498769999
    1.571118531   14.521743880   19.948556899   18.597876848
    1.578297162   14.508673445   19.942035025   18.663598954
    1.585475793   14.507586685   19.897437529   18.695912449
    1.592654424   14.555662023   19.916083570   18.748374815
    1.599833055   14.620529534   20.013170045   18.838387450
    1.607011686   14.688282836   20.142484877   18.947889321
    1.614190317   14.770683393   20.279377445   19.072592909
    1.621368948   14.859959540   20.375123443   19.186126234
    1.628547579   14.943103421   20.369057827   19.252621025
    1.635726210   15.003055723   20.301702230   19.279975443
    1.642904841   15.027847284   20.202464768   19.249595199
    1.650083472   15.052630373   20.123776606   19.121678654
    1.657262104   15.077437998   20.072868079   18.879408714
    1.664440735   15.082466463   20.061936788   18.704937756
    1.671619366   15.116373167   20.131991565   18.709789456
    1.678797997   15.197477054   20.264736513   18.834955735
    1.685976628   15.299570381   20.417057719   18.996098606
    1.693155259   15.410204260   20.572693818   19.162043663
    1.700333890   15.526912592   20.729421190   19.327428784
    1.707512521   15.645333921   20.884326155   19.489097054
    1.714691152   15.740554346   21.015732856   19.624772957
    1.721869783   15.724779485   21.043793714   19.651311558
    1.729048414   15.497003350   20.871073127   19.469721663
    1.736227045   15.276983494   20.682500835   19.282622091
    1.743405676   15.268000768   20.673355142   19.284296282
    1.750584307   15.372099776   20.770227920   19.369856159
    1.757762938   15.505437258   20.883517700   19.441219938
    1.764941569   15.643101070   21.007696357   19.534685498
    1.772120200   15.778829464   21.147574975   19.672186499
    1.779298831   15.900071184   21.290853569   19.820838234
    1.786477462   15.964325303   21.428374010   19.947906956
    1.793656093   15.934975766   21.556359003   20.033019907
    1.800834725   15.932135273   21.689770443   20.120741123
    1.808013356   16.023943249   21.833379719   20.206387853
    1.815191987   16.133813277   21.967201897   20.183960289
    1.822370618   16.217244157   22.085104269   20.092659982
    1.829549249   16.232480972   22.174571090   20.122954751
    1.836727880   16.084961533   22.164428516   20.223261211
    1.843906511   15.888121545   22.045435681   20.250330016
    1.851085142   15.721666496   21.841590138   20.166834815
    1.858263773   15.661117075   21.757150780   20.159894393
    1.865442404   15.745982616   21.858622271   20.272715248
    1.872621035   15.888897846   22.034926281   20.426630747
    1.879799666   16.035153904   22.223896116   20.579227661
    1.886978297   16.160062493   22.401632423   20.700753855
    1.894156928   16.251303890   22.544411535   20.772762792
    1.901335559   16.329431299   22.610989392   20.843031674
    1.908514190   16.397579595   22.570721095   20.929003127
    1.915692821   16.472926123   22.560680262   21.034024718
    1.922871452   16.582705788   22.670358579   21.170605843
    1.930050083   16.709927210   22.828212091   21.299362699
    1.937228715   16.831719249   22.962045295   21.346095475
    1.944407346   16.933094351   23.051514203   21.303924424
    1.951585977   17.023318507   23.139720310   21.328944291
    1.958764608   17.111411376   23.213316856   21.447047880
    1.965943239   17.174893151   23.283250231   21.597976680
    1.973121870   17.143806049   23.352452667   21.733460978
    1.980300501   17.028874284   23.434281452   21.808104175
    1.987479132   16.950139871   23.563925519   21.848479927
    1.994657763   16.925409804   23.709446129   21.886612878
    2.001836394   16.931059294   23.853134495   21.896419967
    2.009015025   16.973269299   24.007487896   21.891066671
    2.016193656   17.072726110   24.185123392   21.944552803
    2.023372287   17.207953773   24.377965942   22.080121138
    2.030550918   17.352938152   24.581433019   22.253486112
    2.037729549   17.497627843   24.794194711   22.435603618
    2.044908180   17.640352423   25.006408904   22.615961002
    2.052086811   17.778930492   25.171746180   22.778411867
    2.059265442   17.906078845   25.183107387   22.884182149
    2.066444073   18.018366380   25.027962304   22.918763543
    2.073622705   18.122491412   24.901421299   22.965695738
    2.080801336   18.236627845   24.946812335   23.092525767
    2.087979967   18.356081357   25.115833822   23.264478358
    2.095158598   18.406675682   25.253396780   23.417356021
    2.102337229   18.365049965   25.296467081   23.526974982
    2.109515860   18.393808032   25.387144135   23.652934130
    2.116694491   18.523110951   25.554256149   23.798605225
    2.123873122   18.670539065   25.759357611   23.937816752
    2.131051753   18.758264729   25.965723129   23.982613852
    2.138230384   18.776984052   26.139237879   23.910151671
    2.145409015   18.847207394   26.320825552   23.918207754
    2.152587646   18.987930194   26.543104700   24.039415553
    2.159766277   19.123253099   26.776091215   24.200629557
    2.166944908   19.228570649   26.986371217   24.344783561
    2.174123539   19.341880715   27.153572704   24.454978587
    2.181302170   19.411869686   27.251887587   24.497855524
    2.188480801   19.423934613   27.338769851   24.556953650
    2.195659432   19.423062120   27.483199792   24.708682306
    2.202838063   19.476610574   27.667104487   24.902429657
    2.210016694   19.626649227   27.809455988   25.089084345
    2.217195326   19.832112998   27.829230757   25.249768133
    2.224373957   20.062744822   27.890772182   25.421390321
    2.231552588   20.271245653   28.038267948   25.607069203
    2.238731219   20.420073303   28.174059699   25.802021558
    2.245909850   20.537411736   28.337755413   26.020662696
    2.253088481   20.553350751   28.543988402   26.241084419
    2.260267112   20.259731058   28.665768217   26.413059213
    2.267445743   19.742597174   28.689044182   26.530961741
    2.274624374   19.500072376   28.797448907   26.691118261
    2.281803005   19.610754772   29.068860340   26.928289131
    2.288981636   19.876847747   29.427653826   27.213143666
    2.296160267   20.130914647   29.792602196   27.505648205
    2.303338898   20.327367737   30.135309112   27.800544197
    2.310517529   20.520310602   30.479622483   28.121065698
    2.317696160   20.735390571   30.840716188   28.472477946
    2.324874791   20.957243475   31.184949636   28.844734157
    2.332053422   21.118411981   31.424531046   29.183518116
    2.339232053   21.261579171   31.627877703   29.440460785
    2.346410684   21.465316507   31.921662879   29.612778831
    2.353589316   21.640469991   32.190955647   29.506142909
    2.360767947   21.720297574   32.346177545   29.098900902
    2.367946578   21.807197475   32.536742249   29.021482527
    2.375125209   21.889020903   32.706752543   29.275108508
    2.382303840   21.954131809   32.833708455   29.592332344
    2.389482471   21.993990242   32.785583506   29.773871927
    2.396661102   22.078310555   32.772794483   29.979358578
    2.403839733   22.312800992   33.104704151   30.368867640
    2.411018364   22.610717711   33.431834844   30.538800258
    2.418196995   22.907137893   33.477419350   30.123109706
    2.425375626   23.228736444   33.600448725   29.818694908
    2.432554257   23.570876412   33.991054872   30.081619001
    2.439732888   23.853807445   34.490633220   30.474888517
    2.446911519   24.004044042   34.972715133   30.705819972
    2.454090150   24.122049429   35.507834959   30.979083499
    2.461268781   24.337183567   36.101168620   31.396614550
    2.468447412   24.570308486   36.576187628   31.783483861
    2.475626043   24.719801557   36.868456263   32.115172415
    2.482804674   24.724051393   36.995732536   32.518943954
    2.489983306   24.645352253   37.031416956   32.985443240
    2.497161937   24.706992436   37.321268488   33.501838283
    2.504340568   24.889560988   37.734768677   33.888284074
    2.511519199   25.040459223   38.017020961   33.969731874
    2.518697830   25.309746336   38.469036822   34.108202729
    2.525876461   25.756392848   39.256852105   34.623535233
    2.533055092   26.277537142   40.179325112   35.230677530
    2.540233723   26.801855287   40.978654015   35.499376473
