# energy grid [eV]     ieps_x  ieps_y  ieps_z
#
    0.200000000    1.007911887    7.738960920    7.989705184
    0.207178631    1.007910270    7.737396473    7.987990723
    0.214357262    1.007908596    7.735777671    7.986216769
    0.221535893    1.007906867    7.734104596    7.984383422
    0.228714524    1.007905081    7.732377336    7.982490782
    0.235893155    1.007903239    7.730595977    7.980538956
    0.243071786    1.007901341    7.728760613    7.978528052
    0.250250417    1.007899387    7.726871336    7.976458181
    0.257429048    1.007897377    7.724928244    7.974329459
    0.264607679    1.007895311    7.722931436    7.972142003
    0.271786311    1.007893190    7.720881013    7.969895934
    0.278964942    1.007891014    7.718777081    7.967591376
    0.286143573    1.007888781    7.716619747    7.965228457
    0.293322204    1.007886494    7.714409121    7.962807306
    0.300500835    1.007884151    7.712145314    7.960328057
    0.307679466    1.007881753    7.709828443    7.957790847
    0.314858097    1.007879300    7.707458624    7.955195814
    0.322036728    1.007876791    7.705035979    7.952543100
    0.329215359    1.007874228    7.702560628    7.949832852
    0.336393990    1.007871611    7.700032698    7.947065217
    0.343572621    1.007868938    7.697452316    7.944240346
    0.350751252    1.007866211    7.694819613    7.941358394
    0.357929883    1.007863430    7.692134720    7.938419516
    0.365108514    1.007860595    7.689397773    7.935423874
    0.372287145    1.007857705    7.686608910    7.932371628
    0.379465776    1.007854761    7.683768269    7.929262946
    0.386644407    1.007851763    7.680875994    7.926097994
    0.393823038    1.007848712    7.677932229    7.922876944
    0.401001669    1.007845607    7.674937121    7.919599969
    0.408180301    1.007842448    7.671890819    7.916267245
    0.415358932    1.007839236    7.668793475    7.912878952
    0.422537563    1.007835971    7.665645242    7.909435272
    0.429716194    1.007832652    7.662446277    7.905936387
    0.436894825    1.007829281    7.659196738    7.902382486
    0.444073456    1.007825857    7.655896786    7.898773758
    0.451252087    1.007822380    7.652546584    7.895110395
    0.458430718    1.007818851    7.649146296    7.891392591
    0.465609349    1.007815269    7.645696091    7.887620544
    0.472787980    1.007811635    7.642196136    7.883794452
    0.479966611    1.007807949    7.638646605    7.879914518
    0.487145242    1.007804211    7.635047670    7.875980947
    0.494323873    1.007800421    7.631399507    7.871993944
    0.501502504    1.007796579    7.627702293    7.867953720
    0.508681135    1.007792686    7.623956209    7.863860485
    0.515859766    1.007788742    7.620161437    7.859714453
    0.523038397    1.007784747    7.616318160    7.855515841
    0.530217028    1.007780701    7.612426564    7.851264866
    0.537395659    1.007776604    7.608486836    7.846961750
    0.544574290    1.007772456    7.604499167    7.842606714
    0.551752922    1.007768258    7.600463748    7.838199984
    0.558931553    1.007764009    7.596380772    7.833741786
    0.566110184    1.007759711    7.592250435    7.829232351
    0.573288815    1.007755363    7.588072934    7.824671908
    0.580467446    1.007750964    7.583848467    7.820060691
    0.587646077    1.007746517    7.579577236    7.815398935
    0.594824708    1.007742020    7.575259443    7.810686878
    0.602003339    1.007737473    7.570895292    7.805924758
    0.609181970    1.007732878    7.566484990    7.801112816
    0.616360601    1.007728234    7.562028743    7.796251296
    0.623539232    1.007723541    7.557526762    7.791340442
    0.630717863    1.007718800    7.552979257    7.786380501
    0.637896494    1.007714010    7.548386440    7.781371720
    0.645075125    1.007709173    7.543748527    7.776314351
    0.652253756    1.007704287    7.539065732    7.771208645
    0.659432387    1.007699354    7.534338273    7.766054856
    0.666611018    1.007694374    7.529566368    7.760853239
    0.673789649    1.007689346    7.524750239    7.755604050
    0.680968280    1.007684271    7.519890107    7.750307548
    0.688146912    1.007679149    7.514986195    7.744963994
    0.695325543    1.007673981    7.510038727    7.739573649
    0.702504174    1.007668766    7.505047930    7.734136776
    0.709682805    1.007663505    7.500014031    7.728653639
    0.716861436    1.007658197    7.494937259    7.723124504
    0.724040067    1.007652844    7.489817844    7.717549640
    0.731218698    1.007647446    7.484656017    7.711929314
    0.738397329    1.007642002    7.479452011    7.706263798
    0.745575960    1.007636512    7.474206060    7.700553361
    0.752754591    1.007630978    7.468918398    7.694798278
    0.759933222    1.007625399    7.463589263    7.688998823
    0.767111853    1.007619776    7.458218891    7.683155269
    0.774290484    1.007614108    7.452807521    7.677267895
    0.781469115    1.007608396    7.447355393    7.671336977
    0.788647746    1.007602640    7.441862748    7.665362795
    0.795826377    1.007596840    7.436329827    7.659345627
    0.803005008    1.007590997    7.430756873    7.653285756
    0.810183639    1.007585111    7.425144130    7.647183462
    0.817362270    1.007579182    7.419491843    7.641039030
    0.824540902    1.007573210    7.413800258    7.634852742
    0.831719533    1.007567195    7.408069622    7.628624884
    0.838898164    1.007561138    7.402300183    7.622355741
    0.846076795    1.007555039    7.396492188    7.616045601
    0.853255426    1.007548899    7.390645888    7.609694750
    0.860434057    1.007542716    7.384761532    7.603303478
    0.867612688    1.007536492    7.378839372    7.596872072
    0.874791319    1.007530227    7.372879660    7.590400823
    0.881969950    1.007523922    7.366882648    7.583890022
    0.889148581    1.007517575    7.360848590    7.577339960
    0.896327212    1.007511188    7.354777740    7.570750929
    0.903505843    1.007504761    7.348670352    7.564123221
    0.910684474    1.007498293    7.342526683    7.557457130
    0.917863105    1.007491787    7.336346987    7.550752949
    0.925041736    1.007485240    7.330131522    7.544010973
    0.932220367    1.007478654    7.323880546    7.537231497
    0.939398998    1.007472030    7.317594316    7.530414816
    0.946577629    1.007465366    7.311273090    7.523561226
    0.953756260    1.007458664    7.304917127    7.516671023
    0.960934891    1.007451924    7.298526687    7.509744504
    0.968113523    1.007445145    7.292102030    7.502781966
    0.975292154    1.007438329    7.285643416    7.495783706
    0.982470785    1.007431475    7.279151105    7.488750023
    0.989649416    1.007424584    7.272625360    7.481681213
    0.996828047    1.007417656    7.266066441    7.474577576
    1.004006678    1.007410691    7.259474610    7.467439409
    1.011185309    1.007403690    7.252850130    7.460267012
    1.018363940    1.007396652    7.246193263    7.453060684
    1.025542571    1.007389578    7.239504272    7.445820723
    1.032721202    1.007382468    7.232783420    7.438547428
    1.039899833    1.007375323    7.226030971    7.431241100
    1.047078464    1.007368142    7.219247187    7.423902037
    1.054257095    1.007360926    7.212432333    7.416530539
    1.061435726    1.007353676    7.205586672    7.409126905
    1.068614357    1.007346390    7.198710469    7.401691435
    1.075792988    1.007339071    7.191803988    7.394224428
    1.082971619    1.007331717    7.184867493    7.386726184
    1.090150250    1.007324330    7.177901248    7.379197001
    1.097328881    1.007316909    7.170905518    7.371637179
    1.104507513    1.007309455    7.163880568    7.364047017
    1.111686144    1.007301967    7.156826661    7.356426815
    1.118864775    1.007294447    7.149744063    7.348776870
    1.126043406    1.007286894    7.142633038    7.341097481
    1.133222037    1.007279309    7.135493850    7.333388947
    1.140400668    1.007271692    7.128326763    7.325651565
    1.147579299    1.007264043    7.121132043    7.317885635
    1.154757930    1.007256363    7.113909953    7.310091452
    1.161936561    1.007248651    7.106660758    7.302269314
    1.169115192    1.007240908    7.099384721    7.294419519
    1.176293823    1.007233135    7.092082106    7.286542362
    1.183472454    1.007225331    7.084753177    7.278638140
    1.190651085    1.007217496    7.077398197    7.270707148
    1.197829716    1.007209632    7.070017430    7.262749682
    1.205008347    1.007201738    7.062611138    7.254766037
    1.212186978    1.007193814    7.055179584    7.246756508
    1.219365609    1.007185861    7.047723030    7.238721387
    1.226544240    1.007177879    7.040241740    7.230660969
    1.233722871    1.007169868    7.032735974    7.222575546
    1.240901503    1.007161829    7.025205994    7.214465411
    1.248080134    1.007153762    7.017652062    7.206330855
    1.255258765    1.007145666    7.010074438    7.198172171
    1.262437396    1.007137543    7.002473382    7.189989647
    1.269616027    1.007129393    6.994849156    7.181783576
    1.276794658    1.007121215    6.987202017    7.173554244
    1.283973289    1.007113010    6.979532227    7.165301943
    1.291151920    1.007104779    6.971840042    7.157026958
    1.298330551    1.007096521    6.964125723    7.148729579
    1.305509182    1.007088237    6.956389525    7.140410091
    1.312687813    1.007079926    6.948631708    7.132068780
    1.319866444    1.007071591    6.940852528    7.123705932
    1.327045075    1.007063229    6.933052240    7.115321830
    1.334223706    1.007054843    6.925231102    7.106916759
    1.341402337    1.007046432    6.917389367    7.098491001
    1.348580968    1.007037996    6.909527292    7.090044838
    1.355759599    1.007029535    6.901645129    7.081578552
    1.362938230    1.007021050    6.893743133    7.073092422
    1.370116861    1.007012542    6.885821555    7.064586729
    1.377295492    1.007004010    6.877880650    7.056061750
    1.384474124    1.006995454    6.869920667    7.047517765
    1.391652755    1.006986875    6.861941858    7.038955048
    1.398831386    1.006978273    6.853944474    7.030373877
    1.406010017    1.006969649    6.845928764    7.021774526
    1.413188648    1.006961002    6.837894976    7.013157269
    1.420367279    1.006952333    6.829843360    7.004522380
    1.427545910    1.006943642    6.821774162    6.995870131
    1.434724541    1.006934929    6.813687630    6.987200792
    1.441903172    1.006926195    6.805584009    6.978514634
    1.449081803    1.006917439    6.797463544    6.969811926
    1.456260434    1.006908663    6.789326481    6.961092937
    1.463439065    1.006899866    6.781173063    6.952357932
    1.470617696    1.006891049    6.773003533    6.943607179
    1.477796327    1.006882211    6.764818132    6.934840942
    1.484974958    1.006873353    6.756617103    6.926059486
    1.492153589    1.006864476    6.748400686    6.917263073
    1.499332220    1.006855579    6.740169120    6.908451964
    1.506510851    1.006846663    6.731922645    6.899626422
    1.513689482    1.006837728    6.723661498    6.890786704
    1.520868114    1.006828774    6.715385916    6.881933071
    1.528046745    1.006819802    6.707096137    6.873065779
    1.535225376    1.006810812    6.698792394    6.864185084
    1.542404007    1.006801803    6.690474922    6.855291241
    1.549582638    1.006792777    6.682143956    6.846384505
    1.556761269    1.006783733    6.673799728    6.837465128
    1.563939900    1.006774671    6.665442469    6.828533362
    1.571118531    1.006765593    6.657072410    6.819589457
    1.578297162    1.006756498    6.648689781    6.810633662
    1.585475793    1.006747386    6.640294812    6.801666226
    1.592654424    1.006738258    6.631887729    6.792687395
    1.599833055    1.006729114    6.623468761    6.783697415
    1.607011686    1.006719954    6.615038132    6.774696531
    1.614190317    1.006710778    6.606596069    6.765684985
    1.621368948    1.006701587    6.598142795    6.756663020
    1.628547579    1.006692380    6.589678534    6.747630877
    1.635726210    1.006683159    6.581203506    6.738588794
    1.642904841    1.006673923    6.572717934    6.729537010
    1.650083472    1.006664672    6.564222038    6.720475762
    1.657262104    1.006655407    6.555716036    6.711405287
    1.664440735    1.006646128    6.547200147    6.702325818
    1.671619366    1.006636835    6.538674588    6.693237588
    1.678797997    1.006627529    6.530139574    6.684140830
    1.685976628    1.006618209    6.521595321    6.675035774
    1.693155259    1.006608876    6.513042041    6.665922649
    1.700333890    1.006599530    6.504479949    6.656801685
    1.707512521    1.006590172    6.495909256    6.647673107
    1.714691152    1.006580801    6.487330173    6.638537140
    1.721869783    1.006571417    6.478742908    6.629394010
    1.729048414    1.006562022    6.470147672    6.620243939
    1.736227045    1.006552615    6.461544670    6.611087149
    1.743405676    1.006543196    6.452934110    6.601923859
    1.750584307    1.006533766    6.444316197    6.592754290
    1.757762938    1.006524324    6.435691135    6.583578657
    1.764941569    1.006514872    6.427059126    6.574397179
    1.772120200    1.006505409    6.418420374    6.565210070
    1.779298831    1.006495935    6.409775079    6.556017543
    1.786477462    1.006486452    6.401123441    6.546819811
    1.793656093    1.006476958    6.392465658    6.537617085
    1.800834725    1.006467454    6.383801927    6.528409574
    1.808013356    1.006457940    6.375132447    6.519197487
    1.815191987    1.006448417    6.366457410    6.509981032
    1.822370618    1.006438885    6.357777013    6.500760412
    1.829549249    1.006429344    6.349091447    6.491535834
    1.836727880    1.006419794    6.340400906    6.482307500
    1.843906511    1.006410235    6.331705578    6.473075611
    1.851085142    1.006400668    6.323005655    6.463840368
    1.858263773    1.006391093    6.314301325    6.454601971
    1.865442404    1.006381509    6.305592775    6.445360615
    1.872621035    1.006371918    6.296880191    6.436116499
    1.879799666    1.006362319    6.288163759    6.426869816
    1.886978297    1.006352713    6.279443662    6.417620760
    1.894156928    1.006343099    6.270720084    6.408369524
    1.901335559    1.006333479    6.261993205    6.399116299
    1.908514190    1.006323852    6.253263206    6.389861274
    1.915692821    1.006314218    6.244530267    6.380604637
    1.922871452    1.006304577    6.235794566    6.371346575
    1.930050083    1.006294931    6.227056280    6.362087274
    1.937228715    1.006285278    6.218315585    6.352826917
    1.944407346    1.006275620    6.209572656    6.343565689
    1.951585977    1.006265956    6.200827665    6.334303770
    1.958764608    1.006256286    6.192080786    6.325041340
    1.965943239    1.006246611    6.183332190    6.315778579
    1.973121870    1.006236931    6.174582048    6.306515663
    1.980300501    1.006227246    6.165830527    6.297252770
    1.987479132    1.006217557    6.157077795    6.287990073
    1.994657763    1.006207863    6.148324021    6.278727747
    2.001836394    1.006198164    6.139569368    6.269465963
    2.009015025    1.006188461    6.130814001    6.260204892
    2.016193656    1.006178755    6.122058084    6.250944705
    2.023372287    1.006169045    6.113301779    6.241685568
    2.030550918    1.006159331    6.104545246    6.232427650
    2.037729549    1.006149613    6.095788645    6.223171115
    2.044908180    1.006139892    6.087032135    6.213916128
    2.052086811    1.006130169    6.078275873    6.204662851
    2.059265442    1.006120442    6.069520015    6.195411447
    2.066444073    1.006110712    6.060764717    6.186162076
    2.073622705    1.006100980    6.052010132    6.176914896
    2.080801336    1.006091246    6.043256414    6.167670066
    2.087979967    1.006081510    6.034503714    6.158427741
    2.095158598    1.006071771    6.025752183    6.149188077
    2.102337229    1.006062030    6.017001970    6.139951228
    2.109515860    1.006052288    6.008253223    6.130717347
    2.116694491    1.006042545    5.999506089    6.121486584
    2.123873122    1.006032799    5.990760715    6.112259089
    2.131051753    1.006023053    5.982017245    6.103035011
    2.138230384    1.006013306    5.973275824    6.093814498
    2.145409015    1.006003558    5.964536593    6.084597696
    2.152587646    1.005993809    5.955799694    6.075384749
    2.159766277    1.005984059    5.947065267    6.066175801
    2.166944908    1.005974309    5.938333452    6.056970995
    2.174123539    1.005964559    5.929604387    6.047770471
    2.181302170    1.005954809    5.920878209    6.038574370
    2.188480801    1.005945059    5.912155053    6.029382829
    2.195659432    1.005935309    5.903435055    6.020195987
    2.202838063    1.005925560    5.894718348    6.011013979
    2.210016694    1.005915811    5.886005064    6.001836940
    2.217195326    1.005906063    5.877295335    5.992665004
    2.224373957    1.005896315    5.868589292    5.983498304
    2.231552588    1.005886569    5.859887063    5.974336969
    2.238731219    1.005876824    5.851188776    5.965181132
    2.245909850    1.005867080    5.842494559    5.956030919
    2.253088481    1.005857338    5.833804538    5.946886458
    2.260267112    1.005847597    5.825118838    5.937747877
    2.267445743    1.005837858    5.816437581    5.928615300
    2.274624374    1.005828121    5.807760892    5.919488850
    2.281803005    1.005818386    5.799088891    5.910368652
    2.288981636    1.005808653    5.790421699    5.901254825
    2.296160267    1.005798922    5.781759435    5.892147491
    2.303338898    1.005789194    5.773102219    5.883046769
    2.310517529    1.005779469    5.764450167    5.873952777
    2.317696160    1.005769746    5.755803395    5.864865632
    2.324874791    1.005760026    5.747162019    5.855785449
    2.332053422    1.005750309    5.738526153    5.846712342
    2.339232053    1.005740595    5.729895909    5.837646426
    2.346410684    1.005730885    5.721271401    5.828587813
    2.353589316    1.005721178    5.712652739    5.819536613
    2.360767947    1.005711474    5.704040033    5.810492936
    2.367946578    1.005701774    5.695433392    5.801456892
    2.375125209    1.005692078    5.686832924    5.792428588
    2.382303840    1.005682386    5.678238736    5.783408131
    2.389482471    1.005672698    5.669650934    5.774395626
    2.396661102    1.005663015    5.661069622    5.765391178
    2.403839733    1.005653335    5.652494904    5.756394889
    2.411018364    1.005643660    5.643926884    5.747406862
    2.418196995    1.005633990    5.635365663    5.738427198
    2.425375626    1.005624324    5.626811342    5.729455997
    2.432554257    1.005614663    5.618264020    5.720493358
    2.439732888    1.005605007    5.609723797    5.711539379
    2.446911519    1.005595356    5.601190770    5.702594156
    2.454090150    1.005585710    5.592665037    5.693657786
    2.461268781    1.005576070    5.584146692    5.684730362
    2.468447412    1.005566435    5.575635832    5.675811978
    2.475626043    1.005556805    5.567132549    5.666902728
    2.482804674    1.005547182    5.558636938    5.658002701
    2.489983306    1.005537564    5.550149089    5.649111990
    2.497161937    1.005527951    5.541669094    5.640230683
    2.504340568    1.005518345    5.533197044    5.631358868
    2.511519199    1.005508745    5.524733026    5.622496633
    2.518697830    1.005499151    5.516277130    5.613644065
    2.525876461    1.005489564    5.507829442    5.604801248
    2.533055092    1.005479983    5.499390050    5.595968268
    2.540233723    1.005470408    5.490959038    5.587145206
