# energy grid [eV]     ieps_x  ieps_y  ieps_z
#
    0.200000000    9.820634983    9.124782801    2.377062678
    0.207178631    9.818608890    9.122792157    2.376807557
    0.214357262    9.816512384    9.120732434    2.376543545
    0.221535893    9.814345572    9.118603746    2.376270651
    0.228714524    9.812108565    9.116406213    2.375988886
    0.235893155    9.809801473    9.114139954    2.375698262
    0.243071786    9.807424415    9.111805098    2.375398790
    0.250250417    9.804977510    9.109401771    2.375090483
    0.257429048    9.802460880    9.106930109    2.374773352
    0.264607679    9.799874654    9.104390246    2.374447412
    0.271786311    9.797218960    9.101782324    2.374112674
    0.278964942    9.794493933    9.099106485    2.373769153
    0.286143573    9.791699708    9.096362878    2.373416861
    0.293322204    9.788836427    9.093551653    2.373055814
    0.300500835    9.785904232    9.090672964    2.372686025
    0.307679466    9.782903269    9.087726970    2.372307510
    0.314858097    9.779833690    9.084713831    2.371920283
    0.322036728    9.776695647    9.081633713    2.371524361
    0.329215359    9.773489295    9.078486784    2.371119758
    0.336393990    9.770214796    9.075273215    2.370706492
    0.343572621    9.766872312    9.071993182    2.370284577
    0.350751252    9.763462008    9.068646862    2.369854033
    0.357929883    9.759984054    9.065234438    2.369414874
    0.365108514    9.756438622    9.061756094    2.368967119
    0.372287145    9.752825887    9.058212018    2.368510786
    0.379465776    9.749146027    9.054602403    2.368045893
    0.386644407    9.745399225    9.050927443    2.367572458
    0.393823038    9.741585664    9.047187336    2.367090500
    0.401001669    9.737705532    9.043382283    2.366600037
    0.408180301    9.733759019    9.039512488    2.366101090
    0.415358932    9.729746319    9.035578158    2.365593677
    0.422537563    9.725667629    9.031579504    2.365077820
    0.429716194    9.721523146    9.027516740    2.364553537
    0.436894825    9.717313075    9.023390081    2.364020851
    0.444073456    9.713037619    9.019199748    2.363479781
    0.451252087    9.708696986    9.014945962    2.362930348
    0.458430718    9.704291388    9.010628949    2.362372575
    0.465609349    9.699821037    9.006248938    2.361806483
    0.472787980    9.695286150    9.001806159    2.361232095
    0.479966611    9.690686945    8.997300846    2.360649431
    0.487145242    9.686023646    8.992733236    2.360058516
    0.494323873    9.681296474    8.988103569    2.359459372
    0.501502504    9.676505659    8.983412086    2.358852023
    0.508681135    9.671651429    8.978659033    2.358236491
    0.515859766    9.666734017    8.973844658    2.357612801
    0.523038397    9.661753656    8.968969209    2.356980976
    0.530217028    9.656710586    8.964032942    2.356341042
    0.537395659    9.651605045    8.959036109    2.355693022
    0.544574290    9.646437276    8.953978971    2.355036942
    0.551752922    9.641207523    8.948861787    2.354372827
    0.558931553    9.635916034    8.943684819    2.353700702
    0.566110184    9.630563058    8.938448334    2.353020593
    0.573288815    9.625148847    8.933152599    2.352332525
    0.580467446    9.619673656    8.927797885    2.351636526
    0.587646077    9.614137741    8.922384463    2.350932621
    0.594824708    9.608541362    8.916912608    2.350220838
    0.602003339    9.602884778    8.911382597    2.349501203
    0.609181970    9.597168253    8.905794710    2.348773743
    0.616360601    9.591392054    8.900149228    2.348038487
    0.623539232    9.585556447    8.894446434    2.347295461
    0.630717863    9.579661703    8.888686614    2.346544693
    0.637896494    9.573708093    8.882870056    2.345786213
    0.645075125    9.567695891    8.876997049    2.345020048
    0.652253756    9.561625373    8.871067885    2.344246226
    0.659432387    9.555496818    8.865082859    2.343464778
    0.666611018    9.549310505    8.859042264    2.342675731
    0.673789649    9.543066715    8.852946400    2.341879116
    0.680968280    9.536765734    8.846795566    2.341074962
    0.688146912    9.530407847    8.840590062    2.340263298
    0.695325543    9.523993340    8.834330192    2.339444156
    0.702504174    9.517522504    8.828016261    2.338617564
    0.709682805    9.510995629    8.821648575    2.337783553
    0.716861436    9.504413009    8.815227441    2.336942155
    0.724040067    9.497774937    8.808753171    2.336093399
    0.731218698    9.491081711    8.802226076    2.335237318
    0.738397329    9.484333628    8.795646467    2.334373941
    0.745575960    9.477530988    8.789014661    2.333503302
    0.752754591    9.470674091    8.782330972    2.332625430
    0.759933222    9.463763241    8.775595719    2.331740359
    0.767111853    9.456798741    8.768809219    2.330848120
    0.774290484    9.449780898    8.761971795    2.329948746
    0.781469115    9.442710018    8.755083766    2.329042268
    0.788647746    9.435586411    8.748145457    2.328128720
    0.795826377    9.428410385    8.741157190    2.327208133
    0.803005008    9.421182253    8.734119292    2.326280542
    0.810183639    9.413902327    8.727032090    2.325345980
    0.817362270    9.406570921    8.719895910    2.324404478
    0.824540902    9.399188350    8.712711083    2.323456072
    0.831719533    9.391754931    8.705477937    2.322500795
    0.838898164    9.384270982    8.698196805    2.321538679
    0.846076795    9.376736821    8.690868018    2.320569760
    0.853255426    9.369152768    8.683491909    2.319594072
    0.860434057    9.361519145    8.676068813    2.318611648
    0.867612688    9.353836273    8.668599064    2.317622523
    0.874791319    9.346104476    8.661082998    2.316626731
    0.881969950    9.338324078    8.653520953    2.315624308
    0.889148581    9.330495405    8.645913265    2.314615288
    0.896327212    9.322618782    8.638260273    2.313599706
    0.903505843    9.314694537    8.630562315    2.312577597
    0.910684474    9.306722997    8.622819733    2.311548997
    0.917863105    9.298704492    8.615032865    2.310513940
    0.925041736    9.290639351    8.607202054    2.309472462
    0.932220367    9.282527904    8.599327640    2.308424600
    0.939398998    9.274370484    8.591409967    2.307370388
    0.946577629    9.266167421    8.583449376    2.306309862
    0.953756260    9.257919049    8.575446212    2.305243058
    0.960934891    9.249625700    8.567400818    2.304170014
    0.968113523    9.241287710    8.559313539    2.303090763
    0.975292154    9.232905411    8.551184718    2.302005344
    0.982470785    9.224479141    8.543014701    2.300913792
    0.989649416    9.216009234    8.534803833    2.299816144
    0.996828047    9.207496027    8.526552461    2.298712436
    1.004006678    9.198939856    8.518260930    2.297602706
    1.011185309    9.190341058    8.509929585    2.296486989
    1.018363940    9.181699973    8.501558775    2.295365323
    1.025542571    9.173016936    8.493148845    2.294237745
    1.032721202    9.164292287    8.484700141    2.293104292
    1.039899833    9.155526365    8.476213012    2.291965001
    1.047078464    9.146719509    8.467687804    2.290819909
    1.054257095    9.137872058    8.459124863    2.289669054
    1.061435726    9.128984352    8.450524538    2.288512472
    1.068614357    9.120056731    8.441887175    2.287350202
    1.075792988    9.111089534    8.433213122    2.286182280
    1.082971619    9.102083103    8.424502725    2.285008745
    1.090150250    9.093037777    8.415756331    2.283829634
    1.097328881    9.083953898    8.406974287    2.282644985
    1.104507513    9.074831805    8.398156940    2.281454835
    1.111686144    9.065671840    8.389304637    2.280259222
    1.118864775    9.056474344    8.380417723    2.279058184
    1.126043406    9.047239657    8.371496546    2.277851759
    1.133222037    9.037968119    8.362541450    2.276639986
    1.140400668    9.028660073    8.353552781    2.275422901
    1.147579299    9.019315858    8.344530886    2.274200543
    1.154757930    9.009935815    8.335476108    2.272972950
    1.161936561    9.000520285    8.326388792    2.271740161
    1.169115192    8.991069608    8.317269283    2.270502213
    1.176293823    8.981584124    8.308117924    2.269259144
    1.183472454    8.972064173    8.298935059    2.268010993
    1.190651085    8.962510095    8.289721031    2.266757798
    1.197829716    8.952922230    8.280476182    2.265499598
    1.205008347    8.943300916    8.271200855    2.264236429
    1.212186978    8.933646494    8.261895390    2.262968332
    1.219365609    8.923959301    8.252560128    2.261695344
    1.226544240    8.914239676    8.243195411    2.260417503
    1.233722871    8.904487958    8.233801577    2.259134848
    1.240901503    8.894704482    8.224378966    2.257847417
    1.248080134    8.884889588    8.214927916    2.256555249
    1.255258765    8.875043612    8.205448765    2.255258382
    1.262437396    8.865166890    8.195941850    2.253956853
    1.269616027    8.855259758    8.186407508    2.252650703
    1.276794658    8.845322552    8.176846074    2.251339968
    1.283973289    8.835355606    8.167257882    2.250024688
    1.291151920    8.825359255    8.157643268    2.248704900
    1.298330551    8.815333832    8.148002565    2.247380644
    1.305509182    8.805279672    8.138336104    2.246051957
    1.312687813    8.795197106    8.128644218    2.244718877
    1.319866444    8.785086467    8.118927238    2.243381443
    1.327045075    8.774948086    8.109185494    2.242039694
    1.334223706    8.764782294    8.099419314    2.240693667
    1.341402337    8.754589421    8.089629027    2.239343401
    1.348580968    8.744369796    8.079814959    2.237988934
    1.355759599    8.734123749    8.069977439    2.236630303
    1.362938230    8.723851606    8.060116790    2.235267549
    1.370116861    8.713553695    8.050233337    2.233900707
    1.377295492    8.703230344    8.040327403    2.232529817
    1.384474124    8.692881876    8.030399311    2.231154917
    1.391652755    8.682508618    8.020449382    2.229776044
    1.398831386    8.672110893    8.010477937    2.228393236
    1.406010017    8.661689024    8.000485294    2.227006532
    1.413188648    8.651243334    7.990471771    2.225615970
    1.420367279    8.640774144    7.980437687    2.224221586
    1.427545910    8.630281775    7.970383355    2.222823420
    1.434724541    8.619766547    7.960309093    2.221421508
    1.441903172    8.609228777    7.950215212    2.220015888
    1.449081803    8.598668785    7.940102025    2.218606599
    1.456260434    8.588086886    7.929969844    2.217193677
    1.463439065    8.577483397    7.919818979    2.215777161
    1.470617696    8.566858633    7.909649739    2.214357087
    1.477796327    8.556212907    7.899462432    2.212933493
    1.484974958    8.545546533    7.889257364    2.211506416
    1.492153589    8.534859822    7.879034840    2.210075895
    1.499332220    8.524153085    7.868795164    2.208641965
    1.506510851    8.513426631    7.858538640    2.207204664
    1.513689482    8.502680771    7.848265568    2.205764029
    1.520868114    8.491915810    7.837976249    2.204320097
    1.528046745    8.481132057    7.827670982    2.202872905
    1.535225376    8.470329815    7.817350064    2.201422490
    1.542404007    8.459509390    7.807013792    2.199968888
    1.549582638    8.448671084    7.796662461    2.198512137
    1.556761269    8.437815200    7.786296364    2.197052273
    1.563939900    8.426942038    7.775915794    2.195589333
    1.571118531    8.416051898    7.765521042    2.194123352
    1.578297162    8.405145079    7.755112397    2.192654368
    1.585475793    8.394221878    7.744690147    2.191182416
    1.592654424    8.383282591    7.734254579    2.189707533
    1.599833055    8.372327513    7.723805979    2.188229755
    1.607011686    8.361356937    7.713344631    2.186749118
    1.614190317    8.350371157    7.702870817    2.185265658
    1.621368948    8.339370463    7.692384819    2.183779411
    1.628547579    8.328355145    7.681886916    2.182290411
    1.635726210    8.317325491    7.671377387    2.180798696
    1.642904841    8.306281791    7.660856508    2.179304301
    1.650083472    8.295224328    7.650324556    2.177807261
    1.657262104    8.284153389    7.639781804    2.176307611
    1.664440735    8.273069256    7.629228524    2.174805386
    1.671619366    8.261972213    7.618664989    2.173300623
    1.678797997    8.250862539    7.608091467    2.171793355
    1.685976628    8.239740515    7.597508226    2.170283618
    1.693155259    8.228606419    7.586915534    2.168771446
    1.700333890    8.217460527    7.576313655    2.167256875
    1.707512521    8.206303116    7.565702854    2.165739939
    1.714691152    8.195134459    7.555083392    2.164220672
    1.721869783    8.183954829    7.544455530    2.162699108
    1.729048414    8.172764499    7.533819528    2.161175283
    1.736227045    8.161563737    7.523175642    2.159649230
    1.743405676    8.150352813    7.512524130    2.158120983
    1.750584307    8.139131993    7.501865246    2.156590577
    1.757762938    8.127901545    7.491199243    2.155058044
    1.764941569    8.116661732    7.480526372    2.153523419
    1.772120200    8.105412818    7.469846884    2.151986735
    1.779298831    8.094155064    7.459161028    2.150448026
    1.786477462    8.082888731    7.448469050    2.148907325
    1.793656093    8.071614078    7.437771195    2.147364665
    1.800834725    8.060331362    7.427067709    2.145820079
    1.808013356    8.049040839    7.416358832    2.144273601
    1.815191987    8.037742763    7.405644807    2.142725263
    1.822370618    8.026437389    7.394925872    2.141175097
    1.829549249    8.015124967    7.384202265    2.139623137
    1.836727880    8.003805749    7.373474222    2.138069415
    1.843906511    7.992479982    7.362741979    2.136513963
    1.851085142    7.981147915    7.352005767    2.134956814
    1.858263773    7.969809793    7.341265820    2.133397999
    1.865442404    7.958465860    7.330522366    2.131837550
    1.872621035    7.947116361    7.319775634    2.130275499
    1.879799666    7.935761535    7.309025852    2.128711879
    1.886978297    7.924401625    7.298273244    2.127146720
    1.894156928    7.913036867    7.287518034    2.125580053
    1.901335559    7.901667499    7.276760445    2.124011911
    1.908514190    7.890293757    7.266000697    2.122442324
    1.915692821    7.878915875    7.255239009    2.120871324
    1.922871452    7.867534087    7.244475600    2.119298940
    1.930050083    7.856148622    7.233710684    2.117725205
    1.937228715    7.844759711    7.222944477    2.116150147
    1.944407346    7.833367582    7.212177192    2.114573799
    1.951585977    7.821972462    7.201409039    2.112996190
    1.958764608    7.810574577    7.190640229    2.111417351
    1.965943239    7.799174150    7.179870970    2.109837311
    1.973121870    7.787771403    7.169101469    2.108256100
    1.980300501    7.776366557    7.158331930    2.106673748
    1.987479132    7.764959833    7.147562558    2.105090285
    1.994657763    7.753551447    7.136793555    2.103505741
    2.001836394    7.742141616    7.126025121    2.101920144
    2.009015025    7.730730555    7.115257456    2.100333523
    2.016193656    7.719318478    7.104490756    2.098745909
    2.023372287    7.707905596    7.093725218    2.097157329
    2.030550918    7.696492120    7.082961036    2.095567812
    2.037729549    7.685078259    7.072198403    2.093977388
    2.044908180    7.673664220    7.061437511    2.092386084
    2.052086811    7.662250210    7.050678549    2.090793929
    2.059265442    7.650836433    7.039921706    2.089200951
    2.066444073    7.639423092    7.029167168    2.087607178
    2.073622705    7.628010389    7.018415121    2.086012638
    2.080801336    7.616598523    7.007665749    2.084417358
    2.087979967    7.605187694    6.996919234    2.082821367
    2.095158598    7.593778099    6.986175757    2.081224692
    2.102337229    7.582369933    6.975435497    2.079627360
    2.109515860    7.570963390    6.964698632    2.078029397
    2.116694491    7.559558664    6.953965337    2.076430832
    2.123873122    7.548155945    6.943235789    2.074831692
    2.131051753    7.536755423    6.932510161    2.073232001
    2.138230384    7.525357288    6.921788623    2.071631788
    2.145409015    7.513961725    6.911071348    2.070031079
    2.152587646    7.502568920    6.900358502    2.068429900
    2.159766277    7.491179057    6.889650255    2.066828277
    2.166944908    7.479792318    6.878946772    2.065226236
    2.174123539    7.468408886    6.868248217    2.063623802
    2.181302170    7.457028938    6.857554754    2.062021003
    2.188480801    7.445652654    6.846866544    2.060417862
    2.195659432    7.434280211    6.836183747    2.058814406
    2.202838063    7.422911782    6.825506523    2.057210659
    2.210016694    7.411547544    6.814835028    2.055606647
    2.217195326    7.400187667    6.804169418    2.054002395
    2.224373957    7.388832323    6.793509848    2.052397927
    2.231552588    7.377481681    6.782856471    2.050793268
    2.238731219    7.366135911    6.772209438    2.049188442
    2.245909850    7.354795177    6.761568900    2.047583474
    2.253088481    7.343459647    6.750935005    2.045978388
    2.260267112    7.332129483    6.740307900    2.044373208
    2.267445743    7.320804848    6.729687733    2.042767958
    2.274624374    7.309485904    6.719074647    2.041162662
    2.281803005    7.298172810    6.708468785    2.039557343
    2.288981636    7.286865724    6.697870290    2.037952024
    2.296160267    7.275564804    6.687279302    2.036346729
    2.303338898    7.264270204    6.676695960    2.034741481
    2.310517529    7.252982080    6.666120402    2.033136302
    2.317696160    7.241700584    6.655552764    2.031531217
    2.324874791    7.230425867    6.644993181    2.029926247
    2.332053422    7.219158080    6.634441787    2.028321415
    2.339232053    7.207897370    6.623898715    2.026716743
    2.346410684    7.196643887    6.613364095    2.025112253
    2.353589316    7.185397775    6.602838056    2.023507968
    2.360767947    7.174159179    6.592320729    2.021903910
    2.367946578    7.162928242    6.581812238    2.020300100
    2.375125209    7.151705107    6.571312711    2.018696560
    2.382303840    7.140489914    6.560822272    2.017093312
    2.389482471    7.129282803    6.550341044    2.015490376
    2.396661102    7.118083911    6.539869148    2.013887774
    2.403839733    7.106893375    6.529406706    2.012285527
    2.411018364    7.095711331    6.518953836    2.010683656
    2.418196995    7.084537912    6.508510658    2.009082181
    2.425375626    7.073373251    6.498077286    2.007481124
    2.432554257    7.062217480    6.487653838    2.005880504
    2.439732888    7.051070728    6.477240427    2.004280343
    2.446911519    7.039933126    6.466837166    2.002680659
    2.454090150    7.028804800    6.456444168    2.001081474
    2.461268781    7.017685876    6.446061542    1.999482807
    2.468447412    7.006576480    6.435689398    1.997884677
    2.475626043    6.995476735    6.425327844    1.996287105
    2.482804674    6.984386765    6.414976987    1.994690109
    2.489983306    6.973306689    6.404636933    1.993093710
    2.497161937    6.962236629    6.394307786    1.991497926
    2.504340568    6.951176703    6.383989650    1.989902776
    2.511519199    6.940127029    6.373682625    1.988308279
    2.518697830    6.929087722    6.363386815    1.986714454
    2.525876461    6.918058899    6.353102318    1.985121319
    2.533055092    6.907040672    6.342829232    1.983528893
    2.540233723    6.896033155    6.332567656    1.981937194
