# energy grid [eV]     epsr_x  epsr_y  epsr_z
#
    0.200000000    9.645456296   11.453153050   12.544387259
    0.207178631    9.647138560   11.455497793   12.546999170
    0.214357262    9.648880877   11.457926399   12.549704510
    0.221535893    9.650683326   11.460438991   12.552503417
    0.228714524    9.652545985   11.463035697   12.555396037
    0.235893155    9.654468937   11.465716651   12.558382518
    0.243071786    9.656452268   11.468481990   12.561463015
    0.250250417    9.658496066   11.471331857   12.564637688
    0.257429048    9.660600421   11.474266397   12.567906701
    0.264607679    9.662765427   11.477285761   12.571270224
    0.271786311    9.664991180   11.480390106   12.574728431
    0.278964942    9.667277780   11.483579591   12.578281502
    0.286143573    9.669625328   11.486854380   12.581929621
    0.293322204    9.672033929   11.490214642   12.585672979
    0.300500835    9.674503691   11.493660552   12.589511771
    0.307679466    9.677034724   11.497192288   12.593446197
    0.314858097    9.679627141   11.500810032   12.597476463
    0.322036728    9.682281059   11.504513972   12.601602779
    0.329215359    9.684996596   11.508304302   12.605825363
    0.336393990    9.687773875   11.512181217   12.610144434
    0.343572621    9.690613021   11.516144920   12.614560221
    0.350751252    9.693514160   11.520195618   12.619072955
    0.357929883    9.696477424   11.524333522   12.623682875
    0.365108514    9.699502947   11.528558848   12.628390222
    0.372287145    9.702590865   11.532871818   12.633195246
    0.379465776    9.705741317   11.537272658   12.638098201
    0.386644407    9.708954447   11.541761599   12.643099346
    0.393823038    9.712230400   11.546338876   12.648198947
    0.401001669    9.715569324   11.551004732   12.653397275
    0.408180301    9.718971372   11.555759412   12.658694606
    0.415358932    9.722436698   11.560603168   12.664091222
    0.422537563    9.725965460   11.565536255   12.669587412
    0.429716194    9.729557820   11.570558935   12.675183470
    0.436894825    9.733213940   11.575671476   12.680879694
    0.444073456    9.736933990   11.580874148   12.686676391
    0.451252087    9.740718139   11.586167230   12.692573873
    0.458430718    9.744566561   11.591551003   12.698572456
    0.465609349    9.748479433   11.597025755   12.704672464
    0.472787980    9.752456935   11.602591780   12.710874226
    0.479966611    9.756499250   11.608249377   12.717178080
    0.487145242    9.760606566   11.613998848   12.723584365
    0.494323873    9.764779072   11.619840505   12.730093430
    0.501502504    9.769016962   11.625774662   12.736705631
    0.508681135    9.773320432   11.631801641   12.743421326
    0.515859766    9.777689683   11.637921767   12.750240884
    0.523038397    9.782124919   11.644135373   12.757164677
    0.530217028    9.786626345   11.650442797   12.764193087
    0.537395659    9.791194173   11.656844382   12.771326498
    0.544574290    9.795828616   11.663340480   12.778565305
    0.551752922    9.800529893   11.669931444   12.785909907
    0.558931553    9.805298224   11.676617637   12.793360710
    0.566110184    9.810133833   11.683399425   12.800918128
    0.573288815    9.815036949   11.690277184   12.808582581
    0.580467446    9.820007803   11.697251293   12.816354497
    0.587646077    9.825046632   11.704322137   12.824234308
    0.594824708    9.830153673   11.711490109   12.832222456
    0.602003339    9.835329171   11.718755608   12.840319390
    0.609181970    9.840573372   11.726119038   12.848525565
    0.616360601    9.845886526   11.733580811   12.856841443
    0.623539232    9.851268887   11.741141345   12.865267494
    0.630717863    9.856720714   11.748801065   12.873804196
    0.637896494    9.862242269   11.756560401   12.882452034
    0.645075125    9.867833817   11.764419791   12.891211500
    0.652253756    9.873495629   11.772379681   12.900083094
    0.659432387    9.879227979   11.780440520   12.909067324
    0.666611018    9.885031143   11.788602769   12.918164705
    0.673789649    9.890905405   11.796866892   12.927375762
    0.680968280    9.896851051   11.805233361   12.936701025
    0.688146912    9.902868370   11.813702657   12.946141034
    0.695325543    9.908957658   11.822275266   12.955696336
    0.702504174    9.915119212   11.830951682   12.965367489
    0.709682805    9.921353337   11.839732407   12.975155055
    0.716861436    9.927660339   11.848617950   12.985059607
    0.724040067    9.934040529   11.857608827   12.995081727
    0.731218698    9.940494225   11.866705562   13.005222004
    0.738397329    9.947021746   11.875908688   13.015481037
    0.745575960    9.953623417   11.885218743   13.025859434
    0.752754591    9.960299568   11.894636277   13.036357809
    0.759933222    9.967050533   11.904161843   13.046976789
    0.767111853    9.973876651   11.913796006   13.057717008
    0.774290484    9.980778265   11.923539338   13.068579110
    0.781469115    9.987755723   11.933392419   13.079563747
    0.788647746    9.994809378   11.943355837   13.090671582
    0.795826377   10.001939588   11.953430189   13.101903286
    0.803005008   10.009146716   11.963616082   13.113259543
    0.810183639   10.016431128   11.973914128   13.124741042
    0.817362270   10.023793198   11.984324952   13.136348486
    0.824540902   10.031233303   11.994849186   13.148082586
    0.831719533   10.038751826   12.005487469   13.159944063
    0.838898164   10.046349155   12.016240453   13.171933650
    0.846076795   10.054025681   12.027108797   13.184052089
    0.853255426   10.061781805   12.038093170   13.196300134
    0.860434057   10.069617929   12.049194250   13.208678547
    0.867612688   10.077534463   12.060412724   13.221188103
    0.874791319   10.085531820   12.071749291   13.233829589
    0.881969950   10.093610421   12.083204657   13.246603800
    0.889148581   10.101770692   12.094779541   13.259511545
    0.896327212   10.110013063   12.106474669   13.272553644
    0.903505843   10.118337971   12.118290780   13.285730927
    0.910684474   10.126745860   12.130228623   13.299044237
    0.917863105   10.135237177   12.142288954   13.312494430
    0.925041736   10.143812378   12.154472546   13.326082371
    0.932220367   10.152471921   12.166780176   13.339808940
    0.939398998   10.161216275   12.179212637   13.353675029
    0.946577629   10.170045911   12.191770731   13.367681541
    0.953756260   10.178961308   12.204455272   13.381829394
    0.960934891   10.187962952   12.217267085   13.396119517
    0.968113523   10.197051333   12.230207007   13.410552853
    0.975292154   10.206226951   12.243275886   13.425130358
    0.982470785   10.215490308   12.256474582   13.439853002
    0.989649416   10.224841916   12.269803968   13.454721769
    0.996828047   10.234282293   12.283264929   13.469737656
    1.004006678   10.243811963   12.296858362   13.484901674
    1.011185309   10.253431458   12.310585177   13.500214848
    1.018363940   10.263141315   12.324446297   13.515678220
    1.025542571   10.272942081   12.338442657   13.531292844
    1.032721202   10.282834307   12.352575207   13.547059790
    1.039899833   10.292818553   12.366844908   13.562980144
    1.047078464   10.302895386   12.381252737   13.579055004
    1.054257095   10.313065380   12.395799683   13.595285489
    1.061435726   10.323329118   12.410486750   13.611672729
    1.068614357   10.333687189   12.425314956   13.628217874
    1.075792988   10.344140190   12.440285334   13.644922086
    1.082971619   10.354688725   12.455398930   13.661786548
    1.090150250   10.365333409   12.470656807   13.678812457
    1.097328881   10.376074861   12.486060041   13.696001029
    1.104507513   10.386913712   12.501609725   13.713353495
    1.111686144   10.397850598   12.517306967   13.730871107
    1.118864775   10.408886165   12.533152891   13.748555132
    1.126043406   10.420021067   12.549148637   13.766406856
    1.133222037   10.431255967   12.565295361   13.784427585
    1.140400668   10.442591538   12.581594236   13.802618643
    1.147579299   10.454028458   12.598046452   13.820981371
    1.154757930   10.465567418   12.614653216   13.839517133
    1.161936561   10.477209116   12.631415752   13.858227311
    1.169115192   10.488954260   12.648335303   13.877113307
    1.176293823   10.500803567   12.665413129   13.896176544
    1.183472454   10.512757764   12.682650507   13.915418465
    1.190651085   10.524817588   12.700048737   13.934840536
    1.197829716   10.536983784   12.717609133   13.954444241
    1.205008347   10.549257109   12.735333030   13.974231091
    1.212186978   10.561638326   12.753221783   13.994202612
    1.219365609   10.574128203   12.771276762   14.014360350
    1.226544240   10.586727497   12.789499344   14.034705857
    1.233722871   10.599436982   12.807890934   14.055240715
    1.240901503   10.612257547   12.826453011   14.075966610
    1.248080134   10.625190050   12.845187054   14.096885221
    1.255258765   10.638235286   12.864094524   14.117998190
    1.262437396   10.651394074   12.883176912   14.139307199
    1.269616027   10.664667262   12.902435737   14.160813964
    1.276794658   10.678055712   12.921872547   14.182520234
    1.283973289   10.691560300   12.941488911   14.204427782
    1.291151920   10.705181914   12.961286423   14.226538412
    1.298330551   10.718921454   12.981266701   14.248853950
    1.305509182   10.732779831   13.001431388   14.271376254
    1.312687813   10.746757966   13.021782146   14.294107205
    1.319866444   10.760856783   13.042320653   14.317048707
    1.327045075   10.775077206   13.063048591   14.340202674
    1.334223706   10.789420202   13.083967717   14.363571087
    1.341402337   10.803886821   13.105079888   14.387156018
    1.348580968   10.818478052   13.126386906   14.410959502
    1.355759599   10.833194869   13.147890561   14.434983577
    1.362938230   10.848038280   13.169592696   14.459230333
    1.370116861   10.863009313   13.191495191   14.483701898
    1.377295492   10.878109012   13.213599960   14.508400437
    1.384474124   10.893338438   13.235908944   14.533328148
    1.391652755   10.908698666   13.258424118   14.558487266
    1.398831386   10.924190786   13.281147488   14.583880058
    1.406010017   10.939815903   13.304081088   14.609508830
    1.413188648   10.955575138   13.327226987   14.635375923
    1.420367279   10.971469628   13.350587280   14.661483709
    1.427545910   10.987500525   13.374164096   14.687834600
    1.434724541   11.003668998   13.397959619   14.714431067
    1.441903172   11.019976234   13.421976068   14.741275620
    1.449081803   11.036423435   13.446215675   14.768370789
    1.456260434   11.053011822   13.470680711   14.795719147
    1.463439065   11.069742632   13.495373488   14.823323314
    1.470617696   11.086617121   13.520296359   14.851185952
    1.477796327   11.103636561   13.545451712   14.879309771
    1.484974958   11.120802245   13.570841976   14.907697522
    1.492153589   11.138115485   13.596469625   14.936352006
    1.499332220   11.155577614   13.622337169   14.965276071
    1.506510851   11.173189979   13.648447162   14.994472610
    1.513689482   11.190953950   13.674802199   15.023944564
    1.520868114   11.208870917   13.701404918   15.053694925
    1.528046745   11.226942292   13.728258006   15.083726739
    1.535225376   11.245169505   13.755364190   15.114043099
    1.542404007   11.263554009   13.782726249   15.144647155
    1.549582638   11.282097280   13.810347007   15.175542110
    1.556761269   11.300800815   13.838229335   15.206731222
    1.563939900   11.319666132   13.866376158   15.238217807
    1.571118531   11.338694775   13.894790447   15.270005238
    1.578297162   11.357888310   13.923475229   15.302096947
    1.585475793   11.377248327   13.952433581   15.334496428
    1.592654424   11.396776441   13.981668637   15.367207236
    1.599833055   11.416474289   14.011183583   15.400232988
    1.607011686   11.436343538   14.040981666   15.433577369
    1.614190317   11.456385876   14.071066187   15.467244128
    1.621368948   11.476603022   14.101440509   15.501237082
    1.628547579   11.496996717   14.132108055   15.535560118
    1.635726210   11.517568734   14.163072309   15.570217194
    1.642904841   11.538320870   14.194336820   15.605212339
    1.650083472   11.559254952   14.225905202   15.640549659
    1.657262104   11.580372837   14.257781135   15.676233335
    1.664440735   11.601676410   14.289968367   15.712267624
    1.671619366   11.623167587   14.322470717   15.748656866
    1.678797997   11.644848315   14.355292073   15.785405481
    1.685976628   11.666720571   14.388436399   15.822517974
    1.693155259   11.688786366   14.421907733   15.859998933
    1.700333890   11.711047743   14.455710190   15.897853037
    1.707512521   11.733506777   14.489847962   15.936085054
    1.714691152   11.756165580   14.524325324   15.974699844
    1.721869783   11.779026296   14.559146633   16.013702362
    1.729048414   11.802091105   14.594316329   16.053097657
    1.736227045   11.825362226   14.629838932   16.092890874
    1.743405676   11.848841912   14.665719041   16.133087246
    1.750584307   11.872532456   14.701961355   16.173692122
    1.757762938   11.896436187   14.738570733   16.214711022
    1.764941569   11.920555477   14.775552090   16.256149540
    1.772120200   11.944892736   14.812910398   16.298013338
    1.779298831   11.969450416   14.850650738   16.340308202
    1.786477462   11.994231011   14.888778288   16.383040031
    1.793656093   12.019237059   14.927298346   16.426214857
    1.800834725   12.044471142   14.966216388   16.469838910
    1.808013356   12.069935886   15.005537967   16.513918517
    1.815191987   12.095633964   15.045268707   16.558460083
    1.822370618   12.121568096   15.085414361   16.603470164
    1.829549249   12.147741051   15.125980812   16.648955467
    1.836727880   12.174155646   15.166974076   16.694922842
    1.843906511   12.200814749   15.208400294   16.741379292
    1.851085142   12.227721279   15.250265741   16.788331969
    1.858263773   12.254878202   15.292576831   16.835788182
    1.865442404   12.282288544   15.335340114   16.883755402
    1.872621035   12.309955402   15.378562289   16.932241266
    1.879799666   12.337881920   15.422250200   16.981253585
    1.886978297   12.366071290   15.466410845   17.030800339
    1.894156928   12.394526767   15.511051381   17.080889690
    1.901335559   12.423251667   15.556179125   17.131529988
    1.908514190   12.452249372   15.601801563   17.182729774
    1.915692821   12.481523328   15.647926351   17.234497787
    1.922871452   12.511077044   15.694561325   17.286842968
    1.930050083   12.540914101   15.741714503   17.339774472
    1.937228715   12.571038144   15.789394090   17.393301667
    1.944407346   12.601452894   15.837608488   17.447434144
    1.951585977   12.632162138   15.886366296   17.502181728
    1.958764608   12.663169739   15.935676324   17.557554478
    1.965943239   12.694479641   15.985547593   17.613562701
    1.973121870   12.726095876   16.035989348   17.670216956
    1.980300501   12.758022542   16.087011061   17.727528063
    1.987479132   12.790263823   16.138622435   17.785507115
    1.994657763   12.822823984   16.190833418   17.844165478
    2.001836394   12.855707375   16.243654201   17.903514802
    2.009015025   12.888918431   16.297095232   17.963567031
    2.016193656   12.922461706   16.351167254   18.024334448
    2.023372287   12.956341852   16.405881295   18.085829669
    2.030550918   12.990563572   16.461248608   18.148065580
    2.037729549   13.025131646   16.517280698   18.211055384
    2.044908180   13.060051026   16.573989468   18.274812694
    2.052086811   13.095326804   16.631387288   18.339351563
    2.059265442   13.130964091   16.689486727   18.404686320
    2.066444073   13.166968169   16.748300656   18.470831707
    2.073622705   13.203344485   16.807842305   18.537802950
    2.080801336   13.240098523   16.868125255   18.605615631
    2.087979967   13.277235858   16.929163490   18.674285735
    2.095158598   13.314762216   16.990971399   18.743829721
    2.102337229   13.352683468   17.053563780   18.814264537
    2.109515860   13.391005618   17.116955857   18.885607620
    2.116694491   13.429734814   17.181163313   18.957876927
    2.123873122   13.468877345   17.246202306   19.031090947
    2.131051753   13.508439644   17.312089448   19.105268714
    2.138230384   13.548428298   17.378841849   19.180429835
    2.145409015   13.588850048   17.446477142   19.256594515
    2.152587646   13.629711791   17.515013498   19.333783571
    2.159766277   13.671020594   17.584469637   19.412018452
    2.166944908   13.712783703   17.654864841   19.491321277
    2.174123539   13.755008536   17.726219039   19.571714902
    2.181302170   13.797702657   17.798552902   19.653222974
    2.188480801   13.840873866   17.871887697   19.735869867
    2.195659432   13.884530241   17.946245378   19.819680792
    2.202838063   13.928679974   18.021648588   19.904681714
    2.210016694   13.973331434   18.098120721   19.990899446
    2.217195326   14.018493208   18.175685979   20.078361741
    2.224373957   14.064174071   18.254369395   20.167097319
    2.231552588   14.110383035   18.334196873   20.257135899
    2.238731219   14.157129604   18.415195268   20.348508249
    2.245909850   14.204423496   18.497392383   20.441246230
    2.253088481   14.252274462   18.580816981   20.535382850
    2.260267112   14.300692549   18.665498878   20.630952319
    2.267445743   14.349688132   18.751468993   20.727990111
    2.274624374   14.399271889   18.838759395   20.826533013
    2.281803005   14.449454804   18.927403334   20.926619172
    2.288981636   14.500248176   19.017435298   21.028288125
    2.296160267   14.551663627   19.108891138   21.131580858
    2.303338898   14.603713125   19.201808206   21.236540188
    2.310517529   14.656409016   19.296225636   21.343211321
    2.317696160   14.709763990   19.392183843   21.451640686
    2.324874791   14.763791150   19.489724783   21.561876216
    2.332053422   14.818503990   19.588892224   21.673968015
    2.339232053   14.873916423   19.689731773   21.787968428
    2.346410684   14.930042778   19.792291019   21.903931978
    2.353589316   14.986897784   19.896619635   22.021915350
    2.360767947   15.044496641   20.002769492   22.141977764
    2.367946578   15.102855259   20.110794809   22.264182075
    2.375125209   15.161990140   20.220752288   22.388593740
    2.382303840   15.221918120   20.332701184   22.515280362
    2.389482471   15.282656515   20.446703388   22.644312733
    2.396661102   15.344223295   20.562823603   22.775765074
    2.403839733   15.406637240   20.681130424   22.909715814
    2.411018364   15.469917792   20.801696280   23.046247591
    2.418196995   15.534084947   20.924596164   23.185446347
    2.425375626   15.599159447   21.049908643   23.327402151
    2.432554257   15.665162866   21.177716203   23.472209519
    2.439732888   15.732117625   21.308105821   23.619968173
    2.446911519   15.800046921   21.441171087   23.770785289
    2.454090150   15.868974795   21.577010068   23.924773265
    2.461268781   15.938926177   21.715724823   24.082048784
    2.468447412   16.009926718   21.857423727   24.242735121
    2.475626043   16.082003687   22.002221941   24.406963711
    2.482804674   16.155186796   22.150242779   24.574874828
    2.489983306   16.229505910   22.301615256   24.746615351
    2.497161937   16.304991515   22.456475858   24.922341205
    2.504340568   16.381675757   22.614970422   25.102220361
    2.511519199   16.459592378   22.777254062   25.286430352
    2.518697830   16.538776538   22.943492581   25.475159451
    2.525876461   16.619265110   23.113863281   25.668609097
    2.533055092   16.701096647   23.288554497   25.866993507
    2.540233723   16.784311431   23.467767363   26.070541261
