# energy grid [eV]     epsr_x  epsr_y  epsr_z
#
    0.200000000   10.486003140    4.402575648    9.993921028
    0.207178631   10.487940174    4.403240912    9.996001289
    0.214357262   10.489946639    4.403930056    9.998156267
    0.221535893   10.492022656    4.404643124   10.000386108
    0.228714524   10.494168352    4.405380163   10.002690963
    0.235893155   10.496383855    4.406141223   10.005070988
    0.243071786   10.498669301    4.406926354   10.007526346
    0.250250417   10.501024829    4.407735607   10.010057204
    0.257429048   10.503450584    4.408569038   10.012663738
    0.264607679   10.505946715    4.409426701   10.015346128
    0.271786311   10.508513378    4.410308655   10.018104558
    0.278964942   10.511150732    4.411214960   10.020939221
    0.286143573   10.513858942    4.412145677   10.023850317
    0.293322204   10.516638178    4.413100871   10.026838048
    0.300500835   10.519488617    4.414080607   10.029902628
    0.307679466   10.522410440    4.415084954   10.033044274
    0.314858097   10.525403835    4.416113981   10.036263209
    0.322036728   10.528468994    4.417167762   10.039559666
    0.329215359   10.531606116    4.418246370   10.042933884
    0.336393990   10.534815407    4.419349883   10.046386106
    0.343572621   10.538097077    4.420478380   10.049916587
    0.350751252   10.541451345    4.421631943   10.053525586
    0.357929883   10.544878433    4.422810655   10.057213371
    0.365108514   10.548378574    4.424014605   10.060980218
    0.372287145   10.551952005    4.425243881   10.064826410
    0.379465776   10.555598970    4.426498575   10.068752239
    0.386644407   10.559319721    4.427778783   10.072758006
    0.393823038   10.563114518    4.429084601   10.076844018
    0.401001669   10.566983629    4.430416130   10.081010594
    0.408180301   10.570927327    4.431773475   10.085258060
    0.415358932   10.574945896    4.433156741   10.089586752
    0.422537563   10.579039628    4.434566039   10.093997017
    0.429716194   10.583208823    4.436001483   10.098489211
    0.436894825   10.587453791    4.437463188   10.103063698
    0.444073456   10.591774851    4.438951276   10.107720858
    0.451252087   10.596172331    4.440465870   10.112461076
    0.458430718   10.600646569    4.442007099   10.117284753
    0.465609349   10.605197916    4.443575094   10.122192301
    0.472787980   10.609826731    4.445169993   10.127184142
    0.479966611   10.614533386    4.446791934   10.132260713
    0.487145242   10.619318264    4.448441065   10.137422464
    0.494323873   10.624181761    4.450117534   10.142669859
    0.501502504   10.629124286    4.451821496   10.148003376
    0.508681135   10.634146262    4.453553112   10.153423508
    0.515859766   10.639248125    4.455312547   10.158930765
    0.523038397   10.644430327    4.457099974   10.164525673
    0.530217028   10.649693336    4.458915568   10.170208775
    0.537395659   10.655037635    4.460759514   10.175980632
    0.544574290   10.660463727    4.462632003   10.181841826
    0.551752922   10.665972132    4.464533233   10.187792958
    0.558931553   10.671563388    4.466463408   10.193834650
    0.566110184   10.677238058    4.468422742   10.199967547
    0.573288815   10.682996722    4.470411456   10.206192320
    0.580467446   10.688839986    4.472429780   10.212509661
    0.587646077   10.694768482    4.474477956   10.218920293
    0.594824708   10.700782865    4.476556233   10.225424966
    0.602003339   10.706883820    4.478664873   10.232024460
    0.609181970   10.713072064    4.480804147   10.238719587
    0.616360601   10.719348343    4.482974342   10.245511196
    0.623539232   10.725713440    4.485175756   10.252400171
    0.630717863   10.732168173    4.487408701   10.259387438
    0.637896494   10.738713404    4.489673505   10.266473963
    0.645075125   10.745350033    4.491970514   10.273660761
    0.652253756   10.752079011    4.494300091   10.280948896
    0.659432387   10.758901338    4.496662617   10.288339484
    0.666611018   10.765818069    4.499058496   10.295833702
    0.673789649   10.772830319    4.501488154   10.303432789
    0.680968280   10.779939267    4.503952043   10.311138052
    0.688146912   10.787146165    4.506450641   10.318950875
    0.695325543   10.794452340    4.508984456   10.326872723
    0.702504174   10.801859208    4.511554031   10.334905151
    0.709682805   10.809368276    4.514159942   10.343049812
    0.716861436   10.816981153    4.516802806   10.351308470
    0.724040067   10.824699567    4.519483284   10.359683007
    0.731218698   10.832525367    4.522202084   10.368175437
    0.738397329   10.840460545    4.524959971   10.376787922
    0.745575960   10.848507250    4.527757766   10.385522789
    0.752754591   10.856667803    4.530596360   10.394382545
    0.759933222   10.864944722    4.533476718   10.403369904
    0.767111853   10.873340744    4.536399888   10.412487806
    0.774290484   10.881858852    4.539367015   10.421739454
    0.781469115   10.890502311    4.542379349   10.431128339
    0.788647746   10.899274699    4.545438262   10.440658283
    0.795826377   10.908179960    4.548545266   10.450333487
    0.803005008   10.917222444    4.551702029   10.460158579
    0.810183639   10.926406979    4.554910402   10.470138681
    0.817362270   10.935738935    4.558172443   10.480279484
    0.824540902   10.945224313    4.561490453   10.490587334
    0.831719533   10.954869844    4.564867012   10.501069339
    0.838898164   10.964683116    4.568305029   10.511733498
    0.846076795   10.974672718    4.571807797   10.522588854
    0.853255426   10.984848424    4.575379063   10.533645682
    0.860434057   10.995221410    4.579023109   10.544915718
    0.867612688   11.005804527    4.582744863   10.556412441
    0.874791319   11.016612640    4.586550022   10.568151426
    0.881969950   11.027663045    4.590445216   10.580150780
    0.889148581   11.038976005    4.594438210   10.592431693
    0.896327212   11.050575421    4.598538166   10.605019146
    0.903505843   11.062489698    4.602755968   10.617942805
    0.910684474   11.074752868    4.607104661   10.631238190
    0.917863105   11.087406056    4.611600003   10.644948203
    0.925041736   11.100499421    4.616261216   10.659125147
    0.932220367   11.114094750    4.621111979   10.673833423
    0.939398998   11.128268979    4.626181774   10.689153198
    0.946577629   11.143119011    4.631507731   10.705185412
    0.953756260   11.158768394    4.637137195   10.722058734
    0.960934891   11.175376683    4.643131303   10.739939298
    0.968113523   11.193152640    4.649570050   10.759044446
    0.975292154   11.212372845    4.656559413   10.779662085
    0.982470785   11.233407440    4.664241222   10.802177483
    0.989649416   11.256753511    4.672805945   10.827108006
    0.996828047   11.283069496    4.682505876   10.855138919
    1.004006678   11.313174167    4.693654744   10.887122330
    1.011185309   11.347855597    4.706554512   10.923878396
    1.018363940   11.386866188    4.721110312   10.965149538
    1.025542571   11.424653742    4.735194727   11.005158145
    1.032721202   11.434981089    4.738754552   11.016601574
    1.039899833   11.345186374    4.703948190   10.923867109
    1.047078464   11.139353991    4.624677314   10.710392834
    1.054257095   11.011944506    4.575452713   10.578536716
    1.061435726   11.005593384    4.572610873   10.572665747
    1.068614357   11.040925960    4.585738069   10.610181746
    1.075792988   11.081455217    4.600853693   10.653115902
    1.082971619   11.118485836    4.614625983   10.692419762
    1.090150250   11.151052865    4.626685195   10.727089160
    1.097328881   11.179835831    4.637291692   10.757831182
    1.104507513   11.205679489    4.646769148   10.785524833
    1.111686144   11.229287675    4.655387237   10.810902454
    1.118864775   11.251196896    4.663351515   10.834522241
    1.126043406   11.271807348    4.670815307   10.856800512
    1.133222037   11.291417762    4.677893057   10.878047976
    1.140400668   11.310253208    4.684670981   10.898498654
    1.147579299   11.328485401    4.691214847   10.918331011
    1.154757930   11.346247141    4.697575508   10.937682976
    1.161936561   11.363642548    4.703792823   10.956662588
    1.169115192   11.380754351    4.709898449   10.975355576
    1.176293823   11.397649134    4.715917849   10.993830813
    1.183472454   11.414381157    4.721871759   11.012144282
    1.190651085   11.430995170    4.727777261   11.030342001
    1.197829716   11.447528514    4.733648590   11.048462197
    1.205008347   11.464012710    4.739497738   11.066536949
    1.212186978   11.480474674    4.745334924   11.084593443
    1.219365609   11.496937656    4.751168945   11.102654935
    1.226544240   11.513421979    4.757007463   11.120741500
    1.233722871   11.529945625    4.762857222   11.138870630
    1.240901503   11.546524705    4.768724232   11.157057701
    1.248080134   11.563173849    4.774613906   11.175316345
    1.255258765   11.579906521    4.780531187   11.193658762
    1.262437396   11.596735294    4.786480642   11.212095964
    1.269616027   11.613672087    4.792466551   11.230637985
    1.276794658   11.630728374    4.798492979   11.249294045
    1.283973289   11.647915377    4.804563844   11.268072703
    1.291151920   11.665244253    4.810682978   11.286981975
    1.298330551   11.682726274    4.816854189   11.306029445
    1.305509182   11.700373018    4.823081316   11.325222357
    1.312687813   11.718196565    4.829368295   11.344567705
    1.319866444   11.736209718    4.835719219   11.364072309
    1.327045075   11.754426260    4.842138415   11.383742897
    1.334223706   11.772861241    4.848630527   11.403586175
    1.341402337   11.791531338    4.855200614   11.423608909
    1.348580968   11.810455286    4.861854268   11.443818005
    1.355759599   11.829654417    4.868597766   11.464220605
    1.362938230   11.849153347    4.875438253   11.484824186
    1.370116861   11.868980856    4.882383986   11.505636687
    1.377295492   11.889171042    4.889444636   11.526666655
    1.384474124   11.909764845    4.896631710   11.547923434
    1.391652755   11.930812098    4.903959098   11.569417403
    1.398831386   11.952374315    4.911443821   11.591160280
    1.406010017   11.974528539    4.919107072   11.613165532
    1.413188648   11.997372697    4.926975652   11.635448925
    1.420367279   12.021033112    4.935083989   11.658029274
    1.427545910   12.045675007    4.943476969   11.680929480
    1.434724541   12.071516804    4.952213791   11.704177949
    1.441903172   12.098847963    4.961372820   11.727810510
    1.449081803   12.128044674    4.971056011   11.751872756
    1.456260434   12.159555629    4.981385832   11.776421959
    1.463439065   12.193742371    4.992465098   11.801524443
    1.470617696   12.230109805    5.004180605   11.827231059
    1.477796327   12.264166593    5.015398781   11.853464007
    1.484974958   12.277612107    5.021445612   11.879640532
    1.492153589   12.235725131    5.013382251   11.904394082
    1.499332220   12.169058737    4.998654748   11.927615902
    1.506510851   12.150876555    4.994762519   11.947786582
    1.513689482   12.157826389    4.994353893   11.959556969
    1.520868114   12.176654159    4.997073007   11.972790841
    1.528046745   12.212065629    5.006797206   11.996813904
    1.535225376   12.254776928    5.019619888   12.026378955
    1.542404007   12.299354267    5.032982561   12.057606623
    1.549582638   12.344570484    5.046255807   12.089441675
    1.556761269   12.388535130    5.059145135   12.121432460
    1.563939900   12.421389940    5.070365821   12.152004001
    1.571118531   12.411909996    5.075742920   12.176125883
    1.578297162   12.340108053    5.072616935   12.190635151
    1.585475793   12.291373262    5.072611084   12.209683704
    1.592654424   12.305175502    5.081113311   12.239924859
    1.599833055   12.344170811    5.093088476   12.275454436
    1.607011686   12.387695445    5.105760676   12.313143502
    1.614190317   12.430605489    5.118455593   12.352357590
    1.621368948   12.472006801    5.131064964   12.392668897
    1.628547579   12.510431308    5.143360230   12.431261032
    1.635726210   12.538870834    5.154211717   12.456204221
    1.642904841   12.541760517    5.161105327   12.441864952
    1.650083472   12.528697014    5.165609128   12.403308120
    1.657262104   12.538694129    5.174063466   12.403139097
    1.664440735   12.568154618    5.185906251   12.435332506
    1.671619366   12.602752764    5.198841372   12.476622830
    1.678797997   12.637432583    5.212081124   12.518737119
    1.685976628   12.671194945    5.225502595   12.559979346
    1.693155259   12.704067977    5.239158513   12.600339010
    1.700333890   12.736272370    5.253144574   12.640141944
    1.707512521   12.768027654    5.267571636   12.679737124
    1.714691152   12.799517825    5.282564867   12.719442319
    1.721869783   12.830893869    5.298269720   12.759549530
    1.729048414   12.862282634    5.314857361   12.800334402
    1.736227045   12.893793442    5.332516825   12.842029339
    1.743405676   12.925514605    5.351385444   12.884642103
    1.750584307   12.957474399    5.371230999   12.927176285
    1.757762938   12.989500609    5.390403189   12.965110511
    1.764941569   13.021157289    5.405348991   12.989195988
    1.772120200   13.052992184    5.419651484   13.006763745
    1.779298831   13.086475772    5.443537495   13.040555524
    1.786477462   13.121605478    5.476338596   13.087565231
    1.793656093   13.158067755    5.514536181   13.139695048
    1.800834725   13.195591171    5.552856991   13.193355301
    1.808013356   13.232768640    5.570719538   13.243226599
    1.815191987   13.264508563    5.507701946   13.273976277
    1.822370618   13.283152168    5.334416061   13.271880638
    1.829549249   13.284968707    5.209635768   13.256317248
    1.836727880   13.278284092    5.191412510   13.246310606
    1.843906511   13.293775503    5.219669218   13.270552495
    1.851085142   13.328781772    5.259016508   13.320520348
    1.858263773   13.369569333    5.297331753   13.377596558
    1.865442404   13.411099172    5.332282968   13.435308992
    1.872621035   13.452392217    5.364251475   13.492584711
    1.879799666   13.493533578    5.394116511   13.549746069
    1.886978297   13.534837943    5.422744118   13.607414163
    1.894156928   13.576659436    5.450920096   13.666260991
    1.901335559   13.619350831    5.479379696   13.726918298
    1.908514190   13.663201822    5.508821859   13.789688616
    1.915692821   13.708140129    5.539774317   13.853271803
    1.922871452   13.752602837    5.571889537   13.910176289
    1.930050083   13.791719297    5.601731181   13.939840448
    1.937228715   13.824228898    5.618658420   13.940087953
    1.944407346   13.858288871    5.597036431   13.958485464
    1.951585977   13.886369033    5.530052160   13.993917507
    1.958764608   13.887141716    5.476625312   14.017400158
    1.965943239   13.857680292    5.446174308   14.020266997
    1.973121870   13.858146121    5.447025124   14.050462033
    1.980300501   13.897103489    5.472203275   14.114374911
    1.987479132   13.948947633    5.503506288   14.190127565
    1.994657763   14.002733767    5.534048227   14.268837546
    2.001836394   14.056111956    5.562618600   14.349165428
    2.009015025   14.109081542    5.589456076   14.431839679
    2.016193656   14.162079364    5.615029313   14.517706446
    2.023372287   14.215232889    5.639704847   14.605722478
    2.030550918   14.267047768    5.663464182   14.686381857
    2.037729549   14.310860090    5.685211541   14.722964388
    2.044908180   14.336231871    5.703062469   14.658936117
    2.052086811   14.358971998    5.720291080   14.577100974
    2.059265442   14.401833796    5.741412846   14.599545106
    2.066444073   14.454266305    5.763830322   14.682692135
    2.073622705   14.498772791    5.782140961   14.776130300
    2.080801336   14.523909441    5.792125210   14.861703165
    2.087979967   14.552698973    5.803684854   14.949857042
    2.095158598   14.602503928    5.824133372   15.048822990
    2.102337229   14.660423695    5.847672777   15.143885913
    2.109515860   14.712402878    5.867491814   15.198570662
    2.116694491   14.750933837    5.880406188   15.171075779
    2.123873122   14.792099407    5.895683491   15.133957061
    2.131051753   14.847422520    5.918218974   15.179384369
    2.138230384   14.902760387    5.941442489   15.263556105
    2.145409015   14.934333081    5.956066744   15.322214709
    2.152587646   14.942336877    5.962064770   15.346262009
    2.159766277   14.973801425    5.976733386   15.402416047
    2.166944908   15.032590687    6.001480022   15.496588846
    2.174123539   15.099477306    6.029031780   15.602162877
    2.181302170   15.162966012    6.054343602   15.706129748
    2.188480801   15.215528674    6.073453434   15.802639081
    2.195659432   15.267240402    6.092021484   15.899332531
    2.202838063   15.331590502    6.117575051   16.006507538
    2.210016694   15.404024364    6.147515700   16.121809980
    2.217195326   15.479320166    6.179216327   16.241820645
    2.224373957   15.552699823    6.211641728   16.360780851
    2.231552588   15.613587791    6.243505162   16.462373769
    2.238731219   15.659584156    6.274537174   16.540341556
    2.245909850   15.717953114    6.307458584   16.624700617
    2.253088481   15.785695417    6.337726372   16.669635491
    2.260267112   15.829351911    6.353027543   16.584438692
    2.267445743   15.830390615    6.351547685   16.489098235
    2.274624374   15.811559709    6.350663259   16.515225216
    2.281803005   15.832754628    6.371832543   16.614375126
    2.288981636   15.900412144    6.401625326   16.746581064
    2.296160267   15.983250380    6.417794019   16.883778996
    2.303338898   16.067216629    6.424759970   17.016737770
    2.310517529   16.155308781    6.448518789   17.142103230
    2.317696160   16.246051263    6.492474607   17.240129131
    2.324874791   16.338803939    6.545171026   17.324228353
    2.332053422   16.438420322    6.600993403   17.442052295
    2.339232053   16.538084905    6.648385855   17.583348484
    2.346410684   16.617561302    6.654127600   17.723647441
    2.353589316   16.667597619    6.591685052   17.858847597
    2.360767947   16.739911380    6.548605392   18.008877681
    2.367946578   16.858295429    6.577771716   18.177170169
    2.375125209   16.998660754    6.637646395   18.355463466
    2.382303840   17.130897480    6.694804046   18.530747607
    2.389482471   17.192737383    6.723762944   18.665990918
    2.396661102   17.099130265    6.728877363   18.704751826
    2.403839733   16.888126566    6.741363463   18.678439823
    2.411018364   16.730193461    6.747411353   18.667677561
    2.418196995   16.661468241    6.721154250   18.679069639
    2.425375626   16.661743717    6.716117180   18.745790764
    2.432554257   16.754650848    6.761582767   18.902654906
    2.439732888   16.896395507    6.828355472   19.107394137
    2.446911519   17.046423068    6.900191983   19.324781399
    2.454090150   17.193219597    6.973379451   19.545025286
    2.461268781   17.335517152    7.046695847   19.766139548
    2.468447412   17.471652564    7.114378943   19.982174753
    2.475626043   17.592894602    7.157358521   20.172158956
    2.482804674   17.694507141    7.166894538   20.325771210
    2.489983306   17.800300273    7.198223462   20.501311493
    2.497161937   17.903148758    7.268907963   20.708271441
    2.504340568   17.986649091    7.351988764   20.918269793
    2.511519199   18.086382026    7.426257478   21.152465508
    2.518697830   18.183433768    7.439420613   21.397940050
    2.525876461   18.245130304    7.371439615   21.622563760
    2.533055092   18.327130740    7.343503746   21.850038299
    2.540233723   18.436188260    7.364438886   22.087452708
