# energy grid [eV]     ieps_x  ieps_y  ieps_z
#
    0.200000000    7.239205363    1.867572461    7.286174179
    0.207178631    7.237800250    1.867357702    7.284608997
    0.214357262    7.236346397    1.867135521    7.282989630
    0.221535893    7.234843887    1.866905933    7.281316181
    0.228714524    7.233292803    1.866668952    7.279588755
    0.235893155    7.231693233    1.866424596    7.277807462
    0.243071786    7.230045268    1.866172881    7.275972413
    0.250250417    7.228348999    1.865913823    7.274083725
    0.257429048    7.226604522    1.865647441    7.272141514
    0.264607679    7.224811933    1.865373753    7.270145904
    0.271786311    7.222971333    1.865092776    7.268097017
    0.278964942    7.221082823    1.864804529    7.265994983
    0.286143573    7.219146507    1.864509033    7.263839930
    0.293322204    7.217162494    1.864206305    7.261631993
    0.300500835    7.215130892    1.863896368    7.259371307
    0.307679466    7.213051812    1.863579239    7.257058013
    0.314858097    7.210925368    1.863254942    7.254692252
    0.322036728    7.208751677    1.862923496    7.252274168
    0.329215359    7.206530857    1.862584924    7.249803911
    0.336393990    7.204263028    1.862239248    7.247281629
    0.343572621    7.201948312    1.861886489    7.244707477
    0.350751252    7.199586836    1.861526671    7.242081609
    0.357929883    7.197178725    1.861159817    7.239404186
    0.365108514    7.194724109    1.860785949    7.236675367
    0.372287145    7.192223119    1.860405093    7.233895316
    0.379465776    7.189675888    1.860017272    7.231064200
    0.386644407    7.187082552    1.859622511    7.228182188
    0.393823038    7.184443248    1.859220834    7.225249451
    0.401001669    7.181758115    1.858812267    7.222266163
    0.408180301    7.179027295    1.858396835    7.219232499
    0.415358932    7.176250930    1.857974564    7.216148639
    0.422537563    7.173429165    1.857545480    7.213014764
    0.429716194    7.170562149    1.857109610    7.209831057
    0.436894825    7.167650028    1.856666980    7.206597704
    0.444073456    7.164692955    1.856217617    7.203314891
    0.451252087    7.161691082    1.855761548    7.199982811
    0.458430718    7.158644562    1.855298802    7.196601654
    0.465609349    7.155553552    1.854829406    7.193171616
    0.472787980    7.152418210    1.854353387    7.189692893
    0.479966611    7.149238695    1.853870776    7.186165684
    0.487145242    7.146015168    1.853381599    7.182590189
    0.494323873    7.142747792    1.852885887    7.178966612
    0.501502504    7.139436732    1.852383668    7.175295157
    0.508681135    7.136082153    1.851874971    7.171576030
    0.515859766    7.132684222    1.851359827    7.167809442
    0.523038397    7.129243111    1.850838265    7.163995602
    0.530217028    7.125758988    1.850310315    7.160134723
    0.537395659    7.122232027    1.849776008    7.156227019
    0.544574290    7.118662400    1.849235374    7.152272706
    0.551752922    7.115050284    1.848688444    7.148272003
    0.558931553    7.111395855    1.848135249    7.144225128
    0.566110184    7.107699290    1.847575820    7.140132304
    0.573288815    7.103960770    1.847010188    7.135993754
    0.580467446    7.100180476    1.846438386    7.131809701
    0.587646077    7.096358589    1.845860444    7.127580373
    0.594824708    7.092495293    1.845276395    7.123305997
    0.602003339    7.088590773    1.844686270    7.118986803
    0.609181970    7.084645216    1.844090103    7.114623022
    0.616360601    7.080658808    1.843487926    7.110214885
    0.623539232    7.076631738    1.842879770    7.105762628
    0.630717863    7.072564196    1.842265670    7.101266486
    0.637896494    7.068456374    1.841645657    7.096726695
    0.645075125    7.064308463    1.841019766    7.092143493
    0.652253756    7.060120657    1.840388029    7.087517120
    0.659432387    7.055893150    1.839750479    7.082847816
    0.666611018    7.051626139    1.839107151    7.078135824
    0.673789649    7.047319819    1.838458077    7.073381388
    0.680968280    7.042974390    1.837803292    7.068584751
    0.688146912    7.038590049    1.837142830    7.063746159
    0.695325543    7.034166996    1.836476724    7.058865859
    0.702504174    7.029705433    1.835805009    7.053944099
    0.709682805    7.025205562    1.835127719    7.048981129
    0.716861436    7.020667585    1.834444888    7.043977198
    0.724040067    7.016091707    1.833756552    7.038932557
    0.731218698    7.011478131    1.833062743    7.033847460
    0.738397329    7.006827064    1.832363498    7.028722158
    0.745575960    7.002138713    1.831658852    7.023556907
    0.752754591    6.997413284    1.830948838    7.018351961
    0.759933222    6.992650986    1.830233491    7.013107577
    0.767111853    6.987852029    1.829512848    7.007824011
    0.774290484    6.983016621    1.828786943    7.002501521
    0.781469115    6.978144975    1.828055811    6.997140366
    0.788647746    6.973237301    1.827319488    6.991740805
    0.795826377    6.968293811    1.826578009    6.986303098
    0.803005008    6.963314720    1.825831409    6.980827506
    0.810183639    6.958300239    1.825079724    6.975314290
    0.817362270    6.953250584    1.824322989    6.969763714
    0.824540902    6.948165971    1.823561241    6.964176039
    0.831719533    6.943046613    1.822794514    6.958551529
    0.838898164    6.937892729    1.822022845    6.952890449
    0.846076795    6.932704535    1.821246269    6.947193062
    0.853255426    6.927482248    1.820464823    6.941459636
    0.860434057    6.922226087    1.819678541    6.935690434
    0.867612688    6.916936270    1.818887460    6.929885724
    0.874791319    6.911613017    1.818091616    6.924045772
    0.881969950    6.906256548    1.817291045    6.918170845
    0.889148581    6.900867082    1.816485782    6.912261212
    0.896327212    6.895444841    1.815675864    6.906317140
    0.903505843    6.889990046    1.814861327    6.900338897
    0.910684474    6.884502919    1.814042207    6.894326753
    0.917863105    6.878983682    1.813218541    6.888280976
    0.925041736    6.873432557    1.812390363    6.882201836
    0.932220367    6.867849767    1.811557710    6.876089603
    0.939398998    6.862235537    1.810720620    6.869944546
    0.946577629    6.856590089    1.809879126    6.863766935
    0.953756260    6.850913647    1.809033267    6.857557041
    0.960934891    6.845206437    1.808183077    6.851315135
    0.968113523    6.839468683    1.807328593    6.845041486
    0.975292154    6.833700609    1.806469852    6.838736367
    0.982470785    6.827902442    1.805606889    6.832400047
    0.989649416    6.822074406    1.804739740    6.826032798
    0.996828047    6.816216729    1.803868442    6.819634891
    1.004006678    6.810329634    1.802993031    6.813206596
    1.011185309    6.804413350    1.802113543    6.806748186
    1.018363940    6.798468102    1.801230013    6.800259931
    1.025542571    6.792494117    1.800342479    6.793742102
    1.032721202    6.786491623    1.799450976    6.787194971
    1.039899833    6.780460844    1.798555539    6.780618807
    1.047078464    6.774402010    1.797656206    6.774013883
    1.054257095    6.768315347    1.796753012    6.767380469
    1.061435726    6.762201082    1.795845993    6.760718836
    1.068614357    6.756059443    1.794935185    6.754029253
    1.075792988    6.749890657    1.794020623    6.747311993
    1.082971619    6.743694951    1.793102344    6.740567323
    1.090150250    6.737472554    1.792180384    6.733795515
    1.097328881    6.731223693    1.791254778    6.726996838
    1.104507513    6.724948594    1.790325561    6.720171562
    1.111686144    6.718647487    1.789392770    6.713319955
    1.118864775    6.712320598    1.788456440    6.706442287
    1.126043406    6.705968154    1.787516606    6.699538826
    1.133222037    6.699590384    1.786573305    6.692609840
    1.140400668    6.693187514    1.785626572    6.685655597
    1.147579299    6.686759771    1.784676441    6.678676365
    1.154757930    6.680307384    1.783722949    6.671672410
    1.161936561    6.673830578    1.782766130    6.664644000
    1.169115192    6.667329581    1.781806020    6.657591401
    1.176293823    6.660804620    1.780842654    6.650514877
    1.183472454    6.654255920    1.779876067    6.643414696
    1.190651085    6.647683709    1.778906294    6.636291122
    1.197829716    6.641088213    1.777933370    6.629144418
    1.205008347    6.634469657    1.776957330    6.621974850
    1.212186978    6.627828268    1.775978208    6.614782680
    1.219365609    6.621164271    1.774996040    6.607568171
    1.226544240    6.614477891    1.774010860    6.600331585
    1.233722871    6.607769353    1.773022702    6.593073185
    1.240901503    6.601038883    1.772031602    6.585793230
    1.248080134    6.594286704    1.771037593    6.578491982
    1.255258765    6.587513041    1.770040709    6.571169701
    1.262437396    6.580718118    1.769040986    6.563826646
    1.269616027    6.573902158    1.768038457    6.556463074
    1.276794658    6.567065385    1.767033156    6.549079245
    1.283973289    6.560208021    1.766025117    6.541675415
    1.291151920    6.553330290    1.765014375    6.534251841
    1.298330551    6.546432412    1.764000962    6.526808779
    1.305509182    6.539514611    1.762984913    6.519346484
    1.312687813    6.532577106    1.761966261    6.511865209
    1.319866444    6.525620120    1.760945039    6.504365210
    1.327045075    6.518643873    1.759921281    6.496846737
    1.334223706    6.511648585    1.758895021    6.489310045
    1.341402337    6.504634475    1.757866292    6.481755383
    1.348580968    6.497601763    1.756835125    6.474183003
    1.355759599    6.490550668    1.755801556    6.466593153
    1.362938230    6.483481407    1.754765616    6.458986083
    1.370116861    6.476394199    1.753727338    6.451362041
    1.377295492    6.469289261    1.752686755    6.443721274
    1.384474124    6.462166809    1.751643899    6.436064027
    1.391652755    6.455027060    1.750598803    6.428390547
    1.398831386    6.447870229    1.749551500    6.420701079
    1.406010017    6.440696533    1.748502020    6.412995864
    1.413188648    6.433506184    1.747450398    6.405275147
    1.420367279    6.426299398    1.746396663    6.397539169
    1.427545910    6.419076388    1.745340850    6.389788171
    1.434724541    6.411837366    1.744282988    6.382022393
    1.441903172    6.404582546    1.743223110    6.374242074
    1.449081803    6.397312138    1.742161247    6.366447451
    1.456260434    6.390026353    1.741097431    6.358638762
    1.463439065    6.382725403    1.740031692    6.350816243
    1.470617696    6.375409498    1.738964063    6.342980130
    1.477796327    6.368078845    1.737894574    6.335130655
    1.484974958    6.360733654    1.736823255    6.327268053
    1.492153589    6.353374133    1.735750139    6.319392555
    1.499332220    6.346000489    1.734675254    6.311504392
    1.506510851    6.338612928    1.733598633    6.303603795
    1.513689482    6.331211657    1.732520305    6.295690992
    1.520868114    6.323796880    1.731440300    6.287766212
    1.528046745    6.316368802    1.730358648    6.279829681
    1.535225376    6.308927627    1.729275381    6.271881625
    1.542404007    6.301473557    1.728190526    6.263922270
    1.549582638    6.294006796    1.727104115    6.255951838
    1.556761269    6.286527545    1.726016177    6.247970552
    1.563939900    6.279036004    1.724926740    6.239978635
    1.571118531    6.271532375    1.723835835    6.231976307
    1.578297162    6.264016855    1.722743491    6.223963786
    1.585475793    6.256489644    1.721649736    6.215941291
    1.592654424    6.248950940    1.720554600    6.207909040
    1.599833055    6.241400940    1.719458112    6.199867249
    1.607011686    6.233839839    1.718360299    6.191816132
    1.614190317    6.226267835    1.717261191    6.183755903
    1.621368948    6.218685120    1.716160815    6.175686776
    1.628547579    6.211091890    1.715059201    6.167608961
    1.635726210    6.203488338    1.713956375    6.159522670
    1.642904841    6.195874655    1.712852367    6.151428111
    1.650083472    6.188251033    1.711747203    6.143325492
    1.657262104    6.180617664    1.710640911    6.135215022
    1.664440735    6.172974736    1.709533520    6.127096905
    1.671619366    6.165322440    1.708425055    6.118971346
    1.678797997    6.157660962    1.707315545    6.110838549
    1.685976628    6.149990491    1.706205016    6.102698716
    1.693155259    6.142311213    1.705093496    6.094552049
    1.700333890    6.134623313    1.703981011    6.086398747
    1.707512521    6.126926977    1.702867587    6.078239010
    1.714691152    6.119222389    1.701753252    6.070073035
    1.721869783    6.111509731    1.700638031    6.061901019
    1.729048414    6.103789186    1.699521951    6.053723157
    1.736227045    6.096060934    1.698405037    6.045539643
    1.743405676    6.088325158    1.697287316    6.037350671
    1.750584307    6.080582036    1.696168813    6.029156431
    1.757762938    6.072831746    1.695049554    6.020957115
    1.764941569    6.065074467    1.693929564    6.012752913
    1.772120200    6.057310376    1.692808869    6.004544011
    1.779298831    6.049539649    1.691687494    5.996330598
    1.786477462    6.041762460    1.690565463    5.988112860
    1.793656093    6.033978984    1.689442801    5.979890980
    1.800834725    6.026189395    1.688319534    5.971665143
    1.808013356    6.018393864    1.687195685    5.963435530
    1.815191987    6.010592564    1.686071280    5.955202324
    1.822370618    6.002785664    1.684946342    5.946965702
    1.829549249    5.994973335    1.683820895    5.938725845
    1.836727880    5.987155745    1.682694963    5.930482930
    1.843906511    5.979333062    1.681568570    5.922237133
    1.851085142    5.971505453    1.680441740    5.913988629
    1.858263773    5.963673084    1.679314496    5.905737592
    1.865442404    5.955836119    1.678186861    5.897484195
    1.872621035    5.947994724    1.677058859    5.889228609
    1.879799666    5.940149061    1.675930513    5.880971004
    1.886978297    5.932299292    1.674801845    5.872711550
    1.894156928    5.924445579    1.673672878    5.864450414
    1.901335559    5.916588082    1.672543635    5.856187763
    1.908514190    5.908726961    1.671414138    5.847923763
    1.915692821    5.900862373    1.670284409    5.839658577
    1.922871452    5.892994478    1.669154471    5.831392370
    1.930050083    5.885123430    1.668024345    5.823125302
    1.937228715    5.877249385    1.666894053    5.814857535
    1.944407346    5.869372500    1.665763618    5.806589228
    1.951585977    5.861492926    1.664633059    5.798320540
    1.958764608    5.853610817    1.663502400    5.790051627
    1.965943239    5.845726325    1.662371660    5.781782645
    1.973121870    5.837839601    1.661240861    5.773513750
    1.980300501    5.829950794    1.660110024    5.765245095
    1.987479132    5.822060053    1.658979169    5.756976832
    1.994657763    5.814167528    1.657848318    5.748709112
    2.001836394    5.806273364    1.656717490    5.740442086
    2.009015025    5.798377707    1.655586706    5.732175903
    2.016193656    5.790480704    1.654455986    5.723910709
    2.023372287    5.782582498    1.653325350    5.715646653
    2.030550918    5.774683232    1.652194817    5.707383878
    2.037729549    5.766783049    1.651064409    5.699122530
    2.044908180    5.758882091    1.649934143    5.690862751
    2.052086811    5.750980496    1.648804040    5.682604683
    2.059265442    5.743078406    1.647674118    5.674348467
    2.066444073    5.735175958    1.646544397    5.666094242
    2.073622705    5.727273290    1.645414896    5.657842148
    2.080801336    5.719370539    1.644285634    5.649592321
    2.087979967    5.711467839    1.643156628    5.641344897
    2.095158598    5.703565327    1.642027898    5.633100011
    2.102337229    5.695663135    1.640899463    5.624857797
    2.109515860    5.687761397    1.639771339    5.616618389
    2.116694491    5.679860244    1.638643546    5.608381916
    2.123873122    5.671959808    1.637516101    5.600148511
    2.131051753    5.664060217    1.636389022    5.591918301
    2.138230384    5.656161601    1.635262326    5.583691417
    2.145409015    5.648264089    1.634136032    5.575467983
    2.152587646    5.640367807    1.633010156    5.567248127
    2.159766277    5.632472881    1.631884716    5.559031973
    2.166944908    5.624579437    1.630759728    5.550819646
    2.174123539    5.616687599    1.629635210    5.542611267
    2.181302170    5.608797491    1.628511178    5.534406958
    2.188480801    5.600909234    1.627387649    5.526206840
    2.195659432    5.593022950    1.626264640    5.518011031
    2.202838063    5.585138761    1.625142166    5.509819652
    2.210016694    5.577256784    1.624020244    5.501632817
    2.217195326    5.569377140    1.622898890    5.493450644
    2.224373957    5.561499946    1.621778120    5.485273248
    2.231552588    5.553625318    1.620657950    5.477100742
    2.238731219    5.545753374    1.619538395    5.468933239
    2.245909850    5.537884227    1.618419471    5.460770852
    2.253088481    5.530017991    1.617301193    5.452613691
    2.260267112    5.522154781    1.616183576    5.444461865
    2.267445743    5.514294708    1.615066636    5.436315484
    2.274624374    5.506437883    1.613950387    5.428174654
    2.281803005    5.498584417    1.612834845    5.420039483
    2.288981636    5.490734420    1.611720023    5.411910076
    2.296160267    5.482888000    1.610605936    5.403786538
    2.303338898    5.475045264    1.609492600    5.395668971
    2.310517529    5.467206320    1.608380027    5.387557479
    2.317696160    5.459371274    1.607268233    5.379452162
    2.324874791    5.451540230    1.606157230    5.371353122
    2.332053422    5.443713293    1.605047034    5.363260458
    2.339232053    5.435890566    1.603937658    5.355174267
    2.346410684    5.428072151    1.602829114    5.347094648
    2.353589316    5.420258150    1.601721418    5.339021697
    2.360767947    5.412448663    1.600614582    5.330955509
    2.367946578    5.404643790    1.599508619    5.322896178
    2.375125209    5.396843630    1.598403543    5.314843799
    2.382303840    5.389048280    1.597299366    5.306798462
    2.389482471    5.381257839    1.596196101    5.298760261
    2.396661102    5.373472401    1.595093761    5.290729286
    2.403839733    5.365692063    1.593992358    5.282705625
    2.411018364    5.357916919    1.592891905    5.274689368
    2.418196995    5.350147062    1.591792415    5.266680603
    2.425375626    5.342382585    1.590693899    5.258679415
    2.432554257    5.334623581    1.589596369    5.250685891
    2.439732888    5.326870140    1.588499837    5.242700116
    2.446911519    5.319122352    1.587404316    5.234722173
    2.454090150    5.311380307    1.586309816    5.226752145
    2.461268781    5.303644094    1.585216350    5.218790115
    2.468447412    5.295913800    1.584123928    5.210836163
    2.475626043    5.288189511    1.583032563    5.202890370
    2.482804674    5.280471315    1.581942265    5.194952816
    2.489983306    5.272759295    1.580853046    5.187023577
    2.497161937    5.265053538    1.579764915    5.179102733
    2.504340568    5.257354125    1.578677885    5.171190359
    2.511519199    5.249661141    1.577591966    5.163286531
    2.518697830    5.241974666    1.576507168    5.155391324
    2.525876461    5.234294782    1.575423502    5.147504813
    2.533055092    5.226621570    1.574340978    5.139627070
    2.540233723    5.218955108    1.573259607    5.131758166
