# energy grid [eV]     ieps_x  ieps_y  ieps_z
#
    0.200000000    9.410761876   10.425970240    4.450599256
    0.207178631    9.408644749   10.423657341    4.449915431
    0.214357262    9.406454198   10.421264140    4.449207791
    0.221535893    9.404190349   10.418790765    4.448476365
    0.228714524    9.401853332   10.416237351    4.447721187
    0.235893155    9.399443281   10.413604034    4.446942288
    0.243071786    9.396960335   10.410890956    4.446139701
    0.250250417    9.394404637   10.408098263    4.445313463
    0.257429048    9.391776332   10.405226104    4.444463607
    0.264607679    9.389075572   10.402274633    4.443590172
    0.271786311    9.386302510   10.399244009    4.442693194
    0.278964942    9.383457306   10.396134393    4.441772711
    0.286143573    9.380540121   10.392945952    4.440828764
    0.293322204    9.377551122   10.389678856    4.439861393
    0.300500835    9.374490478   10.386333278    4.438870640
    0.307679466    9.371358364   10.382909397    4.437856546
    0.314858097    9.368154957   10.379407394    4.436819156
    0.322036728    9.364880438   10.375827457    4.435758513
    0.329215359    9.361534994   10.372169774    4.434674663
    0.336393990    9.358118812   10.368434540    4.433567652
    0.343572621    9.354632086   10.364621952    4.432437527
    0.350751252    9.351075011   10.360732210    4.431284337
    0.357929883    9.347447788   10.356765522    4.430108129
    0.365108514    9.343750621   10.352722095    4.428908956
    0.372287145    9.339983716   10.348602141    4.427686866
    0.379465776    9.336147284   10.344405879    4.426441913
    0.386644407    9.332241539   10.340133526    4.425174148
    0.393823038    9.328266699   10.335785308    4.423883625
    0.401001669    9.324222986   10.331361452    4.422570399
    0.408180301    9.320110623   10.326862187    4.421234525
    0.415358932    9.315929839   10.322287750    4.419876059
    0.422537563    9.311680866   10.317638377    4.418495059
    0.429716194    9.307363936   10.312914310    4.417091582
    0.436894825    9.302979290   10.308115795    4.415665687
    0.444073456    9.298527167   10.303243079    4.414217435
    0.451252087    9.294007813   10.298296414    4.412746885
    0.458430718    9.289421474   10.293276055    4.411254099
    0.465609349    9.284768402   10.288182262    4.409739139
    0.472787980    9.280048850   10.283015294    4.408202068
    0.479966611    9.275263075   10.277775419    4.406642950
    0.487145242    9.270411337   10.272462902    4.405061851
    0.494323873    9.265493900   10.267078017    4.403458835
    0.501502504    9.260511028   10.261621038    4.401833968
    0.508681135    9.255462992   10.256092242    4.400187319
    0.515859766    9.250350061   10.250491910    4.398518954
    0.523038397    9.245172513   10.244820326    4.396828943
    0.530217028    9.239930622   10.239077777    4.395117354
    0.537395659    9.234624670   10.233264553    4.393384260
    0.544574290    9.229254940   10.227380946    4.391629729
    0.551752922    9.223821717   10.221427252    4.389853834
    0.558931553    9.218325290   10.215403770    4.388056648
    0.566110184    9.212765948   10.209310801    4.386238244
    0.573288815    9.207143987   10.203148649    4.384398695
    0.580467446    9.201459701   10.196917621    4.382538078
    0.587646077    9.195713389   10.190618027    4.380656466
    0.594824708    9.189905353   10.184250179    4.378753936
    0.602003339    9.184035895   10.177814392    4.376830565
    0.609181970    9.178105321   10.171310983    4.374886430
    0.616360601    9.172113939   10.164740274    4.372921611
    0.623539232    9.166062060   10.158102585    4.370936184
    0.630717863    9.159949997   10.151398244    4.368930231
    0.637896494    9.153778063   10.144627576    4.366903832
    0.645075125    9.147546577   10.137790913    4.364857067
    0.652253756    9.141255857   10.130888586    4.362790017
    0.659432387    9.134906225   10.123920930    4.360702766
    0.666611018    9.128498004   10.116888283    4.358595395
    0.673789649    9.122031519   10.109790983    4.356467989
    0.680968280    9.115507097   10.102629372    4.354320631
    0.688146912    9.108925069   10.095403793    4.352153406
    0.695325543    9.102285764   10.088114593    4.349966399
    0.702504174    9.095589516   10.080762119    4.347759696
    0.709682805    9.088836659   10.073346721    4.345533384
    0.716861436    9.082027531   10.065868751    4.343287549
    0.724040067    9.075162469   10.058328563    4.341022279
    0.731218698    9.068241813   10.050726513    4.338737662
    0.738397329    9.061265905   10.043062958    4.336433787
    0.745575960    9.054235089   10.035338257    4.334110743
    0.752754591    9.047149708   10.027552773    4.331768620
    0.759933222    9.040010109   10.019706869    4.329407508
    0.767111853    9.032816640   10.011800908    4.327027498
    0.774290484    9.025569650   10.003835259    4.324628681
    0.781469115    9.018269489    9.995810288    4.322211149
    0.788647746    9.010916510    9.987726366    4.319774993
    0.795826377    9.003511066    9.979583865    4.317320308
    0.803005008    8.996053511    9.971383156    4.314847186
    0.810183639    8.988544201    9.963124615    4.312355721
    0.817362270    8.980983493    9.954808617    4.309846006
    0.824540902    8.973371746    9.946435540    4.307318138
    0.831719533    8.965709317    9.938005761    4.304772210
    0.838898164    8.957996568    9.929519662    4.302208318
    0.846076795    8.950233860    9.920977624    4.299626558
    0.853255426    8.942421555    9.912380027    4.297027026
    0.860434057    8.934560017    9.903727258    4.294409819
    0.867612688    8.926649609    9.895019700    4.291775034
    0.874791319    8.918690697    9.886257739    4.289122769
    0.881969950    8.910683647    9.877441762    4.286453121
    0.889148581    8.902628826    9.868572158    4.283766189
    0.896327212    8.894526600    9.859649316    4.281062071
    0.903505843    8.886377338    9.850673625    4.278340867
    0.910684474    8.878181410    9.841645477    4.275602675
    0.917863105    8.869939184    9.832565264    4.272847595
    0.925041736    8.861651030    9.823433379    4.270075727
    0.932220367    8.853317320    9.814250215    4.267287172
    0.939398998    8.844938425    9.805016166    4.264482030
    0.946577629    8.836514716    9.795731628    4.261660401
    0.953756260    8.828046566    9.786396997    4.258822388
    0.960934891    8.819534347    9.777012669    4.255968092
    0.968113523    8.810978432    9.767579041    4.253097614
    0.975292154    8.802379195    9.758096512    4.250211056
    0.982470785    8.793737010    9.748565478    4.247308521
    0.989649416    8.785052249    9.738986340    4.244390112
    0.996828047    8.776325289    9.729359496    4.241455930
    1.004006678    8.767556503    9.719685347    4.238506080
    1.011185309    8.758746265    9.709964292    4.235540664
    1.018363940    8.749894951    9.700196732    4.232559786
    1.025542571    8.741002935    9.690383068    4.229563549
    1.032721202    8.732070592    9.680523702    4.226552058
    1.039899833    8.723098298    9.670619033    4.223525417
    1.047078464    8.714086427    9.660669465    4.220483729
    1.054257095    8.705035355    9.650675399    4.217427100
    1.061435726    8.695945455    9.640637237    4.214355634
    1.068614357    8.686817104    9.630555382    4.211269435
    1.075792988    8.677650676    9.620430235    4.208168610
    1.082971619    8.668446545    9.610262200    4.205053262
    1.090150250    8.659205085    9.600051678    4.201923497
    1.097328881    8.649926672    9.589799071    4.198779420
    1.104507513    8.640611678    9.579504783    4.195621138
    1.111686144    8.631260478    9.569169215    4.192448755
    1.118864775    8.621873445    9.558792770    4.189262378
    1.126043406    8.612450952    9.548375849    4.186062111
    1.133222037    8.602993371    9.537918855    4.182848062
    1.140400668    8.593501075    9.527422189    4.179620336
    1.147579299    8.583974435    9.516886252    4.176379039
    1.154757930    8.574413823    9.506311446    4.173124278
    1.161936561    8.564819610    9.495698172    4.169856158
    1.169115192    8.555192166    9.485046830    4.166574786
    1.176293823    8.545531862    9.474357821    4.163280269
    1.183472454    8.535839065    9.463631543    4.159972712
    1.190651085    8.526114146    9.452868398    4.156652222
    1.197829716    8.516357472    9.442068783    4.153318906
    1.205008347    8.506569410    9.431233097    4.149972869
    1.212186978    8.496750328    9.420361739    4.146614220
    1.219365609    8.486900591    9.409455105    4.143243063
    1.226544240    8.477020565    9.398513593    4.139859505
    1.233722871    8.467110614    9.387537599    4.136463654
    1.240901503    8.457171102    9.376527518    4.133055614
    1.248080134    8.447202393    9.365483747    4.129635494
    1.255258765    8.437204848    9.354406679    4.126203399
    1.262437396    8.427178830    9.343296708    4.122759435
    1.269616027    8.417124697    9.332154227    4.119303710
    1.276794658    8.407042811    9.320979628    4.115836329
    1.283973289    8.396933530    9.309773304    4.112357398
    1.291151920    8.386797212    9.298535644    4.108867024
    1.298330551    8.376634214    9.287267039    4.105365313
    1.305509182    8.366444890    9.275967878    4.101852370
    1.312687813    8.356229598    9.264638549    4.098328302
    1.319866444    8.345988690    9.253279439    4.094793215
    1.327045075    8.335722519    9.241890935    4.091247215
    1.334223706    8.325431437    9.230473422    4.087690406
    1.341402337    8.315115795    9.219027285    4.084122895
    1.348580968    8.304775943    9.207552908    4.080544787
    1.355759599    8.294412228    9.196050672    4.076956188
    1.362938230    8.284024999    9.184520960    4.073357202
    1.370116861    8.273614602    9.172964152    4.069747935
    1.377295492    8.263181382    9.161380628    4.066128492
    1.384474124    8.252725682    9.149770765    4.062498977
    1.391652755    8.242247846    9.138134941    4.058859495
    1.398831386    8.231748215    9.126473532    4.055210151
    1.406010017    8.221227129    9.114786913    4.051551049
    1.413188648    8.210684927    9.103075458    4.047882293
    1.420367279    8.200121947    9.091339539    4.044203987
    1.427545910    8.189538526    9.079579528    4.040516236
    1.434724541    8.178934998    9.067795794    4.036819142
    1.441903172    8.168311698    9.055988708    4.033112809
    1.449081803    8.157668958    9.044158636    4.029397341
    1.456260434    8.147007109    9.032305945    4.025672840
    1.463439065    8.136326481    9.020430999    4.021939410
    1.470617696    8.125627402    9.008534163    4.018197153
    1.477796327    8.114910201    8.996615800    4.014446172
    1.484974958    8.104175201    8.984676269    4.010686568
    1.492153589    8.093422728    8.972715932    4.006918444
    1.499332220    8.082653105    8.960735145    4.003141902
    1.506510851    8.071866652    8.948734267    3.999357043
    1.513689482    8.061063690    8.936713652    3.995563969
    1.520868114    8.050244538    8.924673656    3.991762780
    1.528046745    8.039409512    8.912614629    3.987953578
    1.535225376    8.028558928    8.900536925    3.984136463
    1.542404007    8.017693100    8.888440892    3.980311536
    1.549582638    8.006812340    8.876326878    3.976478896
    1.556761269    7.995916961    8.864195231    3.972638644
    1.563939900    7.985007270    8.852046296    3.968790878
    1.571118531    7.974083578    8.839880417    3.964935699
    1.578297162    7.963146189    8.827697935    3.961073205
    1.585475793    7.952195408    8.815499192    3.957203495
    1.592654424    7.941231540    8.803284526    3.953326668
    1.599833055    7.930254886    8.791054276    3.949442821
    1.607011686    7.919265747    8.778808776    3.945552052
    1.614190317    7.908264420    8.766548362    3.941654460
    1.621368948    7.897251203    8.754273367    3.937750141
    1.628547579    7.886226392    8.741984121    3.933839193
    1.635726210    7.875190280    8.729680954    3.929921711
    1.642904841    7.864143160    8.717364193    3.925997793
    1.650083472    7.853085322    8.705034167    3.922067534
    1.657262104    7.842017056    8.692691198    3.918131031
    1.664440735    7.830938649    8.680335610    3.914188377
    1.671619366    7.819850386    8.667967724    3.910239670
    1.678797997    7.808752552    8.655587860    3.906285003
    1.685976628    7.797645429    8.643196335    3.902324471
    1.693155259    7.786529298    8.630793467    3.898358167
    1.700333890    7.775404439    8.618379570    3.894386186
    1.707512521    7.764271129    8.605954956    3.890408622
    1.714691152    7.753129643    8.593519936    3.886425566
    1.721869783    7.741980256    8.581074821    3.882437112
    1.729048414    7.730823241    8.568619918    3.878443353
    1.736227045    7.719658868    8.556155532    3.874444380
    1.743405676    7.708487407    8.543681969    3.870440284
    1.750584307    7.697309125    8.531199530    3.866431158
    1.757762938    7.686124288    8.518708516    3.862417092
    1.764941569    7.674933159    8.506209226    3.858398177
    1.772120200    7.663736003    8.493701958    3.854374503
    1.779298831    7.652533078    8.481187007    3.850346160
    1.786477462    7.641324645    8.468664666    3.846313237
    1.793656093    7.630110960    8.456135228    3.842275823
    1.800834725    7.618892280    8.443598983    3.838234008
    1.808013356    7.607668858    8.431056219    3.834187879
    1.815191987    7.596440947    8.418507222    3.830137525
    1.822370618    7.585208797    8.405952278    3.826083033
    1.829549249    7.573972657    8.393391669    3.822024490
    1.836727880    7.562732774    8.380825677    3.817961984
    1.843906511    7.551489394    8.368254581    3.813895600
    1.851085142    7.540242760    8.355678658    3.809825425
    1.858263773    7.528993115    8.343098185    3.805751544
    1.865442404    7.517740698    8.330513435    3.801674042
    1.872621035    7.506485750    8.317924681    3.797593005
    1.879799666    7.495228505    8.305332193    3.793508517
    1.886978297    7.483969200    8.292736239    3.789420662
    1.894156928    7.472708069    8.280137086    3.785329524
    1.901335559    7.461445343    8.267535000    3.781235186
    1.908514190    7.450181251    8.254930243    3.777137730
    1.915692821    7.438916024    8.242323077    3.773037240
    1.922871452    7.427649887    8.229713761    3.768933797
    1.930050083    7.416383066    8.217102552    3.764827483
    1.937228715    7.405115783    8.204489708    3.760718379
    1.944407346    7.393848261    8.191875481    3.756606566
    1.951585977    7.382580719    8.179260124    3.752492124
    1.958764608    7.371313376    8.166643888    3.748375134
    1.965943239    7.360046449    8.154027020    3.744255675
    1.973121870    7.348780152    8.141409769    3.740133826
    1.980300501    7.337514698    8.128792378    3.736009666
    1.987479132    7.326250299    8.116175091    3.731883274
    1.994657763    7.314987166    8.103558150    3.727754726
    2.001836394    7.303725506    8.090941793    3.723624101
    2.009015025    7.292465525    8.078326259    3.719491476
    2.016193656    7.281207429    8.065711784    3.715356927
    2.023372287    7.269951421    8.053098602    3.711220531
    2.030550918    7.258697702    8.040486944    3.707082363
    2.037729549    7.247446473    8.027877042    3.702942499
    2.044908180    7.236197931    8.015269125    3.698801014
    2.052086811    7.224952274    8.002663419    3.694657982
    2.059265442    7.213709695    7.990060149    3.690513477
    2.066444073    7.202470389    7.977459539    3.686367573
    2.073622705    7.191234547    7.964861811    3.682220344
    2.080801336    7.180002359    7.952267184    3.678071861
    2.087979967    7.168774014    7.939675876    3.673922198
    2.095158598    7.157549698    7.927088103    3.669771427
    2.102337229    7.146329596    7.914504081    3.665619618
    2.109515860    7.135113893    7.901924021    3.661466844
    2.116694491    7.123902770    7.889348134    3.657313174
    2.123873122    7.112696407    7.876776630    3.653158680
    2.131051753    7.101494983    7.864209717    3.649003430
    2.138230384    7.090298676    7.851647599    3.644847494
    2.145409015    7.079107660    7.839090481    3.640690942
    2.152587646    7.067922111    7.826538565    3.636533841
    2.159766277    7.056742200    7.813992051    3.632376260
    2.166944908    7.045568097    7.801451138    3.628218266
    2.174123539    7.034399974    7.788916023    3.624059927
    2.181302170    7.023237996    7.776386901    3.619901309
    2.188480801    7.012082330    7.763863965    3.615742479
    2.195659432    7.000933141    7.751347409    3.611583503
    2.202838063    6.989790593    7.738837420    3.607424447
    2.210016694    6.978654845    7.726334189    3.603265374
    2.217195326    6.967526059    7.713837901    3.599106351
    2.224373957    6.956404392    7.701348742    3.594947441
    2.231552588    6.945290003    7.688866894    3.590788707
    2.238731219    6.934183045    7.676392540    3.586630214
    2.245909850    6.923083674    7.663925859    3.582472025
    2.253088481    6.911992041    7.651467029    3.578314201
    2.260267112    6.900908297    7.639016228    3.574156805
    2.267445743    6.889832592    7.626573630    3.569999898
    2.274624374    6.878765073    7.614139408    3.565843543
    2.281803005    6.867705888    7.601713733    3.561687798
    2.288981636    6.856655181    7.589296777    3.557532726
    2.296160267    6.845613095    7.576888707    3.553378385
    2.303338898    6.834579773    7.564489689    3.549224836
    2.310517529    6.823555355    7.552099889    3.545072137
    2.317696160    6.812539980    7.539719471    3.540920347
    2.324874791    6.801533787    7.527348595    3.536769524
    2.332053422    6.790536911    7.514987423    3.532619727
    2.339232053    6.779549487    7.502636113    3.528471012
    2.346410684    6.768571649    7.490294822    3.524323437
    2.353589316    6.757603529    7.477963705    3.520177057
    2.360767947    6.746645257    7.465642917    3.516031930
    2.367946578    6.735696963    7.453332609    3.511888111
    2.375125209    6.724758774    7.441032932    3.507745655
    2.382303840    6.713830817    7.428744035    3.503604617
    2.389482471    6.702913216    7.416466067    3.499465051
    2.396661102    6.692006097    7.404199173    3.495327012
    2.403839733    6.681109581    7.391943497    3.491190553
    2.411018364    6.670223788    7.379699183    3.487055728
    2.418196995    6.659348839    7.367466371    3.482922589
    2.425375626    6.648484852    7.355245203    3.478791188
    2.432554257    6.637631945    7.343035816    3.474661578
    2.439732888    6.626790231    7.330838348    3.470533810
    2.446911519    6.615959827    7.318652933    3.466407935
    2.454090150    6.605140844    7.306479706    3.462284005
    2.461268781    6.594333395    7.294318800    3.458162069
    2.468447412    6.583537591    7.282170344    3.454042177
    2.475626043    6.572753539    7.270034470    3.449924379
    2.482804674    6.561981348    7.257911304    3.445808724
    2.489983306    6.551221126    7.245800973    3.441695261
    2.497161937    6.540472975    7.233703604    3.437584038
    2.504340568    6.529737002    7.221619318    3.433475103
    2.511519199    6.519013309    7.209548240    3.429368503
    2.518697830    6.508301997    7.197490489    3.425264286
    2.525876461    6.497603166    7.185446185    3.421162498
    2.533055092    6.486916916    7.173415446    3.417063186
    2.540233723    6.476243345    7.161398389    3.412966396
