# energy grid [eV]     ieps_x  ieps_y  ieps_z
#
    0.200000000    3.904835384    5.440239763    3.690059372
    0.207178631    3.904100953    5.439360075    3.689402727
    0.214357262    3.903341092    5.438449797    3.688723329
    0.221535893    3.902555849    5.437508974    3.688021220
    0.228714524    3.901745273    5.436537651    3.687296441
    0.235893155    3.900909415    5.435535875    3.686549036
    0.243071786    3.900048328    5.434503694    3.685779050
    0.250250417    3.899162064    5.433441158    3.684986530
    0.257429048    3.898250681    5.432348318    3.684171523
    0.264607679    3.897314234    5.431225226    3.683334078
    0.271786311    3.896352782    5.430071935    3.682474245
    0.278964942    3.895366385    5.428888502    3.681592075
    0.286143573    3.894355103    5.427674982    3.680687621
    0.293322204    3.893318999    5.426431433    3.679760936
    0.300500835    3.892258138    5.425157914    3.678812076
    0.307679466    3.891172585    5.423854485    3.677841096
    0.314858097    3.890062406    5.422521209    3.676848055
    0.322036728    3.888927671    5.421158147    3.675833010
    0.329215359    3.887768447    5.419765365    3.674796021
    0.336393990    3.886584807    5.418342927    3.673737149
    0.343572621    3.885376821    5.416890901    3.672656457
    0.350751252    3.884144565    5.415409355    3.671554006
    0.357929883    3.882888113    5.413898356    3.670429863
    0.365108514    3.881607541    5.412357977    3.669284091
    0.372287145    3.880302926    5.410788289    3.668116757
    0.379465776    3.878974347    5.409189364    3.666927929
    0.386644407    3.877621884    5.407561276    3.665717676
    0.393823038    3.876245618    5.405904101    3.664486067
    0.401001669    3.874845631    5.404217914    3.663233173
    0.408180301    3.873422008    5.402502794    3.661959065
    0.415358932    3.871974832    5.400758819    3.660663817
    0.422537563    3.870504191    5.398986069    3.659347502
    0.429716194    3.869010170    5.397184625    3.658010195
    0.436894825    3.867492859    5.395354568    3.656651972
    0.444073456    3.865952346    5.393495981    3.655272909
    0.451252087    3.864388722    5.391608949    3.653873084
    0.458430718    3.862802079    5.389693557    3.652452577
    0.465609349    3.861192510    5.387749891    3.651011466
    0.472787980    3.859560108    5.385778039    3.649549831
    0.479966611    3.857904968    5.383778088    3.648067756
    0.487145242    3.856227186    5.381750128    3.646565320
    0.494323873    3.854526858    5.379694249    3.645042609
    0.501502504    3.852804083    5.377610542    3.643499705
    0.508681135    3.851058960    5.375499101    3.641936694
    0.515859766    3.849291588    5.373360017    3.640353662
    0.523038397    3.847502069    5.371193386    3.638750695
    0.530217028    3.845690503    5.368999302    3.637127880
    0.537395659    3.843856993    5.366777861    3.635485305
    0.544574290    3.842001644    5.364529161    3.633823060
    0.551752922    3.840124560    5.362253298    3.632141234
    0.558931553    3.838225845    5.359950373    3.630439918
    0.566110184    3.836305607    5.357620484    3.628719203
    0.573288815    3.834363952    5.355263732    3.626979181
    0.580467446    3.832400988    5.352880219    3.625219944
    0.587646077    3.830416824    5.350470046    3.623441587
    0.594824708    3.828411569    5.348033316    3.621644202
    0.602003339    3.826385333    5.345570134    3.619827885
    0.609181970    3.824338228    5.343080604    3.617992731
    0.616360601    3.822270366    5.340564831    3.616138837
    0.623539232    3.820181858    5.338022922    3.614266298
    0.630717863    3.818072819    5.335454983    3.612375213
    0.637896494    3.815943361    5.332861123    3.610465679
    0.645075125    3.813793601    5.330241449    3.608537795
    0.652253756    3.811623652    5.327596071    3.606591659
    0.659432387    3.809433631    5.324925099    3.604627373
    0.666611018    3.807223654    5.322228643    3.602645035
    0.673789649    3.804993839    5.319506814    3.600644747
    0.680968280    3.802744304    5.316759725    3.598626610
    0.688146912    3.800475166    5.313987489    3.596590725
    0.695325543    3.798186545    5.311190217    3.594537196
    0.702504174    3.795878561    5.308368026    3.592466126
    0.709682805    3.793551333    5.305521028    3.590377616
    0.716861436    3.791204982    5.302649339    3.588271773
    0.724040067    3.788839629    5.299753076    3.586148698
    0.731218698    3.786455395    5.296832353    3.584008498
    0.738397329    3.784052404    5.293887289    3.581851278
    0.745575960    3.781630777    5.290918001    3.579677142
    0.752754591    3.779190637    5.287924608    3.577486198
    0.759933222    3.776732108    5.284907226    3.575278551
    0.767111853    3.774255314    5.281865977    3.573054309
    0.774290484    3.771760378    5.278800980    3.570813577
    0.781469115    3.769247427    5.275712355    3.568556465
    0.788647746    3.766716584    5.272600222    3.566283079
    0.795826377    3.764167975    5.269464703    3.563993529
    0.803005008    3.761601725    5.266305921    3.561687921
    0.810183639    3.759017962    5.263123996    3.559366366
    0.817362270    3.756416811    5.259919052    3.557028973
    0.824540902    3.753798400    5.256691212    3.554675850
    0.831719533    3.751162854    5.253440600    3.552307107
    0.838898164    3.748510302    5.250167339    3.549922855
    0.846076795    3.745840870    5.246871555    3.547523204
    0.853255426    3.743154688    5.243553371    3.545108264
    0.860434057    3.740451882    5.240212913    3.542678145
    0.867612688    3.737732581    5.236850308    3.540232959
    0.874791319    3.734996914    5.233465680    3.537772817
    0.881969950    3.732245009    5.230059156    3.535297830
    0.889148581    3.729476996    5.226630864    3.532808110
    0.896327212    3.726693002    5.223180930    3.530303768
    0.903505843    3.723893158    5.219709481    3.527784916
    0.910684474    3.721077592    5.216216646    3.525251667
    0.917863105    3.718246434    5.212702552    3.522704131
    0.925041736    3.715399815    5.209167328    3.520142422
    0.932220367    3.712537862    5.205611103    3.517566652
    0.939398998    3.709660707    5.202034006    3.514976934
    0.946577629    3.706768479    5.198436165    3.512373380
    0.953756260    3.703861308    5.194817711    3.509756103
    0.960934891    3.700939324    5.191178773    3.507125215
    0.968113523    3.698002657    5.187519482    3.504480830
    0.975292154    3.695051437    5.183839967    3.501823060
    0.982470785    3.692085794    5.180140359    3.499152019
    0.989649416    3.689105859    5.176420790    3.496467819
    0.996828047    3.686111761    5.172681389    3.493770574
    1.004006678    3.683103630    5.168922288    3.491060397
    1.011185309    3.680081597    5.165143619    3.488337400
    1.018363940    3.677045792    5.161345513    3.485601698
    1.025542571    3.673996345    5.157528101    3.482853402
    1.032721202    3.670933384    5.153691516    3.480092627
    1.039899833    3.667857042    5.149835889    3.477319485
    1.047078464    3.664767446    5.145961354    3.474534089
    1.054257095    3.661664727    5.142068041    3.471736553
    1.061435726    3.658549015    5.138156084    3.468926989
    1.068614357    3.655420439    5.134225615    3.466105510
    1.075792988    3.652279127    5.130276768    3.463272229
    1.082971619    3.649125211    5.126309673    3.460427259
    1.090150250    3.645958818    5.122324466    3.457570713
    1.097328881    3.642780077    5.118321278    3.454702703
    1.104507513    3.639589118    5.114300242    3.451823342
    1.111686144    3.636386068    5.110261493    3.448932742
    1.118864775    3.633171057    5.106205162    3.446031015
    1.126043406    3.629944213    5.102131383    3.443118274
    1.133222037    3.626705663    5.098040290    3.440194630
    1.140400668    3.623455535    5.093932016    3.437260196
    1.147579299    3.620193958    5.089806694    3.434315083
    1.154757930    3.616921058    5.085664458    3.431359403
    1.161936561    3.613636962    5.081505440    3.428393267
    1.169115192    3.610341798    5.077329775    3.425416787
    1.176293823    3.607035692    5.073137596    3.422430074
    1.183472454    3.603718770    5.068929036    3.419433238
    1.190651085    3.600391159    5.064704228    3.416426390
    1.197829716    3.597052985    5.060463306    3.413409642
    1.205008347    3.593704372    5.056206403    3.410383102
    1.212186978    3.590345447    5.051933653    3.407346882
    1.219365609    3.586976334    5.047645188    3.404301091
    1.226544240    3.583597158    5.043341142    3.401245839
    1.233722871    3.580208044    5.039021648    3.398181235
    1.240901503    3.576809114    5.034686839    3.395107388
    1.248080134    3.573400494    5.030336848    3.392024409
    1.255258765    3.569982306    5.025971807    3.388932404
    1.262437396    3.566554674    5.021591850    3.385831483
    1.269616027    3.563117719    5.017197109    3.382721753
    1.276794658    3.559671565    5.012787717    3.379603324
    1.283973289    3.556216333    5.008363806    3.376476302
    1.291151920    3.552752145    5.003925509    3.373340794
    1.298330551    3.549279123    4.999472957    3.370196909
    1.305509182    3.545797385    4.995006282    3.367044752
    1.312687813    3.542307055    4.990525618    3.363884430
    1.319866444    3.538808250    4.986031094    3.360716050
    1.327045075    3.535301091    4.981522844    3.357539717
    1.334223706    3.531785698    4.977000999    3.354355536
    1.341402337    3.528262188    4.972465689    3.351163614
    1.348580968    3.524730680    4.967917045    3.347964055
    1.355759599    3.521191293    4.963355200    3.344756963
    1.362938230    3.517644143    4.958780283    3.341542443
    1.370116861    3.514089348    4.954192426    3.338320598
    1.377295492    3.510527025    4.949591757    3.335091533
    1.384474124    3.506957289    4.944978409    3.331855351
    1.391652755    3.503380256    4.940352510    3.328612154
    1.398831386    3.499796042    4.935714190    3.325362045
    1.406010017    3.496204761    4.931063579    3.322105126
    1.413188648    3.492606528    4.926400805    3.318841499
    1.420367279    3.489001457    4.921725999    3.315571265
    1.427545910    3.485389660    4.917039289    3.312294526
    1.434724541    3.481771251    4.912340802    3.309011381
    1.441903172    3.478146343    4.907630669    3.305721932
    1.449081803    3.474515046    4.902909016    3.302426279
    1.456260434    3.470877474    4.898175972    3.299124520
    1.463439065    3.467233736    4.893431663    3.295816754
    1.470617696    3.463583943    4.888676217    3.292503082
    1.477796327    3.459928205    4.883909762    3.289183600
    1.484974958    3.456266632    4.879132423    3.285858407
    1.492153589    3.452599332    4.874344328    3.282527600
    1.499332220    3.448926413    4.869545601    3.279191277
    1.506510851    3.445247985    4.864736369    3.275849533
    1.513689482    3.441564153    4.859916758    3.272502466
    1.520868114    3.437875025    4.855086892    3.269150171
    1.528046745    3.434180707    4.850246897    3.265792743
    1.535225376    3.430481306    4.845396896    3.262430278
    1.542404007    3.426776925    4.840537015    3.259062870
    1.549582638    3.423067670    4.835667376    3.255690613
    1.556761269    3.419353646    4.830788104    3.252313600
    1.563939900    3.415634955    4.825899321    3.248931926
    1.571118531    3.411911701    4.821001151    3.245545682
    1.578297162    3.408183986    4.816093716    3.242154961
    1.585475793    3.404451912    4.811177138    3.238759856
    1.592654424    3.400715581    4.806251539    3.235360456
    1.599833055    3.396975093    4.801317040    3.231956855
    1.607011686    3.393230550    4.796373763    3.228549141
    1.614190317    3.389482050    4.791421828    3.225137405
    1.621368948    3.385729692    4.786461355    3.221721737
    1.628547579    3.381973577    4.781492464    3.218302225
    1.635726210    3.378213801    4.776515276    3.214878959
    1.642904841    3.374450461    4.771529908    3.211452027
    1.650083472    3.370683656    4.766536481    3.208021517
    1.657262104    3.366913482    4.761535112    3.204587515
    1.664440735    3.363140033    4.756525919    3.201150108
    1.671619366    3.359363406    4.751509020    3.197709384
    1.678797997    3.355583694    4.746484532    3.194265427
    1.685976628    3.351800993    4.741452572    3.190818324
    1.693155259    3.348015396    4.736413256    3.187368159
    1.700333890    3.344226995    4.731366700    3.183915016
    1.707512521    3.340435883    4.726313021    3.180458980
    1.714691152    3.336642151    4.721252332    3.177000134
    1.721869783    3.332845892    4.716184749    3.173538562
    1.729048414    3.329047195    4.711110385    3.170074344
    1.736227045    3.325246150    4.706029356    3.166607565
    1.743405676    3.321442848    4.700941773    3.163138304
    1.750584307    3.317637376    4.695847751    3.159666644
    1.757762938    3.313829823    4.690747401    3.156192665
    1.764941569    3.310020278    4.685640837    3.152716446
    1.772120200    3.306208826    4.680528168    3.149238069
    1.779298831    3.302395555    4.675409508    3.145757610
    1.786477462    3.298580550    4.670284965    3.142275150
    1.793656093    3.294763897    4.665154652    3.138790767
    1.800834725    3.290945681    4.660018677    3.135304538
    1.808013356    3.287125986    4.654877150    3.131816540
    1.815191987    3.283304895    4.649730180    3.128326849
    1.822370618    3.279482491    4.644577875    3.124835543
    1.829549249    3.275658858    4.639420343    3.121342697
    1.836727880    3.271834076    4.634257693    3.117848385
    1.843906511    3.268008228    4.629090030    3.114352683
    1.851085142    3.264181393    4.623917462    3.110855665
    1.858263773    3.260353652    4.618740095    3.107357405
    1.865442404    3.256525085    4.613558034    3.103857975
    1.872621035    3.252695771    4.608371385    3.100357449
    1.879799666    3.248865787    4.603180251    3.096855898
    1.886978297    3.245035212    4.597984739    3.093353395
    1.894156928    3.241204123    4.592784950    3.089850010
    1.901335559    3.237372596    4.587580989    3.086345815
    1.908514190    3.233540708    4.582372958    3.082840879
    1.915692821    3.229708534    4.577160959    3.079335273
    1.922871452    3.225876149    4.571945094    3.075829066
    1.930050083    3.222043628    4.566725465    3.072322326
    1.937228715    3.218211043    4.561502172    3.068815121
    1.944407346    3.214378469    4.556275316    3.065307520
    1.951585977    3.210545978    4.551044996    3.061799590
    1.958764608    3.206713642    4.545811311    3.058291398
    1.965943239    3.202881532    4.540574361    3.054783009
    1.973121870    3.199049720    4.535334244    3.051274490
    1.980300501    3.195218275    4.530091057    3.047765906
    1.987479132    3.191387268    4.524844898    3.044257323
    1.994657763    3.187556767    4.519595864    3.040748803
    2.001836394    3.183726842    4.514344050    3.037240412
    2.009015025    3.179897560    4.509089554    3.033732212
    2.016193656    3.176068989    4.503832469    3.030224266
    2.023372287    3.172241196    4.498572891    3.026716638
    2.030550918    3.168414247    4.493310913    3.023209388
    2.037729549    3.164588209    4.488046631    3.019702579
    2.044908180    3.160763145    4.482780136    3.016196270
    2.052086811    3.156939122    4.477511522    3.012690524
    2.059265442    3.153116203    4.472240881    3.009185399
    2.066444073    3.149294452    4.466968305    3.005680955
    2.073622705    3.145473932    4.461693884    3.002177252
    2.080801336    3.141654706    4.456417709    2.998674348
    2.087979967    3.137836835    4.451139871    2.995172300
    2.095158598    3.134020381    4.445860460    2.991671167
    2.102337229    3.130205405    4.440579563    2.988171006
    2.109515860    3.126391967    4.435297271    2.984671874
    2.116694491    3.122580127    4.430013670    2.981173826
    2.123873122    3.118769944    4.424728849    2.977676918
    2.131051753    3.114961478    4.419442895    2.974181206
    2.138230384    3.111154786    4.414155894    2.970686744
    2.145409015    3.107349926    4.408867932    2.967193588
    2.152587646    3.103546955    4.403579095    2.963701790
    2.159766277    3.099745929    4.398289467    2.960211404
    2.166944908    3.095946906    4.392999134    2.956722483
    2.174123539    3.092149940    4.387708179    2.953235079
    2.181302170    3.088355087    4.382416685    2.949749245
    2.188480801    3.084562401    4.377124735    2.946265032
    2.195659432    3.080771935    4.371832413    2.942782491
    2.202838063    3.076983745    4.366539799    2.939301674
    2.210016694    3.073197882    4.361246975    2.935822629
    2.217195326    3.069414399    4.355954022    2.932345407
    2.224373957    3.065633348    4.350661021    2.928870057
    2.231552588    3.061854780    4.345368050    2.925396629
    2.238731219    3.058078747    4.340075189    2.921925170
    2.245909850    3.054305300    4.334782518    2.918455728
    2.253088481    3.050534487    4.329490114    2.914988351
    2.260267112    3.046766358    4.324198055    2.911523086
    2.267445743    3.043000963    4.318906419    2.908059980
    2.274624374    3.039238350    4.313615281    2.904599079
    2.281803005    3.035478566    4.308324719    2.901140428
    2.288981636    3.031721661    4.303034807    2.897684074
    2.296160267    3.027967679    4.297745621    2.894230060
    2.303338898    3.024216668    4.292457237    2.890778432
    2.310517529    3.020468675    4.287169726    2.887329233
    2.317696160    3.016723744    4.281883165    2.883882508
    2.324874791    3.012981921    4.276597625    2.880438298
    2.332053422    3.009243250    4.271313179    2.876996648
    2.339232053    3.005507775    4.266029899    2.873557599
    2.346410684    3.001775541    4.260747858    2.870121193
    2.353589316    2.998046590    4.255467125    2.866687472
    2.360767947    2.994320966    4.250187772    2.863256478
    2.367946578    2.990598709    4.244909868    2.859828249
    2.375125209    2.986879864    4.239633483    2.856402828
    2.382303840    2.983164469    4.234358687    2.852980253
    2.389482471    2.979452568    4.229085547    2.849560565
    2.396661102    2.975744200    4.223814133    2.846143802
    2.403839733    2.972039404    4.218544510    2.842730003
    2.411018364    2.968338222    4.213276747    2.839319206
    2.418196995    2.964640691    4.208010910    2.835911448
    2.425375626    2.960946851    4.202747064    2.832506769
    2.432554257    2.957256740    4.197485277    2.829105204
    2.439732888    2.953570395    4.192225611    2.825706790
    2.446911519    2.949887855    4.186968133    2.822311563
    2.454090150    2.946209155    4.181712906    2.818919559
    2.461268781    2.942534333    4.176459994    2.815530815
    2.468447412    2.938863425    4.171209460    2.812145364
    2.475626043    2.935196466    4.165961366    2.808763242
    2.482804674    2.931533491    4.160715774    2.805384482
    2.489983306    2.927874536    4.155472747    2.802009120
    2.497161937    2.924219635    4.150232344    2.798637187
    2.504340568    2.920568822    4.144994628    2.795268719
    2.511519199    2.916922130    4.139759658    2.791903747
    2.518697830    2.913279592    4.134527493    2.788542303
    2.525876461    2.909641242    4.129298193    2.785184421
    2.533055092    2.906007112    4.124071816    2.781830131
    2.540233723    2.902377234    4.118848422    2.778479465
