# energy grid [eV]     ieps_x  ieps_y  ieps_z
#
    0.200000000    5.980050256    2.224261389    6.015855119
    0.207178631    5.978962818    2.223944553    6.014627790
    0.214357262    5.977837679    2.223616773    6.013357987
    0.221535893    5.976674903    2.223278072    6.012045791
    0.228714524    5.975474559    2.222928474    6.010691285
    0.235893155    5.974236714    2.222568003    6.009294558
    0.243071786    5.972961441    2.222196684    6.007855697
    0.250250417    5.971648812    2.221814543    6.006374794
    0.257429048    5.970298903    2.221421607    6.004851943
    0.264607679    5.968911789    2.221017902    6.003287240
    0.271786311    5.967487550    2.220603457    6.001680783
    0.278964942    5.966026266    2.220178299    6.000032673
    0.286143573    5.964528019    2.219742457    5.998343014
    0.293322204    5.962992893    2.219295962    5.996611910
    0.300500835    5.961420974    2.218838843    5.994839469
    0.307679466    5.959812349    2.218371131    5.993025801
    0.314858097    5.958167108    2.217892857    5.991171018
    0.322036728    5.956485341    2.217404054    5.989275234
    0.329215359    5.954767141    2.216904753    5.987338564
    0.336393990    5.953012602    2.216394988    5.985361128
    0.343572621    5.951221820    2.215874792    5.983343045
    0.350751252    5.949394891    2.215344200    5.981284438
    0.357929883    5.947531916    2.214803245    5.979185431
    0.365108514    5.945632993    2.214251964    5.977046151
    0.372287145    5.943698226    2.213690391    5.974866725
    0.379465776    5.941727718    2.213118564    5.972647284
    0.386644407    5.939721574    2.212536518    5.970387960
    0.393823038    5.937679899    2.211944290    5.968088887
    0.401001669    5.935602802    2.211341919    5.965750200
    0.408180301    5.933490393    2.210729442    5.963372037
    0.415358932    5.931342780    2.210106899    5.960954537
    0.422537563    5.929160078    2.209474326    5.958497842
    0.429716194    5.926942398    2.208831765    5.956002094
    0.436894825    5.924689856    2.208179255    5.953467438
    0.444073456    5.922402567    2.207516837    5.950894020
    0.451252087    5.920080649    2.206844550    5.948281987
    0.458430718    5.917724220    2.206162436    5.945631489
    0.465609349    5.915333400    2.205470536    5.942942677
    0.472787980    5.912908309    2.204768893    5.940215703
    0.479966611    5.910449070    2.204057548    5.937450722
    0.487145242    5.907955807    2.203336544    5.934647890
    0.494323873    5.905428643    2.202605924    5.931807363
    0.501502504    5.902867704    2.201865732    5.928929299
    0.508681135    5.900273117    2.201116010    5.926013860
    0.515859766    5.897645010    2.200356804    5.923061205
    0.523038397    5.894983512    2.199588157    5.920071499
    0.530217028    5.892288753    2.198810114    5.917044905
    0.537395659    5.889560863    2.198022721    5.913981589
    0.544574290    5.886799976    2.197226022    5.910881717
    0.551752922    5.884006224    2.196420062    5.907745458
    0.558931553    5.881179741    2.195604889    5.904572980
    0.566110184    5.878320662    2.194780548    5.901364456
    0.573288815    5.875429124    2.193947086    5.898120055
    0.580467446    5.872505263    2.193104550    5.894839952
    0.587646077    5.869549218    2.192252986    5.891524321
    0.594824708    5.866561127    2.191392442    5.888173337
    0.602003339    5.863541130    2.190522966    5.884787177
    0.609181970    5.860489369    2.189644605    5.881366017
    0.616360601    5.857405983    2.188757408    5.877910038
    0.623539232    5.854291117    2.187861423    5.874419418
    0.630717863    5.851144913    2.186956699    5.870894338
    0.637896494    5.847967515    2.186043284    5.867334981
    0.645075125    5.844759069    2.185121228    5.863741528
    0.652253756    5.841519720    2.184190580    5.860114165
    0.659432387    5.838249614    2.183251389    5.856453075
    0.666611018    5.834948899    2.182303705    5.852758444
    0.673789649    5.831617723    2.181347578    5.849030460
    0.680968280    5.828256235    2.180383058    5.845269309
    0.688146912    5.824864584    2.179410196    5.841475180
    0.695325543    5.821442921    2.178429042    5.837648262
    0.702504174    5.817991396    2.177439646    5.833788745
    0.709682805    5.814510161    2.176442061    5.829896820
    0.716861436    5.810999369    2.175436336    5.825972680
    0.724040067    5.807459173    2.174422522    5.822016515
    0.731218698    5.803889726    2.173400673    5.818028520
    0.738397329    5.800291182    2.172370838    5.814008889
    0.745575960    5.796663697    2.171333070    5.809957816
    0.752754591    5.793007425    2.170287420    5.805875496
    0.759933222    5.789322524    2.169233941    5.801762127
    0.767111853    5.785609150    2.168172684    5.797617903
    0.774290484    5.781867460    2.167103702    5.793443024
    0.781469115    5.778097613    2.166027048    5.789237686
    0.788647746    5.774299765    2.164942773    5.785002088
    0.795826377    5.770474078    2.163850931    5.780736430
    0.803005008    5.766620709    2.162751574    5.776440911
    0.810183639    5.762739819    2.161644756    5.772115732
    0.817362270    5.758831569    2.160530529    5.767761093
    0.824540902    5.754896119    2.159408946    5.763377196
    0.831719533    5.750933632    2.158280060    5.758964242
    0.838898164    5.746944268    2.157143926    5.754522433
    0.846076795    5.742928191    2.156000595    5.750051974
    0.853255426    5.738885563    2.154850122    5.745553066
    0.860434057    5.734816547    2.153692561    5.741025913
    0.867612688    5.730721308    2.152527964    5.736470719
    0.874791319    5.726600009    2.151356386    5.731887689
    0.881969950    5.722452814    2.150177880    5.727277027
    0.889148581    5.718279889    2.148992500    5.722638938
    0.896327212    5.714081399    2.147800300    5.717973628
    0.903505843    5.709857510    2.146601334    5.713281303
    0.910684474    5.705608387    2.145395656    5.708562168
    0.917863105    5.701334196    2.144183320    5.703816429
    0.925041736    5.697035105    2.142964380    5.699044294
    0.932220367    5.692711280    2.141738891    5.694245969
    0.939398998    5.688362889    2.140506905    5.689421661
    0.946577629    5.683990098    2.139268478    5.684571577
    0.953756260    5.679593076    2.138023664    5.679695925
    0.960934891    5.675171991    2.136772517    5.674794912
    0.968113523    5.670727011    2.135515091    5.669868746
    0.975292154    5.666258304    2.134251441    5.664917634
    0.982470785    5.661766040    2.132981621    5.659941786
    0.989649416    5.657250387    2.131705684    5.654941408
    0.996828047    5.652711515    2.130423686    5.649916709
    1.004006678    5.648149592    2.129135680    5.644867897
    1.011185309    5.643564789    2.127841722    5.639795181
    1.018363940    5.638957275    2.126541864    5.634698768
    1.025542571    5.634327221    2.125236162    5.629578868
    1.032721202    5.629674795    2.123924669    5.624435689
    1.039899833    5.625000169    2.122607441    5.619269438
    1.047078464    5.620303512    2.121284530    5.614080325
    1.054257095    5.615584996    2.119955992    5.608868558
    1.061435726    5.610844790    2.118621880    5.603634344
    1.068614357    5.606083066    2.117282248    5.598377892
    1.075792988    5.601299994    2.115937151    5.593099411
    1.082971619    5.596495744    2.114586642    5.587799108
    1.090150250    5.591670488    2.113230776    5.582477191
    1.097328881    5.586824397    2.111869606    5.577133867
    1.104507513    5.581957642    2.110503186    5.571769345
    1.111686144    5.577070393    2.109131571    5.566383832
    1.118864775    5.572162821    2.107754813    5.560977535
    1.126043406    5.567235098    2.106372966    5.555550662
    1.133222037    5.562287395    2.104986085    5.550103418
    1.140400668    5.557319882    2.103594222    5.544636011
    1.147579299    5.552332731    2.102197431    5.539148648
    1.154757930    5.547326112    2.100795766    5.533641534
    1.161936561    5.542300197    2.099389279    5.528114875
    1.169115192    5.537255156    2.097978024    5.522568877
    1.176293823    5.532191159    2.096562055    5.517003746
    1.183472454    5.527108379    2.095141423    5.511419686
    1.190651085    5.522006984    2.093716183    5.505816902
    1.197829716    5.516887146    2.092286386    5.500195599
    1.205008347    5.511749035    2.090852086    5.494555981
    1.212186978    5.506592822    2.089413336    5.488898251
    1.219365609    5.501418676    2.087970187    5.483222614
    1.226544240    5.496226768    2.086522692    5.477529271
    1.233722871    5.491017268    2.085070905    5.471818425
    1.240901503    5.485790344    2.083614875    5.466090280
    1.248080134    5.480546167    2.082154657    5.460345036
    1.255258765    5.475284906    2.080690302    5.454582895
    1.262437396    5.470006731    2.079221861    5.448804058
    1.269616027    5.464711810    2.077749387    5.443008725
    1.276794658    5.459400311    2.076272930    5.437197097
    1.283973289    5.454072405    2.074792543    5.431369373
    1.291151920    5.448728258    2.073308277    5.425525752
    1.298330551    5.443368040    2.071820183    5.419666432
    1.305509182    5.437991917    2.070328311    5.413791613
    1.312687813    5.432600059    2.068832714    5.407901490
    1.319866444    5.427192631    2.067333441    5.401996262
    1.327045075    5.421769801    2.065830543    5.396076125
    1.334223706    5.416331736    2.064324071    5.390141275
    1.341402337    5.410878603    2.062814075    5.384191907
    1.348580968    5.405410567    2.061300605    5.378228217
    1.355759599    5.399927796    2.059783711    5.372250397
    1.362938230    5.394430453    2.058263442    5.366258643
    1.370116861    5.388918705    2.056739850    5.360253146
    1.377295492    5.383392717    2.055212982    5.354234101
    1.384474124    5.377852653    2.053682889    5.348201697
    1.391652755    5.372298677    2.052149619    5.342156128
    1.398831386    5.366730954    2.050613222    5.336097582
    1.406010017    5.361149648    2.049073746    5.330026251
    1.413188648    5.355554920    2.047531240    5.323942324
    1.420367279    5.349946935    2.045985752    5.317845989
    1.427545910    5.344325855    2.044437331    5.311737433
    1.434724541    5.338691841    2.042886025    5.305616846
    1.441903172    5.333045056    2.041331881    5.299484412
    1.449081803    5.327385661    2.039774948    5.293340319
    1.456260434    5.321713816    2.038215273    5.287184751
    1.463439065    5.316029683    2.036652903    5.281017892
    1.470617696    5.310333420    2.035087886    5.274839927
    1.477796327    5.304625189    2.033520268    5.268651039
    1.484974958    5.298905147    2.031950096    5.262451410
    1.492153589    5.293173453    2.030377417    5.256241222
    1.499332220    5.287430267    2.028802278    5.250020656
    1.506510851    5.281675745    2.027224723    5.243789891
    1.513689482    5.275910045    2.025644800    5.237549107
    1.520868114    5.270133323    2.024062554    5.231298483
    1.528046745    5.264345737    2.022478030    5.225038196
    1.535225376    5.258547442    2.020891275    5.218768425
    1.542404007    5.252738593    2.019302333    5.212489344
    1.549582638    5.246919345    2.017711248    5.206201130
    1.556761269    5.241089853    2.016118067    5.199903957
    1.563939900    5.235250270    2.014522833    5.193597999
    1.571118531    5.229400750    2.012925590    5.187283429
    1.578297162    5.223541446    2.011326384    5.180960420
    1.585475793    5.217672510    2.009725257    5.174629143
    1.592654424    5.211794094    2.008122253    5.168289769
    1.599833055    5.205906348    2.006517416    5.161942467
    1.607011686    5.200009424    2.004910789    5.155587407
    1.614190317    5.194103472    2.003302415    5.149224757
    1.621368948    5.188188641    2.001692337    5.142854684
    1.628547579    5.182265081    2.000080597    5.136477355
    1.635726210    5.176332939    1.998467237    5.130092936
    1.642904841    5.170392364    1.996852301    5.123701590
    1.650083472    5.164443503    1.995235828    5.117303483
    1.657262104    5.158486503    1.993617863    5.110898777
    1.664440735    5.152521510    1.991998445    5.104487635
    1.671619366    5.146548669    1.990377616    5.098070218
    1.678797997    5.140568125    1.988755417    5.091646686
    1.685976628    5.134580023    1.987131888    5.085217199
    1.693155259    5.128584507    1.985507071    5.078781917
    1.700333890    5.122581720    1.983881005    5.072340996
    1.707512521    5.116571804    1.982253731    5.065894595
    1.714691152    5.110554901    1.980625288    5.059442868
    1.721869783    5.104531152    1.978995716    5.052985972
    1.729048414    5.098500699    1.977365054    5.046524060
    1.736227045    5.092463681    1.975733341    5.040057287
    1.743405676    5.086420238    1.974100617    5.033585804
    1.750584307    5.080370508    1.972466920    5.027109764
    1.757762938    5.074314630    1.970832288    5.020629318
    1.764941569    5.068252741    1.969196760    5.014144614
    1.772120200    5.062184979    1.967560373    5.007655803
    1.779298831    5.056111479    1.965923165    5.001163032
    1.786477462    5.050032377    1.964285174    4.994666449
    1.793656093    5.043947808    1.962646437    4.988166199
    1.800834725    5.037857907    1.961006990    4.981662429
    1.808013356    5.031762806    1.959366871    4.975155282
    1.815191987    5.025662640    1.957726116    4.968644903
    1.822370618    5.019557540    1.956084762    4.962131434
    1.829549249    5.013447637    1.954442844    4.955615016
    1.836727880    5.007333064    1.952800398    4.949095791
    1.843906511    5.001213950    1.951157460    4.942573898
    1.851085142    4.995090425    1.949514064    4.936049477
    1.858263773    4.988962618    1.947870247    4.929522666
    1.865442404    4.982830657    1.946226043    4.922993601
    1.872621035    4.976694671    1.944581487    4.916462420
    1.879799666    4.970554784    1.942936612    4.909929256
    1.886978297    4.964411126    1.941291453    4.903394246
    1.894156928    4.958263819    1.939646045    4.896857522
    1.901335559    4.952112991    1.938000419    4.890319218
    1.908514190    4.945958764    1.936354611    4.883779464
    1.915692821    4.939801262    1.934708652    4.877238391
    1.922871452    4.933640609    1.933062577    4.870696130
    1.930050083    4.927476926    1.931416417    4.864152810
    1.937228715    4.921310334    1.929770205    4.857608557
    1.944407346    4.915140955    1.928123974    4.851063501
    1.951585977    4.908968909    1.926477754    4.844517766
    1.958764608    4.902794315    1.924831579    4.837971478
    1.965943239    4.896617291    1.923185479    4.831424762
    1.973121870    4.890437956    1.921539485    4.824877741
    1.980300501    4.884256426    1.919893629    4.818330537
    1.987479132    4.878072819    1.918247941    4.811783273
    1.994657763    4.871887250    1.916602453    4.805236068
    2.001836394    4.865699835    1.914957193    4.798689044
    2.009015025    4.859510687    1.913312193    4.792142318
    2.016193656    4.853319921    1.911667481    4.785596009
    2.023372287    4.847127650    1.910023088    4.779050235
    2.030550918    4.840933985    1.908379044    4.772505110
    2.037729549    4.834739040    1.906735376    4.765960751
    2.044908180    4.828542923    1.905092113    4.759417273
    2.052086811    4.822345747    1.903449286    4.752874787
    2.059265442    4.816147620    1.901806921    4.746333409
    2.066444073    4.809948651    1.900165047    4.739793248
    2.073622705    4.803748948    1.898523693    4.733254416
    2.080801336    4.797548619    1.896882885    4.726717023
    2.087979967    4.791347771    1.895242651    4.720181178
    2.095158598    4.785146508    1.893603018    4.713646990
    2.102337229    4.778944937    1.891964014    4.707114564
    2.109515860    4.772743163    1.890325665    4.700584009
    2.116694491    4.766541288    1.888687997    4.694055430
    2.123873122    4.760339417    1.887051037    4.687528931
    2.131051753    4.754137651    1.885414812    4.681004616
    2.138230384    4.747936093    1.883779346    4.674482588
    2.145409015    4.741734843    1.882144666    4.667962949
    2.152587646    4.735534003    1.880510796    4.661445801
    2.159766277    4.729333670    1.878877763    4.654931243
    2.166944908    4.723133946    1.877245591    4.648419375
    2.174123539    4.716934926    1.875614304    4.641910297
    2.181302170    4.710736711    1.873983928    4.635404105
    2.188480801    4.704539395    1.872354486    4.628900896
    2.195659432    4.698343075    1.870726002    4.622400767
    2.202838063    4.692147847    1.869098501    4.615903813
    2.210016694    4.685953806    1.867472006    4.609410128
    2.217195326    4.679761045    1.865846540    4.602919805
    2.224373957    4.673569657    1.864222127    4.596432938
    2.231552588    4.667379736    1.862598788    4.589949618
    2.238731219    4.661191374    1.860976549    4.583469937
    2.245909850    4.655004662    1.859355429    4.576993984
    2.253088481    4.648819689    1.857735453    4.570521848
    2.260267112    4.642636547    1.856116642    4.564053619
    2.267445743    4.636455324    1.854499017    4.557589384
    2.274624374    4.630276110    1.852882601    4.551129230
    2.281803005    4.624098990    1.851267415    4.544673243
    2.288981636    4.617924054    1.849653480    4.538221508
    2.296160267    4.611751388    1.848040817    4.531774109
    2.303338898    4.605581076    1.846429448    4.525331131
    2.310517529    4.599413204    1.844819391    4.518892656
    2.317696160    4.593247858    1.843210669    4.512458766
    2.324874791    4.587085119    1.841603301    4.506029543
    2.332053422    4.580925072    1.839997307    4.499605066
    2.339232053    4.574767800    1.838392706    4.493185416
    2.346410684    4.568613382    1.836789519    4.486770672
    2.353589316    4.562461901    1.835187765    4.480360911
    2.360767947    4.556313438    1.833587462    4.473956210
    2.367946578    4.550168071    1.831988630    4.467556647
    2.375125209    4.544025880    1.830391288    4.461162297
    2.382303840    4.537886943    1.828795454    4.454773236
    2.389482471    4.531751338    1.827201146    4.448389536
    2.396661102    4.525619143    1.825608382    4.442011272
    2.403839733    4.519490432    1.824017182    4.435638517
    2.411018364    4.513365283    1.822427561    4.429271342
    2.418196995    4.507243770    1.820839538    4.422909819
    2.425375626    4.501125968    1.819253130    4.416554018
    2.432554257    4.495011951    1.817668355    4.410204008
    2.439732888    4.488901791    1.816085228    4.403859860
    2.446911519    4.482795561    1.814503768    4.397521640
    2.454090150    4.476693334    1.812923990    4.391189417
    2.461268781    4.470595180    1.811345911    4.384863258
    2.468447412    4.464501170    1.809769548    4.378543227
    2.475626043    4.458411374    1.808194915    4.372229392
    2.482804674    4.452325861    1.806622030    4.365921815
    2.489983306    4.446244700    1.805050907    4.359620562
    2.497161937    4.440167959    1.803481563    4.353325695
    2.504340568    4.434095706    1.801914012    4.347037277
    2.511519199    4.428028006    1.800348269    4.340755369
    2.518697830    4.421964928    1.798784350    4.334480034
    2.525876461    4.415906535    1.797222269    4.328211330
    2.533055092    4.409852893    1.795662040    4.321949318
    2.540233723    4.403804066    1.794103679    4.315694057
