# energy grid [eV]     ieps_x  ieps_y  ieps_z
#
    0.200000000    6.422653095    6.784775165    8.053540999
    0.207178631    6.421476159    6.783463054    8.051892370
    0.214357262    6.420258289    6.782105334    8.050186456
    0.221535893    6.418999544    6.780702071    8.048423346
    0.228714524    6.417699983    6.779253336    8.046603129
    0.235893155    6.416359669    6.777759202    8.044725899
    0.243071786    6.414978665    6.776219741    8.042791751
    0.250250417    6.413557038    6.774635031    8.040800785
    0.257429048    6.412094856    6.773005150    8.038753101
    0.264607679    6.410592187    6.771330179    8.036648803
    0.271786311    6.409049104    6.769610202    8.034488000
    0.278964942    6.407465680    6.767845302    8.032270800
    0.286143573    6.405841990    6.766035567    8.029997317
    0.293322204    6.404178112    6.764181087    8.027667665
    0.300500835    6.402474123    6.762281952    8.025281963
    0.307679466    6.400730105    6.760338257    8.022840331
    0.314858097    6.398946139    6.758350097    8.020342893
    0.322036728    6.397122312    6.756317570    8.017789775
    0.329215359    6.395258708    6.754240775    8.015181105
    0.336393990    6.393355415    6.752119815    8.012517015
    0.343572621    6.391412523    6.749954793    8.009797639
    0.350751252    6.389430123    6.747745814    8.007023113
    0.357929883    6.387408308    6.745492987    8.004193577
    0.365108514    6.385347174    6.743196422    8.001309173
    0.372287145    6.383246816    6.740856231    7.998370044
    0.379465776    6.381107333    6.738472526    7.995376338
    0.386644407    6.378928825    6.736045425    7.992328203
    0.393823038    6.376711393    6.733575044    7.989225792
    0.401001669    6.374455141    6.731061504    7.986069259
    0.408180301    6.372160173    6.728504926    7.982858760
    0.415358932    6.369826597    6.725905433    7.979594456
    0.422537563    6.367454520    6.723263150    7.976276507
    0.429716194    6.365044052    6.720578206    7.972905077
    0.436894825    6.362595305    6.717850728    7.969480333
    0.444073456    6.360108391    6.715080847    7.966002444
    0.451252087    6.357583426    6.712268697    7.962471580
    0.458430718    6.355020525    6.709414412    7.958887915
    0.465609349    6.352419807    6.706518128    7.955251625
    0.472787980    6.349781389    6.703579983    7.951562887
    0.479966611    6.347105395    6.700600116    7.947821882
    0.487145242    6.344391944    6.697578670    7.944028791
    0.494323873    6.341641162    6.694515787    7.940183801
    0.501502504    6.338853173    6.691411613    7.936287096
    0.508681135    6.336028105    6.688266294    7.932338866
    0.515859766    6.333166085    6.685079977    7.928339303
    0.523038397    6.330267244    6.681852814    7.924288599
    0.530217028    6.327331712    6.678584956    7.920186950
    0.537395659    6.324359621    6.675276556    7.916034552
    0.544574290    6.321351106    6.671927768    7.911831606
    0.551752922    6.318306301    6.668538749    7.907578311
    0.558931553    6.315225344    6.665109657    7.903274873
    0.566110184    6.312108372    6.661640650    7.898921496
    0.573288815    6.308955525    6.658131891    7.894518386
    0.580467446    6.305766942    6.654583542    7.890065754
    0.587646077    6.302542767    6.650995766    7.885563811
    0.594824708    6.299283142    6.647368728    7.881012769
    0.602003339    6.295988211    6.643702597    7.876412842
    0.609181970    6.292658121    6.639997539    7.871764248
    0.616360601    6.289293018    6.636253724    7.867067205
    0.623539232    6.285893050    6.632471324    7.862321933
    0.630717863    6.282458367    6.628650511    7.857528653
    0.637896494    6.278989119    6.624791459    7.852687590
    0.645075125    6.275485458    6.620894343    7.847798968
    0.652253756    6.271947537    6.616959338    7.842863015
    0.659432387    6.268375510    6.612986624    7.837879958
    0.666611018    6.264769531    6.608976378    7.832850028
    0.673789649    6.261129757    6.604928781    7.827773457
    0.680968280    6.257456346    6.600844014    7.822650478
    0.688146912    6.253749456    6.596722261    7.817481326
    0.695325543    6.250009245    6.592563704    7.812266237
    0.702504174    6.246235876    6.588368529    7.807005449
    0.709682805    6.242429508    6.584136922    7.801699201
    0.716861436    6.238590305    6.579869070    7.796347734
    0.724040067    6.234718430    6.575565162    7.790951289
    0.731218698    6.230814048    6.571225387    7.785510111
    0.738397329    6.226877323    6.566849936    7.780024444
    0.745575960    6.222908423    6.562439000    7.774494535
    0.752754591    6.218907514    6.557992772    7.768920629
    0.759933222    6.214874765    6.553511445    7.763302978
    0.767111853    6.210810344    6.548995214    7.757641829
    0.774290484    6.206714423    6.544444275    7.751937435
    0.781469115    6.202587170    6.539858824    7.746190047
    0.788647746    6.198428758    6.535239059    7.740399920
    0.795826377    6.194239360    6.530585178    7.734567307
    0.803005008    6.190019148    6.525897380    7.728692464
    0.810183639    6.185768297    6.521175866    7.722775649
    0.817362270    6.181486981    6.516420835    7.716817120
    0.824540902    6.177175375    6.511632492    7.710817134
    0.831719533    6.172833657    6.506811037    7.704775952
    0.838898164    6.168462002    6.501956674    7.698693835
    0.846076795    6.164060589    6.497069607    7.692571044
    0.853255426    6.159629596    6.492150042    7.686407843
    0.860434057    6.155169202    6.487198184    7.680204495
    0.867612688    6.150679586    6.482214238    7.673961264
    0.874791319    6.146160929    6.477198414    7.667678417
    0.881969950    6.141613411    6.472150917    7.661356218
    0.889148581    6.137037214    6.467071956    7.654994935
    0.896327212    6.132432520    6.461961740    7.648594837
    0.903505843    6.127799512    6.456820480    7.642156190
    0.910684474    6.123138373    6.451648384    7.635679265
    0.917863105    6.118449286    6.446445664    7.629164331
    0.925041736    6.113732436    6.441212530    7.622611659
    0.932220367    6.108988007    6.435949196    7.616021521
    0.939398998    6.104216184    6.430655873    7.609394187
    0.946577629    6.099417153    6.425332773    7.602729931
    0.953756260    6.094591101    6.419980110    7.596029024
    0.960934891    6.089738213    6.414598099    7.589291742
    0.968113523    6.084858676    6.409186952    7.582518357
    0.975292154    6.079952678    6.403746885    7.575709145
    0.982470785    6.075020407    6.398278112    7.568864380
    0.989649416    6.070062050    6.392780849    7.561984338
    0.996828047    6.065077795    6.387255312    7.555069294
    1.004006678    6.060067832    6.381701716    7.548119525
    1.011185309    6.055032350    6.376120278    7.541135307
    1.018363940    6.049971538    6.370511214    7.534116918
    1.025542571    6.044885585    6.364874742    7.527064634
    1.032721202    6.039774681    6.359211078    7.519978732
    1.039899833    6.034639017    6.353520440    7.512859492
    1.047078464    6.029478783    6.347803046    7.505707190
    1.054257095    6.024294169    6.342059113    7.498522106
    1.061435726    6.019085366    6.336288860    7.491304517
    1.068614357    6.013852565    6.330492505    7.484054703
    1.075792988    6.008595958    6.324670266    7.476772941
    1.082971619    6.003315735    6.318822361    7.469459511
    1.090150250    5.998012088    6.312949010    7.462114693
    1.097328881    5.992685210    6.307050430    7.454738765
    1.104507513    5.987335290    6.301126842    7.447332005
    1.111686144    5.981962521    6.295178463    7.439894695
    1.118864775    5.976567096    6.289205513    7.432427112
    1.126043406    5.971149206    6.283208210    7.424929537
    1.133222037    5.965709042    6.277186774    7.417402248
    1.140400668    5.960246798    6.271141424    7.409845524
    1.147579299    5.954762665    6.265072378    7.402259645
    1.154757930    5.949256835    6.258979855    7.394644890
    1.161936561    5.943729501    6.252864075    7.387001537
    1.169115192    5.938180854    6.246725256    7.379329866
    1.176293823    5.932611087    6.240563617    7.371630154
    1.183472454    5.927020391    6.234379376    7.363902681
    1.190651085    5.921408959    6.228172753    7.356147725
    1.197829716    5.915776982    6.221943965    7.348365564
    1.205008347    5.910124652    6.215693230    7.340556476
    1.212186978    5.904452161    6.209420768    7.332720738
    1.219365609    5.898759701    6.203126795    7.324858627
    1.226544240    5.893047463    6.196811529    7.316970421
    1.233722871    5.887315638    6.190475189    7.309056397
    1.240901503    5.881564418    6.184117991    7.301116830
    1.248080134    5.875793994    6.177740152    7.293151997
    1.255258765    5.870004556    6.171341890    7.285162174
    1.262437396    5.864196295    6.164923420    7.277147636
    1.269616027    5.858369402    6.158484959    7.269108657
    1.276794658    5.852524067    6.152026724    7.261045512
    1.283973289    5.846660480    6.145548929    7.252958476
    1.291151920    5.840778831    6.139051790    7.244847822
    1.298330551    5.834879309    6.132535522    7.236713823
    1.305509182    5.828962104    6.126000341    7.228556751
    1.312687813    5.823027405    6.119446459    7.220376880
    1.319866444    5.817075401    6.112874092    7.212174479
    1.327045075    5.811106280    6.106283452    7.203949822
    1.334223706    5.805120230    6.099674754    7.195703177
    1.341402337    5.799117439    6.093048209    7.187434815
    1.348580968    5.793098096    6.086404030    7.179145006
    1.355759599    5.787062386    6.079742430    7.170834018
    1.362938230    5.781010497    6.073063619    7.162502119
    1.370116861    5.774942616    6.066367808    7.154149578
    1.377295492    5.768858928    6.059655209    7.145776660
    1.384474124    5.762759619    6.052926030    7.137383631
    1.391652755    5.756644875    6.046180483    7.128970759
    1.398831386    5.750514881    6.039418775    7.120538307
    1.406010017    5.744369821    6.032641116    7.112086539
    1.413188648    5.738209880    6.025847713    7.103615719
    1.420367279    5.732035241    6.019038774    7.095126110
    1.427545910    5.725846087    6.012214506    7.086617973
    1.434724541    5.719642602    6.005375115    7.078091570
    1.441903172    5.713424968    5.998520808    7.069547162
    1.449081803    5.707193366    5.991651788    7.060985007
    1.456260434    5.700947979    5.984768262    7.052405365
    1.463439065    5.694688986    5.977870432    7.043808494
    1.470617696    5.688416570    5.970958503    7.035194650
    1.477796327    5.682130909    5.964032678    7.026564091
    1.484974958    5.675832184    5.957093158    7.017917072
    1.492153589    5.669520573    5.950140144    7.009253847
    1.499332220    5.663196254    5.943173839    7.000574671
    1.506510851    5.656859407    5.936194442    6.991879795
    1.513689482    5.650510207    5.929202153    6.983169473
    1.520868114    5.644148832    5.922197171    6.974443955
    1.528046745    5.637775458    5.915179693    6.965703492
    1.535225376    5.631390261    5.908149918    6.956948333
    1.542404007    5.624993417    5.901108042    6.948178726
    1.549582638    5.618585098    5.894054262    6.939394919
    1.556761269    5.612165481    5.886988773    6.930597157
    1.563939900    5.605734737    5.879911769    6.921785687
    1.571118531    5.599293041    5.872823445    6.912960754
    1.578297162    5.592840563    5.865723994    6.904122600
    1.585475793    5.586377476    5.858613607    6.895271468
    1.592654424    5.579903951    5.851492478    6.886407599
    1.599833055    5.573420158    5.844360797    6.877531235
    1.607011686    5.566926266    5.837218755    6.868642615
    1.614190317    5.560422445    5.830066539    6.859741977
    1.621368948    5.553908864    5.822904341    6.850829559
    1.628547579    5.547385689    5.815732346    6.841905597
    1.635726210    5.540853089    5.808550743    6.832970326
    1.642904841    5.534311229    5.801359717    6.824023981
    1.650083472    5.527760275    5.794159454    6.815066796
    1.657262104    5.521200393    5.786950139    6.806099001
    1.664440735    5.514631747    5.779731955    6.797120829
    1.671619366    5.508054501    5.772505086    6.788132509
    1.678797997    5.501468818    5.765269714    6.779134270
    1.685976628    5.494874860    5.758026020    6.770126341
    1.693155259    5.488272789    5.750774185    6.761108947
    1.700333890    5.481662766    5.743514388    6.752082314
    1.707512521    5.475044951    5.736246808    6.743046668
    1.714691152    5.468419503    5.728971623    6.734002230
    1.721869783    5.461786583    5.721689011    6.724949225
    1.729048414    5.455146347    5.714399148    6.715887871
    1.736227045    5.448498954    5.707102208    6.706818391
    1.743405676    5.441844559    5.699798367    6.697741001
    1.750584307    5.435183320    5.692487798    6.688655921
    1.757762938    5.428515390    5.685170674    6.679563366
    1.764941569    5.421840925    5.677847167    6.670463552
    1.772120200    5.415160078    5.670517448    6.661356693
    1.779298831    5.408473003    5.663181687    6.652243003
    1.786477462    5.401779851    5.655840053    6.643122692
    1.793656093    5.395080774    5.648492714    6.633995972
    1.800834725    5.388375923    5.641139839    6.624863052
    1.808013356    5.381665448    5.633781593    6.615724141
    1.815191987    5.374949497    5.626418142    6.606579445
    1.822370618    5.368228220    5.619049651    6.597429171
    1.829549249    5.361501764    5.611676284    6.588273524
    1.836727880    5.354770275    5.604298203    6.579112706
    1.843906511    5.348033901    5.596915571    6.569946921
    1.851085142    5.341292786    5.589528549    6.560776369
    1.858263773    5.334547075    5.582137296    6.551601250
    1.865442404    5.327796912    5.574741971    6.542421764
    1.872621035    5.321042439    5.567342734    6.533238107
    1.879799666    5.314283800    5.559939742    6.524050477
    1.886978297    5.307521134    5.552533150    6.514859068
    1.894156928    5.300754584    5.545123115    6.505664074
    1.901335559    5.293984288    5.537709791    6.496465687
    1.908514190    5.287210387    5.530293331    6.487264100
    1.915692821    5.280433017    5.522873889    6.478059503
    1.922871452    5.273652317    5.515451615    6.468852084
    1.930050083    5.266868423    5.508026662    6.459642032
    1.937228715    5.260081472    5.500599178    6.450429533
    1.944407346    5.253291597    5.493169312    6.441214772
    1.951585977    5.246498934    5.485737213    6.431997934
    1.958764608    5.239703616    5.478303028    6.422779202
    1.965943239    5.232905775    5.470866902    6.413558757
    1.973121870    5.226105544    5.463428982    6.404336779
    1.980300501    5.219303053    5.455989410    6.395113449
    1.987479132    5.212498433    5.448548330    6.385888944
    1.994657763    5.205691812    5.441105885    6.376663440
    2.001836394    5.198883321    5.433662217    6.367437114
    2.009015025    5.192073085    5.426217464    6.358210140
    2.016193656    5.185261234    5.418771767    6.348982691
    2.023372287    5.178447891    5.411325265    6.339754939
    2.030550918    5.171633184    5.403878095    6.330527054
    2.037729549    5.164817236    5.396430393    6.321299207
    2.044908180    5.158000172    5.388982295    6.312071565
    2.052086811    5.151182114    5.381533937    6.302844295
    2.059265442    5.144363184    5.374085451    6.293617563
    2.066444073    5.137543504    5.366636971    6.284391534
    2.073622705    5.130723194    5.359188629    6.275166371
    2.080801336    5.123902374    5.351740555    6.265942236
    2.087979967    5.117081162    5.344292879    6.256719290
    2.095158598    5.110259678    5.336845732    6.247497693
    2.102337229    5.103438038    5.329399240    6.238277604
    2.109515860    5.096616358    5.321953531    6.229059179
    2.116694491    5.089794754    5.314508731    6.219842575
    2.123873122    5.082973341    5.307064965    6.210627947
    2.131051753    5.076152234    5.299622359    6.201415448
    2.138230384    5.069331544    5.292181035    6.192205231
    2.145409015    5.062511386    5.284741116    6.182997446
    2.152587646    5.055691869    5.277302723    6.173792245
    2.159766277    5.048873106    5.269865977    6.164589776
    2.166944908    5.042055206    5.262430998    6.155390187
    2.174123539    5.035238278    5.254997905    6.146193623
    2.181302170    5.028422431    5.247566815    6.137000231
    2.188480801    5.021607772    5.240137846    6.127810155
    2.195659432    5.014794408    5.232711113    6.118623537
    2.202838063    5.007982446    5.225286731    6.109440519
    2.210016694    5.001171989    5.217864815    6.100261242
    2.217195326    4.994363144    5.210445478    6.091085845
    2.224373957    4.987556012    5.203028833    6.081914466
    2.231552588    4.980750698    5.195614990    6.072747243
    2.238731219    4.973947303    5.188204060    6.063584311
    2.245909850    4.967145928    5.180796152    6.054425805
    2.253088481    4.960346675    5.173391377    6.045271858
    2.260267112    4.953549641    5.165989840    6.036122603
    2.267445743    4.946754927    5.158591650    6.026978172
    2.274624374    4.939962631    5.151196912    6.017838693
    2.281803005    4.933172849    5.143805731    6.008704296
    2.288981636    4.926385679    5.136418212    5.999575110
    2.296160267    4.919601215    5.129034457    5.990451260
    2.303338898    4.912819554    5.121654569    5.981332872
    2.310517529    4.906040789    5.114278650    5.972220070
    2.317696160    4.899265014    5.106906801    5.963112978
    2.324874791    4.892492321    5.099539120    5.954011718
    2.332053422    4.885722802    5.092175707    5.944916410
    2.339232053    4.878956549    5.084816661    5.935827175
    2.346410684    4.872193651    5.077462077    5.926744132
    2.353589316    4.865434199    5.070112052    5.917667397
    2.360767947    4.858678281    5.062766683    5.908597089
    2.367946578    4.851925985    5.055426062    5.899533321
    2.375125209    4.845177398    5.048090284    5.890476209
    2.382303840    4.838432608    5.040759442    5.881425865
    2.389482471    4.831691700    5.033433627    5.872382402
    2.396661102    4.824954759    5.026112931    5.863345931
    2.403839733    4.818221870    5.018797444    5.854316562
    2.411018364    4.811493115    5.011487256    5.845294404
    2.418196995    4.804768579    5.004182454    5.836279565
    2.425375626    4.798048342    4.996883127    5.827272151
    2.432554257    4.791332487    4.989589361    5.818272268
    2.439732888    4.784621093    4.982301242    5.809280021
    2.446911519    4.777914242    4.975018857    5.800295513
    2.454090150    4.771212012    4.967742288    5.791318847
    2.461268781    4.764514481    4.960471620    5.782350125
    2.468447412    4.757821727    4.953206935    5.773389447
    2.475626043    4.751133828    4.945948315    5.764436912
    2.482804674    4.744450860    4.938695842    5.755492619
    2.489983306    4.737772897    4.931449595    5.746556666
    2.497161937    4.731100016    4.924209655    5.737629147
    2.504340568    4.724432290    4.916976099    5.728710160
    2.511519199    4.717769793    4.909749006    5.719799798
    2.518697830    4.711112598    4.902528453    5.710898154
    2.525876461    4.704460775    4.895314516    5.702005321
    2.533055092    4.697814398    4.888107270    5.693121390
    2.540233723    4.691173537    4.880906791    5.684246452
