# energy grid [eV]     ieps_x  ieps_y  ieps_z
#
    0.200000000    6.740773634    4.048847674    4.869650803
    0.207178631    6.739519019    4.048128406    4.868719279
    0.214357262    6.738220879    4.047384230    4.867755492
    0.221535893    6.736879287    4.046615191    4.866759502
    0.228714524    6.735494319    4.045821337    4.865731370
    0.235893155    6.734066050    4.045002717    4.864671160
    0.243071786    6.732594562    4.044159383    4.863578936
    0.250250417    6.731079935    4.043291384    4.862454766
    0.257429048    6.729522253    4.042398776    4.861298719
    0.264607679    6.727921604    4.041481613    4.860110864
    0.271786311    6.726278074    4.040539950    4.858891274
    0.278964942    6.724591755    4.039573846    4.857640022
    0.286143573    6.722862739    4.038583358    4.856357186
    0.293322204    6.721091120    4.037568547    4.855042841
    0.300500835    6.719276995    4.036529474    4.853697067
    0.307679466    6.717420463    4.035466203    4.852319944
    0.314858097    6.715521624    4.034378796    4.850911555
    0.322036728    6.713580581    4.033267319    4.849471984
    0.329215359    6.711597439    4.032131838    4.848001317
    0.336393990    6.709572304    4.030972422    4.846499639
    0.343572621    6.707505284    4.029789138    4.844967041
    0.350751252    6.705396490    4.028582057    4.843403613
    0.357929883    6.703246034    4.027351251    4.841809446
    0.365108514    6.701054031    4.026096791    4.840184633
    0.372287145    6.698820595    4.024818751    4.838529270
    0.379465776    6.696545845    4.023517206    4.836843452
    0.386644407    6.694229901    4.022192231    4.835127277
    0.393823038    6.691872883    4.020843904    4.833380844
    0.401001669    6.689474914    4.019472303    4.831604255
    0.408180301    6.687036119    4.018077506    4.829797610
    0.415358932    6.684556625    4.016659594    4.827961013
    0.422537563    6.682036559    4.015218648    4.826094569
    0.429716194    6.679476051    4.013754750    4.824198383
    0.436894825    6.676875232    4.012267983    4.822272563
    0.444073456    6.674234235    4.010758432    4.820317217
    0.451252087    6.671553195    4.009226182    4.818332456
    0.458430718    6.668832247    4.007671318    4.816318389
    0.465609349    6.666071529    4.006093929    4.814275131
    0.472787980    6.663271180    4.004494101    4.812202793
    0.479966611    6.660431340    4.002871925    4.810101490
    0.487145242    6.657552151    4.001227490    4.807971340
    0.494323873    6.654633756    3.999560886    4.805812458
    0.501502504    6.651676301    3.997872205    4.803624962
    0.508681135    6.648679931    3.996161540    4.801408972
    0.515859766    6.645644794    3.994428984    4.799164609
    0.523038397    6.642571039    3.992674631    4.796891993
    0.530217028    6.639458816    3.990898576    4.794591247
    0.537395659    6.636308275    3.989100915    4.792262494
    0.544574290    6.633119571    3.987281744    4.789905860
    0.551752922    6.629892857    3.985441161    4.787521469
    0.558931553    6.626628288    3.983579264    4.785109448
    0.566110184    6.623326020    3.981696151    4.782669925
    0.573288815    6.619986212    3.979791922    4.780203028
    0.580467446    6.616609022    3.977866677    4.777708886
    0.587646077    6.613194610    3.975920517    4.775187629
    0.594824708    6.609743138    3.973953544    4.772639389
    0.602003339    6.606254767    3.971965860    4.770064297
    0.609181970    6.602729660    3.969957567    4.767462486
    0.616360601    6.599167983    3.967928770    4.764834091
    0.623539232    6.595569901    3.965879573    4.762179245
    0.630717863    6.591935579    3.963810079    4.759498084
    0.637896494    6.588265187    3.961720396    4.756790744
    0.645075125    6.584558891    3.959610627    4.754057361
    0.652253756    6.580816862    3.957480881    4.751298074
    0.659432387    6.577039271    3.955331265    4.748513020
    0.666611018    6.573226287    3.953161885    4.745702339
    0.673789649    6.569378085    3.950972849    4.742866170
    0.680968280    6.565494837    3.948764268    4.740004654
    0.688146912    6.561576717    3.946536249    4.737117931
    0.695325543    6.557623900    3.944288903    4.734206145
    0.702504174    6.553636562    3.942022339    4.731269436
    0.709682805    6.549614880    3.939736669    4.728307947
    0.716861436    6.545559031    3.937432002    4.725321824
    0.724040067    6.541469194    3.935108452    4.722311209
    0.731218698    6.537345547    3.932766129    4.719276247
    0.738397329    6.533188271    3.930405146    4.716217084
    0.745575960    6.528997546    3.928025616    4.713133865
    0.752754591    6.524773553    3.925627651    4.710026737
    0.759933222    6.520516475    3.923211366    4.706895846
    0.767111853    6.516226493    3.920776874    4.703741341
    0.774290484    6.511903793    3.918324290    4.700563368
    0.781469115    6.507548557    3.915853728    4.697362077
    0.788647746    6.503160970    3.913365302    4.694137615
    0.795826377    6.498741218    3.910859129    4.690890132
    0.803005008    6.494289487    3.908335324    4.687619778
    0.810183639    6.489805964    3.905794002    4.684326702
    0.817362270    6.485290834    3.903235279    4.681011055
    0.824540902    6.480744287    3.900659273    4.677672988
    0.831719533    6.476166511    3.898066100    4.674312652
    0.838898164    6.471557694    3.895455876    4.670930198
    0.846076795    6.466918025    3.892828719    4.667525778
    0.853255426    6.462247695    3.890184746    4.664099544
    0.860434057    6.457546894    3.887524075    4.660651649
    0.867612688    6.452815813    3.884846824    4.657182246
    0.874791319    6.448054642    3.882153110    4.653691486
    0.881969950    6.443263575    3.879443052    4.650179524
    0.889148581    6.438442802    3.876716768    4.646646514
    0.896327212    6.433592517    3.873974377    4.643092608
    0.903505843    6.428712911    3.871215998    4.639517961
    0.910684474    6.423804180    3.868441749    4.635922727
    0.917863105    6.418866516    3.865651749    4.632307061
    0.925041736    6.413900114    3.862846118    4.628671117
    0.932220367    6.408905167    3.860024974    4.625015049
    0.939398998    6.403881872    3.857188437    4.621339013
    0.946577629    6.398830421    3.854336627    4.617643164
    0.953756260    6.393751012    3.851469663    4.613927657
    0.960934891    6.388643840    3.848587665    4.610192647
    0.968113523    6.383509100    3.845690752    4.606438290
    0.975292154    6.378346989    3.842779044    4.602664741
    0.982470785    6.373157704    3.839852661    4.598872157
    0.989649416    6.367941440    3.836911722    4.595060691
    0.996828047    6.362698394    3.833956348    4.591230501
    1.004006678    6.357428764    3.830986659    4.587381743
    1.011185309    6.352132748    3.828002774    4.583514571
    1.018363940    6.346810541    3.825004813    4.579629142
    1.025542571    6.341462342    3.821992896    4.575725613
    1.032721202    6.336088349    3.818967144    4.571804137
    1.039899833    6.330688760    3.815927675    4.567864873
    1.047078464    6.325263771    3.812874610    4.563907975
    1.054257095    6.319813582    3.809808069    4.559933600
    1.061435726    6.314338391    3.806728171    4.555941902
    1.068614357    6.308838395    3.803635036    4.551933039
    1.075792988    6.303313793    3.800528784    4.547907166
    1.082971619    6.297764784    3.797409534    4.543864437
    1.090150250    6.292191566    3.794277406    4.539805010
    1.097328881    6.286594337    3.791132519    4.535729039
    1.104507513    6.280973295    3.787974992    4.531636680
    1.111686144    6.275328640    3.784804945    4.527528088
    1.118864775    6.269660569    3.781622497    4.523403418
    1.126043406    6.263969281    3.778427766    4.519262825
    1.133222037    6.258254974    3.775220872    4.515106464
    1.140400668    6.252517847    3.772001934    4.510934490
    1.147579299    6.246758097    3.768771069    4.506747057
    1.154757930    6.240975924    3.765528396    4.502544320
    1.161936561    6.235171525    3.762274034    4.498326432
    1.169115192    6.229345098    3.759008101    4.494093548
    1.176293823    6.223496841    3.755730714    4.489845822
    1.183472454    6.217626952    3.752441991    4.485583407
    1.190651085    6.211735628    3.749142050    4.481306456
    1.197829716    6.205823068    3.745831009    4.477015122
    1.205008347    6.199889467    3.742508983    4.472709560
    1.212186978    6.193935025    3.739176091    4.468389920
    1.219365609    6.187959936    3.735832450    4.464056356
    1.226544240    6.181964400    3.732478175    4.459709019
    1.233722871    6.175948611    3.729113383    4.455348062
    1.240901503    6.169912766    3.725738189    4.450973635
    1.248080134    6.163857062    3.722352711    4.446585891
    1.255258765    6.157781695    3.718957063    4.442184980
    1.262437396    6.151686860    3.715551362    4.437771054
    1.269616027    6.145572753    3.712135721    4.433344261
    1.276794658    6.139439568    3.708710255    4.428904752
    1.283973289    6.133287502    3.705275080    4.424452678
    1.291151920    6.127116748    3.701830310    4.419988187
    1.298330551    6.120927501    3.698376058    4.415511428
    1.305509182    6.114719955    3.694912439    4.411022550
    1.312687813    6.108494304    3.691439565    4.406521701
    1.319866444    6.102250740    3.687957551    4.402009029
    1.327045075    6.095989458    3.684466507    4.397484682
    1.334223706    6.089710650    3.680966549    4.392948807
    1.341402337    6.083414508    3.677457786    4.388401551
    1.348580968    6.077101224    3.673940332    4.383843059
    1.355759599    6.070770990    3.670414298    4.379273478
    1.362938230    6.064423997    3.666879795    4.374692954
    1.370116861    6.058060437    3.663336934    4.370101632
    1.377295492    6.051680498    3.659785825    4.365499655
    1.384474124    6.045284373    3.656226580    4.360887169
    1.391652755    6.038872249    3.652659307    4.356264318
    1.398831386    6.032444317    3.649084116    4.351631244
    1.406010017    6.026000764    3.645501116    4.346988091
    1.413188648    6.019541781    3.641910417    4.342335001
    1.420367279    6.013067553    3.638312127    4.337672117
    1.427545910    6.006578269    3.634706353    4.332999579
    1.434724541    6.000074116    3.631093203    4.328317528
    1.441903172    5.993555280    3.627472785    4.323626107
    1.449081803    5.987021947    3.623845206    4.318925453
    1.456260434    5.980474303    3.620210572    4.314215708
    1.463439065    5.973912532    3.616568989    4.309497009
    1.470617696    5.967336819    3.612920563    4.304769497
    1.477796327    5.960747348    3.609265399    4.300033308
    1.484974958    5.954144303    3.605603603    4.295288581
    1.492153589    5.947527865    3.601935279    4.290535452
    1.499332220    5.940898219    3.598260531    4.285774058
    1.506510851    5.934255544    3.594579463    4.281004535
    1.513689482    5.927600023    3.590892178    4.276227019
    1.520868114    5.920931837    3.587198778    4.271441644
    1.528046745    5.914251164    3.583499367    4.266648545
    1.535225376    5.907558186    3.579794047    4.261847855
    1.542404007    5.900853081    3.576082919    4.257039709
    1.549582638    5.894136026    3.572366084    4.252224238
    1.556761269    5.887407201    3.568643643    4.247401575
    1.563939900    5.880666782    3.564915696    4.242571851
    1.571118531    5.873914946    3.561182343    4.237735198
    1.578297162    5.867151868    3.557443684    4.232891746
    1.585475793    5.860377724    3.553699818    4.228041625
    1.592654424    5.853592689    3.549950842    4.223184964
    1.599833055    5.846796937    3.546196856    4.218321891
    1.607011686    5.839990640    3.542437957    4.213452536
    1.614190317    5.833173973    3.538674241    4.208577026
    1.621368948    5.826347107    3.534905806    4.203695487
    1.628547579    5.819510213    3.531132748    4.198808046
    1.635726210    5.812663462    3.527355162    4.193914828
    1.642904841    5.805807025    3.523573144    4.189015960
    1.650083472    5.798941071    3.519786789    4.184111565
    1.657262104    5.792065769    3.515996191    4.179201767
    1.664440735    5.785181286    3.512201444    4.174286690
    1.671619366    5.778287791    3.508402642    4.169366456
    1.678797997    5.771385450    3.504599877    4.164441188
    1.685976628    5.764474428    3.500793241    4.159511007
    1.693155259    5.757554893    3.496982828    4.154576033
    1.700333890    5.750627007    3.493168727    4.149636388
    1.707512521    5.743690935    3.489351031    4.144692190
    1.714691152    5.736746840    3.485529830    4.139743559
    1.721869783    5.729794885    3.481705214    4.134790613
    1.729048414    5.722835232    3.477877272    4.129833469
    1.736227045    5.715868041    3.474046094    4.124872245
    1.743405676    5.708893473    3.470211768    4.119907057
    1.750584307    5.701911688    3.466374382    4.114938021
    1.757762938    5.694922843    3.462534024    4.109965253
    1.764941569    5.687927099    3.458690781    4.104988865
    1.772120200    5.680924611    3.454844739    4.100008973
    1.779298831    5.673915536    3.450995985    4.095025690
    1.786477462    5.666900031    3.447144605    4.090039128
    1.793656093    5.659878250    3.443290683    4.085049399
    1.800834725    5.652850348    3.439434303    4.080056615
    1.808013356    5.645816479    3.435575551    4.075060885
    1.815191987    5.638776794    3.431714510    4.070062321
    1.822370618    5.631731448    3.427851263    4.065061031
    1.829549249    5.624680589    3.423985892    4.060057123
    1.836727880    5.617624370    3.420118480    4.055050706
    1.843906511    5.610562941    3.416249108    4.050041888
    1.851085142    5.603496449    3.412377857    4.045030774
    1.858263773    5.596425043    3.408504809    4.040017472
    1.865442404    5.589348871    3.404630043    4.035002085
    1.872621035    5.582268080    3.400753638    4.029984720
    1.879799666    5.575182814    3.396875674    4.024965479
    1.886978297    5.568093220    3.392996230    4.019944467
    1.894156928    5.560999442    3.389115384    4.014921786
    1.901335559    5.553901622    3.385233212    4.009897538
    1.908514190    5.546799905    3.381349793    4.004871824
    1.915692821    5.539694431    3.377465202    3.999844745
    1.922871452    5.532585342    3.373579517    3.994816402
    1.930050083    5.525472779    3.369692812    3.989786893
    1.937228715    5.518356880    3.365805163    3.984756318
    1.944407346    5.511237785    3.361916643    3.979724774
    1.951585977    5.504115631    3.358027328    3.974692359
    1.958764608    5.496990556    3.354137291    3.969659169
    1.965943239    5.489862696    3.350246604    3.964625301
    1.973121870    5.482732187    3.346355341    3.959590850
    1.980300501    5.475599163    3.342463574    3.954555911
    1.987479132    5.468463757    3.338571373    3.949520578
    1.994657763    5.461326105    3.334678810    3.944484944
    2.001836394    5.454186336    3.330785956    3.939449102
    2.009015025    5.447044584    3.326892881    3.934413144
    2.016193656    5.439900979    3.322999653    3.929377161
    2.023372287    5.432755650    3.319106343    3.924341246
    2.030550918    5.425608728    3.315213019    3.919305486
    2.037729549    5.418460339    3.311319748    3.914269973
    2.044908180    5.411310611    3.307426599    3.909234794
    2.052086811    5.404159672    3.303533638    3.904200039
    2.059265442    5.397007647    3.299640932    3.899165793
    2.066444073    5.389854661    3.295748548    3.894132145
    2.073622705    5.382700838    3.291856549    3.889099181
    2.080801336    5.375546302    3.287965003    3.884066985
    2.087979967    5.368391175    3.284073972    3.879035644
    2.095158598    5.361235579    3.280183522    3.874005240
    2.102337229    5.354079635    3.276293716    3.868975858
    2.109515860    5.346923464    3.272404617    3.863947581
    2.116694491    5.339767184    3.268516288    3.858920490
    2.123873122    5.332610914    3.264628790    3.853894668
    2.131051753    5.325454772    3.260742186    3.848870196
    2.138230384    5.318298874    3.256856537    3.843847153
    2.145409015    5.311143338    3.252971902    3.838825620
    2.152587646    5.303988278    3.249088343    3.833805676
    2.159766277    5.296833809    3.245205919    3.828787398
    2.166944908    5.289680044    3.241324690    3.823770866
    2.174123539    5.282527097    3.237444714    3.818756155
    2.181302170    5.275375079    3.233566049    3.813743343
    2.188480801    5.268224102    3.229688753    3.808732505
    2.195659432    5.261074276    3.225812883    3.803723717
    2.202838063    5.253925712    3.221938497    3.798717053
    2.210016694    5.246778517    3.218065651    3.793712588
    2.217195326    5.239632801    3.214194400    3.788710394
    2.224373957    5.232488670    3.210324800    3.783710544
    2.231552588    5.225346231    3.206456906    3.778713111
    2.238731219    5.218205589    3.202590773    3.773718166
    2.245909850    5.211066850    3.198726454    3.768725780
    2.253088481    5.203930118    3.194864003    3.763736023
    2.260267112    5.196795496    3.191003473    3.758748964
    2.267445743    5.189663086    3.187144917    3.753764673
    2.274624374    5.182532991    3.183288386    3.748783219
    2.281803005    5.175405311    3.179433933    3.743804668
    2.288981636    5.168280146    3.175581609    3.738829089
    2.296160267    5.161157597    3.171731465    3.733856548
    2.303338898    5.154037762    3.167883551    3.728887110
    2.310517529    5.146920738    3.164037916    3.723920842
    2.317696160    5.139806622    3.160194611    3.718957807
    2.324874791    5.132695511    3.156353684    3.713998071
    2.332053422    5.125587501    3.152515184    3.709041696
    2.339232053    5.118482687    3.148679159    3.704088747
    2.346410684    5.111381161    3.144845657    3.699139284
    2.353589316    5.104283018    3.141014724    3.694193371
    2.360767947    5.097188350    3.137186408    3.689251068
    2.367946578    5.090097248    3.133360755    3.684312435
    2.375125209    5.083009804    3.129537811    3.679377534
    2.382303840    5.075926108    3.125717621    3.674446424
    2.389482471    5.068846249    3.121900231    3.669519162
    2.396661102    5.061770316    3.118085684    3.664595809
    2.403839733    5.054698397    3.114274025    3.659676421
    2.411018364    5.047630579    3.110465299    3.654761056
    2.418196995    5.040566948    3.106659547    3.649849771
    2.425375626    5.033507591    3.102856814    3.644942621
    2.432554257    5.026452591    3.099057141    3.640039662
    2.439732888    5.019402034    3.095260570    3.635140949
    2.446911519    5.012356002    3.091467144    3.630246536
    2.454090150    5.005314579    3.087676904    3.625356478
    2.461268781    4.998277847    3.083889889    3.620470827
    2.468447412    4.991245886    3.080106141    3.615589636
    2.475626043    4.984218777    3.076325700    3.610712958
    2.482804674    4.977196600    3.072548605    3.605840844
    2.489983306    4.970179435    3.068774896    3.600973345
    2.497161937    4.963167358    3.065004610    3.596110512
    2.504340568    4.956160450    3.061237787    3.591252395
    2.511519199    4.949158785    3.057474465    3.586399043
    2.518697830    4.942162440    3.053714680    3.581550506
    2.525876461    4.935171491    3.049958471    3.576706831
    2.533055092    4.928186013    3.046205874    3.571868067
    2.540233723    4.921206080    3.042456925    3.567034261
