# energy grid [eV]     epsr_x  epsr_y  epsr_z
#
    0.200000000    5.854389756    7.253353141    9.195189448
    0.207178631    5.855421795    7.254761121    9.196691199
    0.214357262    5.856490803    7.256219615    9.198246618
    0.221535893    5.857596840    7.257728713    9.199855779
    0.228714524    5.858739969    7.259288510    9.201518760
    0.235893155    5.859920257    7.260899105    9.203235644
    0.243071786    5.861137769    7.262560598    9.205006512
    0.250250417    5.862392576    7.264273095    9.206831451
    0.257429048    5.863684749    7.266036704    9.208710551
    0.264607679    5.865014363    7.267851538    9.210643904
    0.271786311    5.866381494    7.269717710    9.212631605
    0.278964942    5.867786220    7.271635341    9.214673751
    0.286143573    5.869228623    7.273604552    9.216770444
    0.293322204    5.870708786    7.275625470    9.218921786
    0.300500835    5.872226794    7.277698224    9.221127885
    0.307679466    5.873782735    7.279822948    9.223388850
    0.314858097    5.875376699    7.281999778    9.225704795
    0.322036728    5.877008780    7.284228855    9.228075833
    0.329215359    5.878679071    7.286510324    9.230502086
    0.336393990    5.880387671    7.288844334    9.232983674
    0.343572621    5.882134679    7.291231035    9.235520722
    0.350751252    5.883920198    7.293670585    9.238113360
    0.357929883    5.885744333    7.296163143    9.240761717
    0.365108514    5.887607190    7.298708874    9.243465930
    0.372287145    5.889508879    7.301307944    9.246226136
    0.379465776    5.891449513    7.303960528    9.249042477
    0.386644407    5.893429207    7.306666800    9.251915097
    0.393823038    5.895448078    7.309426941    9.254844145
    0.401001669    5.897506246    7.312241136    9.257829772
    0.408180301    5.899603834    7.315109573    9.260872134
    0.415358932    5.901740967    7.318032447    9.263971389
    0.422537563    5.903917773    7.321009955    9.267127701
    0.429716194    5.906134384    7.324042299    9.270341234
    0.436894825    5.908390931    7.327129686    9.273612159
    0.444073456    5.910687553    7.330272328    9.276940649
    0.451252087    5.913024387    7.333470440    9.280326882
    0.458430718    5.915401575    7.336724243    9.283771040
    0.465609349    5.917819263    7.340033964    9.287273307
    0.472787980    5.920277598    7.343399832    9.290833873
    0.479966611    5.922776730    7.346822084    9.294452932
    0.487145242    5.925316814    7.350300960    9.298130680
    0.494323873    5.927898004    7.353836707    9.301867321
    0.501502504    5.930520462    7.357429574    9.305663061
    0.508681135    5.933184349    7.361079819    9.309518109
    0.515859766    5.935889831    7.364787703    9.313432681
    0.523038397    5.938637077    7.368553495    9.317406998
    0.530217028    5.941426259    7.372377467    9.321441283
    0.537395659    5.944257553    7.376259898    9.325535765
    0.544574290    5.947131135    7.380201074    9.329690680
    0.551752922    5.950047190    7.384201284    9.333906265
    0.558931553    5.953005900    7.388260826    9.338182766
    0.566110184    5.956007456    7.392380003    9.342520431
    0.573288815    5.959052049    7.396559125    9.346919515
    0.580467446    5.962139874    7.400798507    9.351380278
    0.587646077    5.965271130    7.405098473    9.355902987
    0.594824708    5.968446020    7.409459353    9.360487912
    0.602003339    5.971664751    7.413881482    9.365135332
    0.609181970    5.974927531    7.418365204    9.369845529
    0.616360601    5.978234575    7.422910872    9.374618792
    0.623539232    5.981586101    7.427518842    9.379455419
    0.630717863    5.984982329    7.432189482    9.384355711
    0.637896494    5.988423484    7.436923166    9.389319977
    0.645075125    5.991909797    7.441720275    9.394348533
    0.652253756    5.995441500    7.446581202    9.399441703
    0.659432387    5.999018831    7.451506343    9.404599816
    0.666611018    6.002642032    7.456496109    9.409823211
    0.673789649    6.006311347    7.461550915    9.415112233
    0.680968280    6.010027029    7.466671188    9.420467237
    0.688146912    6.013789331    7.471857363    9.425888583
    0.695325543    6.017598512    7.477109887    9.431376643
    0.702504174    6.021454837    7.482429215    9.436931795
    0.709682805    6.025358573    7.487815813    9.442554428
    0.716861436    6.029309994    7.493270159    9.448244941
    0.724040067    6.033309377    7.498792741    9.454003741
    0.731218698    6.037357006    7.504384059    9.459831246
    0.738397329    6.041453169    7.510044625    9.465727884
    0.745575960    6.045598158    7.515774962    9.471694095
    0.752754591    6.049792273    7.521575609    9.477730331
    0.759933222    6.054035815    7.527447116    9.483837053
    0.767111853    6.058329095    7.533390047    9.490014738
    0.774290484    6.062672427    7.539404980    9.496263873
    0.781469115    6.067066132    7.545492509    9.502584961
    0.788647746    6.071510535    7.551653243    9.508978516
    0.795826377    6.076005968    7.557887807    9.515445070
    0.803005008    6.080552770    7.564196844    9.521985169
    0.810183639    6.085151285    7.570581013    9.528599374
    0.817362270    6.089801863    7.577040992    9.535288265
    0.824540902    6.094504862    7.583577479    9.542052438
    0.831719533    6.099260645    7.590191190    9.548892510
    0.838898164    6.104069583    7.596882864    9.555809115
    0.846076795    6.108932054    7.603653262    9.562802909
    0.853255426    6.113848442    7.610503166    9.569874571
    0.860434057    6.118819139    7.617433387    9.577024801
    0.867612688    6.123844545    7.624444756    9.584254325
    0.874791319    6.128925068    7.631538134    9.591563893
    0.881969950    6.134061123    7.638714412    9.598954285
    0.889148581    6.139253134    7.645974508    9.606426308
    0.896327212    6.144501532    7.653319374    9.613980801
    0.903505843    6.149806759    7.660749994    9.621618634
    0.910684474    6.155169264    7.668267390    9.629340715
    0.917863105    6.160589506    7.675872621    9.637147987
    0.925041736    6.166067954    7.683566786    9.645041433
    0.932220367    6.171605086    7.691351028    9.653022081
    0.939398998    6.177201390    7.699226535    9.661091002
    0.946577629    6.182857366    7.707194547    9.669249318
    0.953756260    6.188573523    7.715256352    9.677498203
    0.960934891    6.194350382    7.723413300    9.685838889
    0.968113523    6.200188477    7.731666798    9.694272667
    0.975292154    6.206088353    7.740018321    9.702800898
    0.982470785    6.212050565    7.748469412    9.711425013
    0.989649416    6.218075686    7.757021693    9.720146521
    0.996828047    6.224164300    7.765676868    9.728967017
    1.004006678    6.230317004    7.774436730    9.737888188
    1.011185309    6.236534412    7.783303170    9.746911822
    1.018363940    6.242817153    7.792278187    9.756039817
    1.025542571    6.249165871    7.801363896    9.765274194
    1.032721202    6.255581227    7.810562537    9.774617107
    1.039899833    6.262063902    7.819876493    9.784070855
    1.047078464    6.268614593    7.829308301    9.793637902
    1.054257095    6.275234018    7.838860668    9.803320889
    1.061435726    6.281922914    7.848536489    9.813122660
    1.068614357    6.288682042    7.858338869    9.823046279
    1.075792988    6.295512185    7.868271147    9.833095058
    1.082971619    6.302414149    7.878336920    9.843272590
    1.090150250    6.309388769    7.888540081    9.853582778
    1.097328881    6.316436904    7.898884849    9.864029881
    1.104507513    6.323559445    7.909375816    9.874618553
    1.111686144    6.330757313    7.920017991    9.885353906
    1.118864775    6.338031463    7.930816866    9.896241567
    1.126043406    6.345382886    7.941778477    9.907287756
    1.133222037    6.352812613    7.952909487    9.918499375
    1.140400668    6.360321716    7.964217283    9.929884112
    1.147579299    6.367911313    7.975710089    9.941450569
    1.154757930    6.375582572    7.987397104    9.953208413
    1.161936561    6.383336717    7.999288669    9.965168561
    1.169115192    6.391175031    8.011396467    9.977343406
    1.176293823    6.399098863    8.023733775    9.989747087
    1.183472454    6.407109638    8.036315768   10.002395835
    1.190651085    6.415208863    8.049159897   10.015308390
    1.197829716    6.423398139    8.062286371   10.028506536
    1.205008347    6.431679173    8.075718756   10.042015769
    1.212186978    6.440053794    8.089484748   10.055866156
    1.219365609    6.448523972    8.103617160   10.070093438
    1.226544240    6.457091843    8.118155218   10.084740474
    1.233722871    6.465759736    8.133146259   10.099859132
    1.240901503    6.474530216    8.148647990   10.115512816
    1.248080134    6.483406129    8.164731541   10.131779875
    1.255258765    6.492390674    8.181485622   10.148758248
    1.262437396    6.501487488    8.199022262   10.166571881
    1.269616027    6.510700770    8.217484823   10.185379692
    1.276794658    6.520035445    8.237059274   10.205388184
    1.283973289    6.529497398    8.257990088   10.226869235
    1.291151920    6.539093792    8.280602385   10.250184888
    1.298330551    6.548833482    8.305331313   10.275820248
    1.305509182    6.558727495    8.332755206   10.304420591
    1.312687813    6.568789245    8.363609487   10.336806903
    1.319866444    6.579033154    8.398680589   10.373856914
    1.327045075    6.589466206    8.438170938   10.415793289
    1.334223706    6.600050683    8.478910143   10.459057812
    1.341402337    6.610561763    8.503708130   10.484378173
    1.348580968    6.620250284    8.456147670   10.428515103
    1.355759599    6.628441366    8.285311442   10.234392593
    1.362938230    6.637138057    8.140341217   10.069161005
    1.370116861    6.647662338    8.119411348   10.042844416
    1.377295492    6.659095090    8.153134373   10.077660367
    1.384474124    6.670849297    8.196836525   10.123523127
    1.391652755    6.682778110    8.238611074   10.167069253
    1.398831386    6.694872291    8.276679395   10.206282787
    1.406010017    6.707156090    8.311572371   10.241730891
    1.413188648    6.719661647    8.344168417   10.274363179
    1.420367279    6.732424181    8.375268629   10.305033241
    1.427545910    6.745482483    8.405545883   10.334438410
    1.434724541    6.758880948    8.435577815   10.363152246
    1.441903172    6.772672400    8.465893838   10.391670890
    1.449081803    6.786921758    8.497022425   10.420457052
    1.456260434    6.801710873    8.529539155   10.449981160
    1.463439065    6.817144879    8.564118790   10.480762481
    1.470617696    6.833359950    8.601591221   10.513410963
    1.477796327    6.850530044    8.642983548   10.548659423
    1.484974958    6.868860828    8.689460475   10.587331361
    1.492153589    6.888521744    8.741799148   10.630015649
    1.499332220    6.909318868    8.797938609   10.675528511
    1.506510851    6.929366644    8.843121642   10.714707572
    1.513689482    6.941068123    8.820142405   10.711667425
    1.520868114    6.931231378    8.630102603   10.604291933
    1.528046745    6.915465473    8.386227887   10.464261182
    1.535225376    6.924051363    8.309394567   10.431213904
    1.542404007    6.949488744    8.340794591   10.468579418
    1.549582638    6.981157876    8.398370692   10.525160875
    1.556761269    7.015633355    8.456030879   10.584631908
    1.563939900    7.050076520    8.508289043   10.641316121
    1.571118531    7.072950580    8.552796096   10.681831382
    1.578297162    7.046872635    8.582536751   10.663092186
    1.585475793    6.939829618    8.591610410   10.548254833
    1.592654424    6.851623718    8.602309510   10.454100970
    1.599833055    6.844120387    8.628560339   10.453076194
    1.607011686    6.871412820    8.660921141   10.491868123
    1.614190317    6.904755818    8.693539424   10.537126781
    1.621368948    6.936559661    8.725043026   10.580137528
    1.628547579    6.965712124    8.755399923   10.619714503
    1.635726210    6.992563779    8.784853839   10.656360671
    1.642904841    7.017672496    8.813665520   10.690810058
    1.650083472    7.041531522    8.842063107   10.723715875
    1.657262104    7.064535767    8.870242087   10.755615940
    1.664440735    7.087000292    8.898375557   10.786958962
    1.671619366    7.109185861    8.926625807   10.818139631
    1.678797997    7.131322178    8.955155834   10.849532138
    1.685976628    7.153628326    8.984141383   10.881522271
    1.693155259    7.176331795    9.013784362   10.914540298
    1.700333890    7.199686702    9.044327570   10.949095063
    1.707512521    7.223987228    9.076066132   10.985800132
    1.714691152    7.249554470    9.109333102   11.025344946
    1.721869783    7.276605154    9.144365608   11.068214642
    1.729048414    7.304634050    9.180675808   11.113369640
    1.736227045    7.329930708    9.214518841   11.152928764
    1.743405676    7.338156382    9.231319615   11.156266054
    1.750584307    7.305135172    9.206475096   11.071696044
    1.757762938    7.260163191    9.169920446   10.962062163
    1.764941569    7.256725821    9.176092241   10.941669358
    1.772120200    7.279317006    9.208227218   10.975348950
    1.779298831    7.307023540    9.241509038   11.011158044
    1.786477462    7.332227061    9.263221752   11.022643887
    1.793656093    7.355977253    9.282630228   11.028806860
    1.800834725    7.381173738    9.313128817   11.057198265
    1.808013356    7.406955198    9.349684929   11.097449891
    1.815191987    7.432445187    9.387267413   11.139148845
    1.822370618    7.457304976    9.423657884   11.177480932
    1.829549249    7.481003656    9.456140300   11.206180486
    1.836727880    7.503528627    9.484305280   11.224247855
    1.843906511    7.526726386    9.515552471   11.248721013
    1.851085142    7.551098393    9.551762366   11.283889286
    1.858263773    7.576037705    9.590228911   11.323402446
    1.865442404    7.601310023    9.629658925   11.363928127
    1.872621035    7.626929415    9.669127562   11.401945972
    1.879799666    7.652984852    9.705798050   11.426113498
    1.886978297    7.679592958    9.734801767   11.417114668
    1.894156928    7.706900515    9.762416717   11.398169191
    1.901335559    7.735088241    9.800349384   11.413098029
    1.908514190    7.764367158    9.845902856   11.450323193
    1.915692821    7.794975636    9.895334971   11.494031825
    1.922871452    7.827087089    9.947743543   11.539368016
    1.930050083    7.860364997   10.002647321   11.584789640
    1.937228715    7.892178267   10.056677222   11.626082090
    1.944407346    7.912321966   10.095951348   11.647085324
    1.951585977    7.904050738   10.097516715   11.621151722
    1.958764608    7.889111816   10.092814951   11.583104138
    1.965943239    7.904581799   10.134945010   11.592216625
    1.973121870    7.939319251   10.208506742   11.630689489
    1.980300501    7.979186546   10.290610241   11.676216442
    1.987479132    8.017749169   10.355455857   11.720123034
    1.994657763    8.046602088   10.334127143   11.754542899
    2.001836394    8.056844725   10.152041586   11.771691425
    2.009015025    8.065157037    9.980457168   11.785765477
    2.016193656    8.084063832    9.961735623   11.807187984
    2.023372287    8.111213039   10.018601707   11.835046354
    2.030550918    8.148097645   10.097635711   11.871942335
    2.037729549    8.189640796   10.178930306   11.913039216
    2.044908180    8.232630950   10.257067578   11.955146832
    2.052086811    8.276472538   10.332057304   11.997647497
    2.059265442    8.321403451   10.405208282   12.040627992
    2.066444073    8.367752749   10.477994934   12.083717301
    2.073622705    8.415378134   10.551828820   12.124002009
    2.080801336    8.462843251   10.627975252   12.152300778
    2.087979967    8.510021233   10.707474749   12.164755246
    2.095158598    8.563435871   10.790153065   12.186995893
    2.102337229    8.625182063   10.868340110   12.225905391
    2.109515860    8.690321769   10.909935401   12.263409422
    2.116694491    8.751403023   10.859642534   12.280095182
    2.123873122    8.808984081   10.780311560   12.285867771
    2.131051753    8.845255443   10.785371409   12.311617587
    2.138230384    8.766875357   10.812903327   12.346937086
    2.145409015    8.540023519   10.807518683   12.377780782
    2.152587646    8.404489891   10.832769885   12.415028944
    2.159766277    8.423975347   10.904679367   12.460652997
    2.166944908    8.493132708   10.982205237   12.503648595
    2.174123539    8.559463896   11.042756889   12.536981361
    2.181302170    8.625154075   11.106662624   12.573084082
    2.188480801    8.698042627   11.189664541   12.620689907
    2.195659432    8.772983006   11.282306810   12.674385402
    2.202838063    8.847387622   11.379144472   12.730969133
    2.210016694    8.921569751   11.479862781   12.790126078
    2.217195326    8.996656578   11.585517974   12.852408957
    2.224373957    9.073848147   11.696047517   12.918082716
    2.231552588    9.153885266   11.804773915   12.984923637
    2.238731219    9.235866547   11.885192012   13.042930705
    2.245909850    9.317621995   11.908688526   13.080503089
    2.253088481    9.399059082   11.940495870   13.118966328
    2.260267112    9.462679630   12.005895396   13.154053107
    2.267445743    9.480525040   12.032105111   13.141512305
    2.274624374    9.470350049   12.010353671   13.091564409
    2.281803005    9.413626442   11.891406758   12.975446014
    2.288981636    9.373446472   11.781415411   12.868805781
    2.296160267    9.434247487   11.822643721   12.881983656
    2.303338898    9.533597595   11.884000144   12.951653930
    2.310517529    9.609606920   11.830255712   13.017292824
    2.317696160    9.680239307   11.777741891   13.078677676
    2.324874791    9.768470997   11.853141257   13.153822131
    2.332053422    9.783461873   11.985328323   13.233567757
    2.339232053    9.627919948   12.115096945   13.299759259
    2.346410684    9.494837287   12.239745272   13.337689989
    2.353589316    9.528555410   12.367219354   13.354578528
    2.360767947    9.632739467   12.492399666   13.391619752
    2.367946578    9.716332168   12.599935125   13.440658835
    2.375125209    9.762774690   12.697317586   13.495450219
    2.382303840    9.724153010   12.776198689   13.547533731
    2.389482471    9.622362373   12.839732100   13.568264679
    2.396661102    9.626578911   12.945838784   13.563741067
    2.403839733    9.715519925   13.094176263   13.567992253
    2.411018364    9.837381010   13.264826803   13.607481365
    2.418196995    9.976929276   13.449389339   13.682655337
    2.425375626   10.120479693   13.641804111   13.769960535
    2.432554257   10.261017137   13.827919370   13.856189745
    2.439732888   10.386396556   13.944455931   13.927731878
    2.446911519   10.468162707   13.829711560   13.953942874
    2.454090150   10.526280472   13.495556066   13.942685659
    2.461268781   10.635518510   13.305124015   13.964781407
    2.468447412   10.783386263   13.378820684   14.032055544
    2.475626043   10.921778996   13.567198242   14.115576945
    2.482804674   11.002243113   13.752786206   14.199479575
    2.489983306   11.039970326   13.909849337   14.282563849
    2.497161937   11.137973863   14.062599859   14.368015422
    2.504340568   11.229739755   14.159821832   14.434464042
    2.511519199   11.136751890   14.199568466   14.437415021
    2.518697830   10.934978591   14.283243451   14.398974133
    2.525876461   10.950170355   14.451402911   14.425677269
    2.533055092   11.142431949   14.665233857   14.512645368
    2.540233723   11.373792407   14.892320033   14.619573610
