# energy grid [eV]     epsr_x  epsr_y  epsr_z
#
    0.200000000    7.266256489   13.557333857   12.231143655
    0.207178631    7.267563568   13.560315692   12.233836719
    0.214357262    7.268917562   13.563404723   12.236626510
    0.221535893    7.270318558   13.566601169   12.239513214
    0.228714524    7.271766648   13.569905259   12.242497025
    0.235893155    7.273261927   13.573317228   12.245578145
    0.243071786    7.274804492   13.576837323   12.248756783
    0.250250417    7.276394445   13.580465797   12.252033153
    0.257429048    7.278031890   13.584202913   12.255407479
    0.264607679    7.279716937   13.588048944   12.258879991
    0.271786311    7.281449697   13.592004170   12.262450927
    0.278964942    7.283230286   13.596068884   12.266120532
    0.286143573    7.285058823   13.600243384   12.269889059
    0.293322204    7.286935432   13.604527983   12.273756768
    0.300500835    7.288860238   13.608922999   12.277723929
    0.307679466    7.290833374   13.613428764   12.281790817
    0.314858097    7.292854972   13.618045619   12.285957717
    0.322036728    7.294925173   13.622773914   12.290224921
    0.329215359    7.297044119   13.627614012   12.294592731
    0.336393990    7.299211956   13.632566287   12.299061456
    0.343572621    7.301428835   13.637631123   12.303631414
    0.350751252    7.303694912   13.642808916   12.308302932
    0.357929883    7.306010346   13.648100074   12.313076344
    0.365108514    7.308375302   13.653505019   12.317951996
    0.372287145    7.310789947   13.659024181   12.322930240
    0.379465776    7.313254454   13.664658008   12.328011441
    0.386644407    7.315769003   13.670406957   12.333195971
    0.393823038    7.318333774   13.676271501   12.338484211
    0.401001669    7.320948956   13.682252127   12.343876555
    0.408180301    7.323614742   13.688349335   12.349373404
    0.415358932    7.326331328   13.694563640   12.354975171
    0.422537563    7.329098918   13.700895573   12.360682280
    0.429716194    7.331917720   13.707345681   12.366495163
    0.436894825    7.334787949   13.713914527   12.372414268
    0.444073456    7.337709823   13.720602690   12.378440049
    0.451252087    7.340683568   13.727410769   12.384572975
    0.458430718    7.343709415   13.734339378   12.390813526
    0.465609349    7.346787601   13.741389152   12.397162196
    0.472787980    7.349918372   13.748560746   12.403619487
    0.479966611    7.353101975   13.755854834   12.410185920
    0.487145242    7.356338670   13.763272112   12.416862024
    0.494323873    7.359628719   13.770813297   12.423648346
    0.501502504    7.362972393   13.778479132   12.430545444
    0.508681135    7.366369970   13.786270382   12.437553893
    0.515859766    7.369821737   13.794187838   12.444674282
    0.523038397    7.373327986   13.802232318   12.451907216
    0.530217028    7.376889021   13.810404667   12.459253316
    0.537395659    7.380505149   13.818705760   12.466713221
    0.544574290    7.384176692   13.827136504   12.474287587
    0.551752922    7.387903975   13.835697836   12.481977087
    0.558931553    7.391687336   13.844390730   12.489782415
    0.566110184    7.395527122   13.853216194   12.497704283
    0.573288815    7.399423690   13.862175278   12.505743426
    0.580467446    7.403377406   13.871269070   12.513900598
    0.587646077    7.407388649   13.880498701   12.522176578
    0.594824708    7.411457809   13.889865351   12.530572167
    0.602003339    7.415585287   13.899370247   12.539088193
    0.609181970    7.419771496   13.909014669   12.547725509
    0.616360601    7.424016864   13.918799954   12.556484995
    0.623539232    7.428321831   13.928727497   12.565367563
    0.630717863    7.432686851   13.938798762   12.574374153
    0.637896494    7.437112394   13.949015278   12.583505740
    0.645075125    7.441598946   13.959378652   12.592763333
    0.652253756    7.446147007   13.969890570   12.602147981
    0.659432387    7.450757098   13.980552809   12.611660768
    0.666611018    7.455429756   13.991367237   12.621302825
    0.673789649    7.460165537   14.002335827   12.631075326
    0.680968280    7.464965019   14.013460668   12.640979497
    0.688146912    7.469828802   14.024743966   12.651016614
    0.695325543    7.474757508   14.036188068   12.661188012
    0.702504174    7.479751784   14.047795465   12.671495089
    0.709682805    7.484812303   14.059568813   12.681939309
    0.716861436    7.489939766   14.071510947   12.692522210
    0.724040067    7.495134904   14.083624903   12.703245413
    0.731218698    7.500398480   14.095913935   12.714110625
    0.738397329    7.505731292   14.108381547   12.725119652
    0.745575960    7.511134174   14.121031515   12.736274408
    0.752754591    7.516608000   14.133867926   12.747576927
    0.759933222    7.522153689   14.146895213   12.759029375
    0.767111853    7.527772205   14.160118201   12.770634070
    0.774290484    7.533464563   14.173542158   12.782393495
    0.781469115    7.539231835   14.187172857   12.794310325
    0.788647746    7.545075155   14.201016648   12.806387447
    0.795826377    7.550995721   14.215080543   12.818627993
    0.803005008    7.556994807   14.229372315   12.831035374
    0.810183639    7.563073771   14.243900619   12.843613322
    0.817362270    7.569234059   14.258675137   12.856365941
    0.824540902    7.575477222   14.273706752   12.869297765
    0.831719533    7.581804925   14.289007759   12.882413834
    0.838898164    7.588218964   14.304592126   12.895719783
    0.846076795    7.594721284   14.320475809   12.909221952
    0.853255426    7.601313999   14.336677150   12.922927521
    0.860434057    7.607999421   14.353217371   12.936844682
    0.867612688    7.614780090   14.370121195   12.950982852
    0.874791319    7.621658817   14.387417641   12.965352948
    0.881969950    7.628638731   14.405141040   12.979967734
    0.889148581    7.635723345   14.423332350   12.994842275
    0.896327212    7.642916636   14.442040889   13.009994529
    0.903505843    7.650223153   14.461326618   13.025446133
    0.910684474    7.657648153   14.481263211   13.041223455
    0.917863105    7.665197791   14.501942216   13.057359020
    0.925041736    7.672879369   14.523478767   13.073893468
    0.932220367    7.680701681   14.546019523   13.090878273
    0.939398998    7.688675493   14.569753795   13.108379554
    0.946577629    7.696814214   14.594929260   13.126483461
    0.953756260    7.705134829   14.621874049   13.145303731
    0.960934891    7.713659176   14.651027037   13.164992066
    0.968113523    7.722415553   14.682976025   13.185751204
    0.975292154    7.731440188   14.718492611   13.207846856
    0.982470785    7.740776306   14.758507930   13.231599413
    0.989649416    7.750461251   14.803797038   13.257275918
    0.996828047    7.760463415   14.853438178   13.284562729
    1.004006678    7.770421302   14.898444465   13.310385828
    1.011185309    7.778770153   14.900452757   13.321616619
    1.018363940    7.781958334   14.772602104   13.288527165
    1.025542571    7.781505796   14.551741260   13.223732036
    1.032721202    7.786295065   14.454319427   13.201318159
    1.039899833    7.795955009   14.470980419   13.218085708
    1.047078464    7.807160234   14.520247622   13.246150202
    1.054257095    7.818685349   14.571828698   13.275146282
    1.061435726    7.830282361   14.619216097   13.302849652
    1.068614357    7.841959076   14.662068213   13.329146655
    1.075792988    7.853777243   14.701267810   13.354342937
    1.082971619    7.865805573   14.737754164   13.378763748
    1.090150250    7.878111702   14.772298936   13.402677257
    1.097328881    7.890763591   14.805503466   13.426293659
    1.104507513    7.903833163   14.837838527   13.449778818
    1.111686144    7.917400646   14.869684367   13.473268017
    1.118864775    7.931559592   14.901363534   13.496877225
    1.126043406    7.946423042   14.933167373   13.520712223
    1.133222037    7.962131524   14.965378791   13.544876427
    1.140400668    7.978863868   14.998294004   13.569478373
    1.147579299    7.996852090   15.032245871   13.594639724
    1.154757930    8.016401674   15.067631146   13.620504610
    1.161936561    8.037917522   15.104942540   13.647250595
    1.169115192    8.061930003   15.144799854   13.675099422
    1.176293823    8.089091186   15.187947632   13.704316765
    1.183472454    8.120014985   15.235080915   13.735155173
    1.190651085    8.154452025   15.285940346   13.767555181
    1.197829716    8.187808504   15.335491762   13.799880850
    1.205008347    8.198847759   15.360427999   13.824449730
    1.212186978    8.131849118   15.299586882   13.821047954
    1.219365609    7.985520922   15.151536001   13.789260093
    1.226544240    7.907098296   15.077847268   13.782684971
    1.233722871    7.915972289   15.099765069   13.808455968
    1.240901503    7.954176881   15.153613815   13.845603661
    1.248080134    7.997171585   15.212380686   13.885343551
    1.255258765    8.039688021   15.270173311   13.925942213
    1.262437396    8.081825628   15.326948573   13.967677243
    1.269616027    8.124974311   15.384027596   14.011369173
    1.276794658    8.170800116   15.442988280   14.058004947
    1.283973289    8.220711779   15.505164215   14.108425907
    1.291151920    8.274207857   15.570246406   14.162143479
    1.298330551    8.322092960   15.630564061   14.212449355
    1.305509182    8.323377017   15.651594255   14.229783725
    1.312687813    8.181105197   15.551567752   14.144335966
    1.319866444    7.925174223   15.355771383   13.977590688
    1.327045075    7.801732341   15.272005458   13.906654789
    1.334223706    7.810545227   15.300120185   13.931352759
    1.341402337    7.858098907   15.361237828   13.984395138
    1.348580968    7.908480271   15.425099034   14.039948425
    1.355759599    7.953855419   15.485148672   14.092391659
    1.362938230    7.993748611   15.541049765   14.141406224
    1.370116861    8.029162117   15.593723847   14.187745388
    1.377295492    8.061180906   15.644177477   14.232231602
    1.384474124    8.090702096   15.693279474   14.275563885
    1.391652755    8.118429387   15.741763826   14.318316815
    1.398831386    8.144919404   15.790279401   14.360978171
    1.406010017    8.170629785   15.839445261   14.403989572
    1.413188648    8.195959947   15.889905187   14.447784081
    1.420367279    8.221285016   15.942381739   14.492821110
    1.427545910    8.246983068   15.997723259   14.539616179
    1.434724541    8.273446873   16.056902062   14.588746013
    1.441903172    8.301035492   16.120782643   14.640741693
    1.449081803    8.329779821   16.188924808   14.695513595
    1.456260434    8.358120029   16.254582363   14.749930392
    1.463439065    8.378659448   16.287982776   14.789710595
    1.470617696    8.374519116   16.221998595   14.782476516
    1.477796327    8.353892416   16.088060112   14.743739323
    1.484974958    8.359458975   16.053959222   14.755246780
    1.492153589    8.386996581   16.107565831   14.811384769
    1.499332220    8.411369903   16.171384560   14.874503058
    1.506510851    8.401954607   16.182792857   14.913410708
    1.513689482    8.354278155   16.131818246   14.923981112
    1.520868114    8.334420063   16.124039102   14.962584928
    1.528046745    8.354541371   16.179499834   15.041086709
    1.535225376    8.388413193   16.256948115   15.139047450
    1.542404007    8.424277493   16.337958696   15.245283664
    1.549582638    8.458207443   16.415389626   15.341886200
    1.556761269    8.484488257   16.474915397   15.361824973
    1.563939900    8.491397335   16.485985036   15.160133463
    1.571118531    8.486061164   16.467184124   14.817683558
    1.578297162    8.498441515   16.496146177   14.690742362
    1.585475793    8.525671359   16.561472839   14.745596319
    1.592654424    8.554319344   16.612511996   14.835274444
    1.599833055    8.574705260   16.589181441   14.879862741
    1.607011686    8.588811790   16.510647599   14.883329242
    1.614190317    8.611820486   16.501682777   14.926499100
    1.621368948    8.643428021   16.557561994   15.007880854
    1.628547579    8.677712215   16.631709134   15.098678172
    1.635726210    8.709499645   16.705959287   15.186941845
    1.642904841    8.726987943   16.772675766   15.261373330
    1.650083472    8.715627476   16.825014209   15.292106779
    1.657262104    8.698541278   16.868780766   15.259927942
    1.664440735    8.708216271   16.921483367   15.247833620
    1.671619366    8.738821764   16.985567071   15.295786756
    1.678797997    8.776522986   17.054489153   15.367978969
    1.685976628    8.816143693   17.125600094   15.444433733
    1.693155259    8.856717273   17.198663690   15.520338207
    1.700333890    8.897618209   17.273139291   15.594936798
    1.707512521    8.935203195   17.344525727   15.666681446
    1.714691152    8.959528000   17.400253126   15.730678289
    1.721869783    8.972873223   17.442743484   15.788769125
    1.729048414    9.003486146   17.505057164   15.857050476
    1.736227045    9.051947105   17.577647156   15.936014446
    1.743405676    9.102685089   17.623388897   16.017243111
    1.750584307    9.142936251   17.646787558   16.097391828
    1.757762938    9.145791876   17.646863117   16.168564924
    1.764941569    9.105191601   17.566174507   16.224727433
    1.772120200    9.081243563   17.466398149   16.270842729
    1.779298831    9.033339791   17.441974499   16.230707905
    1.786477462    8.911317642   17.453702164   16.059665686
    1.793656093    8.841739525   17.494530728   15.942701534
    1.800834725    8.860103160   17.560543878   15.934082739
    1.808013356    8.919189192   17.646641921   15.997423908
    1.815191987    8.992554145   17.745382273   16.098462500
    1.822370618    9.067853048   17.846822277   16.207806571
    1.829549249    9.137533605   17.945361873   16.314676182
    1.836727880    9.180296977   18.027909621   16.410174160
    1.843906511    9.143370170   18.057507111   16.469675327
    1.851085142    9.032136351   18.014493549   16.468446994
    1.858263773    8.983799280   17.990357004   16.467026352
    1.865442404    9.017367228   18.041639555   16.527123761
    1.872621035    9.079476058   18.129443373   16.622362622
    1.879799666    9.146394065   18.225517340   16.728208059
    1.886978297    9.212947660   18.322380525   16.837506125
    1.894156928    9.278463495   18.419302516   16.945743804
    1.901335559    9.340250029   18.516478594   17.035369897
    1.908514190    9.388147555   18.612463535   17.055276830
    1.915692821    9.418572653   18.706275625   16.990141519
    1.922871452    9.455597713   18.798575095   16.975618867
    1.930050083    9.479620997   18.864306210   17.028693700
    1.937228715    9.432638543   18.853827424   17.056775537
    1.944407346    9.348026821   18.795026239   17.048225081
    1.951585977    9.322991934   18.788562660   17.072048983
    1.958764608    9.368616829   18.862903116   17.154628246
    1.965943239    9.434052738   18.973527648   17.258094258
    1.973121870    9.468277171   19.090135788   17.345315087
    1.980300501    9.445510618   19.204135945   17.399685996
    1.987479132    9.440916867   19.324557478   17.462585672
    1.994657763    9.494371568   19.457477846   17.556763112
    2.001836394    9.569711717   19.597827954   17.664659472
    2.009015025    9.633026503   19.729715827   17.775556989
    2.016193656    9.646686144   19.818122965   17.884953329
    2.023372287    9.625888427   19.871121336   17.991886087
    2.030550918    9.633527203   19.915146151   18.090596691
    2.037729549    9.621674538   19.802172064   18.151032153
    2.044908180    9.563149008   19.491382990   18.164877701
    2.052086811    9.525244012   19.257421695   18.172120726
    2.059265442    9.527313743   19.192830749   18.193979215
    2.066444073    9.570035163   19.274331383   18.266982807
    2.073622705    9.625495873   19.422340207   18.363784537
    2.080801336    9.674432181   19.577483663   18.456632875
    2.087979967    9.731350340   19.731403893   18.565625451
    2.095158598    9.797795964   19.881236133   18.687743058
    2.102337229    9.864725181   20.017121490   18.794853815
    2.109515860    9.927918527   20.133275704   18.871221137
    2.116694491    9.989697756   20.246408476   18.956930539
    2.123873122   10.038933143   20.339561006   19.051347917
    2.131051753   10.047063297   20.354616980   19.095154827
    2.138230384   10.033845583   20.343749962   19.116765276
    2.145409015   10.042588763   20.414597717   19.193397991
    2.152587646   10.071702687   20.537702379   19.307966204
    2.159766277   10.127428112   20.669730717   19.435286308
    2.166944908   10.188191011   20.782945171   19.535019533
    2.174123539   10.241868203   20.877282138   19.604429572
    2.181302170   10.298510564   20.991558410   19.711709341
    2.188480801   10.327281479   21.126385063   19.858121598
    2.195659432   10.290530666   21.261463166   20.007550944
    2.202838063   10.264746677   21.384285930   20.127043254
    2.210016694   10.304037997   21.500605933   20.196730602
    2.217195326   10.375732070   21.626980237   20.259507128
    2.224373957   10.444984392   21.751439649   20.359457233
    2.231552588   10.473659938   21.827992252   20.450926832
    2.238731219   10.449770192   21.842586044   20.546858637
    2.245909850   10.407764194   21.819586595   20.688783308
    2.253088481   10.413658042   21.852870910   20.865664884
    2.260267112   10.480063738   21.985914078   21.059358146
    2.267445743   10.570339358   22.164073178   21.261916135
    2.274624374   10.658442085   22.346354148   21.469551939
    2.281803005   10.718304608   22.502885305   21.673596182
    2.288981636   10.725402372   22.617250134   21.860060457
    2.296160267   10.724125967   22.704829365   22.018153766
    2.303338898   10.772181932   22.794975503   22.171341901
    2.310517529   10.854225487   22.946966225   22.380637130
    2.317696160   10.931947385   23.122832988   22.589066813
    2.324874791   10.960107788   23.226071170   22.657895858
    2.332053422   10.949349540   23.241460490   22.631654125
    2.339232053   10.961459665   23.223034181   22.699859099
    2.346410684   10.980116599   23.176281400   22.781690696
    2.353589316   11.018834250   23.216337091   22.888881870
    2.360767947   11.099465813   23.376742188   23.043293134
    2.367946578   11.191684114   23.551745674   22.964591038
    2.375125209   11.268037355   23.664407605   22.626335768
    2.382303840   11.321408963   23.739115023   22.512981871
    2.389482471   11.333787982   23.785321582   22.662911720
    2.396661102   11.290649982   23.843658521   22.872603346
    2.403839733   11.248440853   23.975087271   23.100969875
    2.411018364   11.263914163   24.150405497   23.373605108
    2.418196995   11.317821338   24.333768957   23.643797133
    2.425375626   11.406652023   24.536889509   23.932410454
    2.432554257   11.508100913   24.749280004   24.224933978
    2.439732888   11.605914162   24.949945648   24.481313995
    2.446911519   11.704081445   25.148647706   24.741437174
    2.454090150   11.806502961   25.357626496   25.027624332
    2.461268781   11.903328122   25.558876654   25.281844562
    2.468447412   11.993201412   25.766835111   25.564600825
    2.475626043   12.068199560   25.984660625   25.924046725
    2.482804674   12.131390091   26.182888735   26.329589921
    2.489983306   12.178551089   26.356411157   26.760134738
    2.497161937   12.234030356   26.559059715   27.204755206
    2.504340568   12.324482072   26.771244617   27.646459493
    2.511519199   12.433378425   26.976498645   28.104301006
    2.518697830   12.565192373   27.217341271   28.648577568
    2.525876461   12.695315861   27.447656456   29.250752810
    2.533055092   12.825737721   27.671890370   29.880068898
    2.540233723   12.960745499   27.925559132   30.461662880
