# energy grid [eV]     ieps_x  ieps_y  ieps_z
#
    0.200000000   10.105723365    5.887631033   10.450478257
    0.207178631   10.103165568    5.886377019   10.447862668
    0.214357262   10.100520414    5.885080142   10.445157325
    0.221535893   10.097788177    5.883740532   10.442362473
    0.228714524   10.094969139    5.882358324   10.439478362
    0.235893155   10.092063587    5.880933657   10.436505247
    0.243071786   10.089071814    5.879466670   10.433443390
    0.250250417   10.085994119    5.877957507   10.430293058
    0.257429048   10.082830805    5.876406315   10.427054524
    0.264607679   10.079582183    5.874813241   10.423728068
    0.271786311   10.076248568    5.873178437   10.420313972
    0.278964942   10.072830277    5.871502056   10.416812526
    0.286143573   10.069327637    5.869784254   10.413224024
    0.293322204   10.065740975    5.868025190   10.409548763
    0.300500835   10.062070623    5.866225022   10.405787048
    0.307679466   10.058316920    5.864383914   10.401939187
    0.314858097   10.054480206    5.862502029   10.398005491
    0.322036728   10.050560826    5.860579533   10.393986278
    0.329215359   10.046559127    5.858616593   10.389881869
    0.336393990   10.042475462    5.856613380   10.385692588
    0.343572621   10.038310185    5.854570063   10.381418764
    0.350751252   10.034063654    5.852486815   10.377060730
    0.357929883   10.029736231    5.850363811   10.372618822
    0.365108514   10.025328278    5.848201225   10.368093380
    0.372287145   10.020840164    5.845999233   10.363484748
    0.379465776   10.016272256    5.843758015   10.358793272
    0.386644407   10.011624927    5.841477748   10.354019303
    0.393823038   10.006898550    5.839158613   10.349163193
    0.401001669   10.002093502    5.836800791   10.344225299
    0.408180301    9.997210161    5.834404464   10.339205980
    0.415358932    9.992248907    5.831969816   10.334105599
    0.422537563    9.987210124    5.829497031   10.328924520
    0.429716194    9.982094195    5.826986294   10.323663113
    0.436894825    9.976901506    5.824437791   10.318321746
    0.444073456    9.971632446    5.821851708   10.312900794
    0.451252087    9.966287404    5.819228233   10.307400633
    0.458430718    9.960866770    5.816567554   10.301821639
    0.465609349    9.955370938    5.813869860   10.296164195
    0.472787980    9.949800302    5.811135340   10.290428682
    0.479966611    9.944155257    5.808364185   10.284615487
    0.487145242    9.938436200    5.805556585   10.278724997
    0.494323873    9.932643529    5.802712732   10.272757601
    0.501502504    9.926777643    5.799832817   10.266713692
    0.508681135    9.920838944    5.796917032   10.260593663
    0.515859766    9.914827833    5.793965570   10.254397909
    0.523038397    9.908744713    5.790978625   10.248126830
    0.530217028    9.902589988    5.787956390   10.241780825
    0.537395659    9.896364063    5.784899058   10.235360295
    0.544574290    9.890067344    5.781806825   10.228865644
    0.551752922    9.883700239    5.778679885   10.222297277
    0.558931553    9.877263155    5.775518433   10.215655602
    0.566110184    9.870756502    5.772322664   10.208941027
    0.573288815    9.864180690    5.769092775   10.202153962
    0.580467446    9.857536129    5.765828962   10.195294820
    0.587646077    9.850823232    5.762531420   10.188364014
    0.594824708    9.844042410    5.759200346   10.181361960
    0.602003339    9.837194078    5.755835938   10.174289074
    0.609181970    9.830278649    5.752438392   10.167145774
    0.616360601    9.823296539    5.749007905   10.159932481
    0.623539232    9.816248163    5.745544675   10.152649615
    0.630717863    9.809133938    5.742048901   10.145297598
    0.637896494    9.801954281    5.738520779   10.137876855
    0.645075125    9.794709611    5.734960507   10.130387810
    0.652253756    9.787400345    5.731368285   10.122830890
    0.659432387    9.780026903    5.727744311   10.115206523
    0.666611018    9.772589706    5.724088783   10.107515137
    0.673789649    9.765089173    5.720401900   10.099757162
    0.680968280    9.757525726    5.716683860   10.091933030
    0.688146912    9.749899787    5.712934864   10.084043172
    0.695325543    9.742211779    5.709155109   10.076088023
    0.702504174    9.734462124    5.705344796   10.068068016
    0.709682805    9.726651245    5.701504123   10.059983587
    0.716861436    9.718779568    5.697633290   10.051835172
    0.724040067    9.710847516    5.693732497   10.043623209
    0.731218698    9.702855515    5.689801943   10.035348135
    0.738397329    9.694803990    5.685841827   10.027010391
    0.745575960    9.686693367    5.681852350   10.018610415
    0.752754591    9.678524073    5.677833712   10.010148649
    0.759933222    9.670296535    5.673786111   10.001625535
    0.767111853    9.662011179    5.669709748    9.993041514
    0.774290484    9.653668434    5.665604823    9.984397029
    0.781469115    9.645268727    5.661471535    9.975692526
    0.788647746    9.636812487    5.657310085    9.966928447
    0.795826377    9.628300142    5.653120672    9.958105238
    0.803005008    9.619732122    5.648903497    9.949223345
    0.810183639    9.611108856    5.644658758    9.940283213
    0.817362270    9.602430772    5.640386657    9.931285290
    0.824540902    9.593698301    5.636087393    9.922230023
    0.831719533    9.584911873    5.631761165    9.913117860
    0.838898164    9.576071918    5.627408174    9.903949248
    0.846076795    9.567178866    5.623028619    9.894724636
    0.853255426    9.558233147    5.618622700    9.885444473
    0.860434057    9.549235191    5.614190616    9.876109209
    0.867612688    9.540185431    5.609732567    9.866719292
    0.874791319    9.531084295    5.605248752    9.857275174
    0.881969950    9.521932215    5.600739372    9.847777303
    0.889148581    9.512729622    5.596204624    9.838226130
    0.896327212    9.503476946    5.591644708    9.828622105
    0.903505843    9.494174618    5.587059823    9.818965680
    0.910684474    9.484823069    5.582450169    9.809257304
    0.917863105    9.475422728    5.577815943    9.799497429
    0.925041736    9.465974027    5.573157345    9.789686505
    0.932220367    9.456477396    5.568474572    9.779824983
    0.939398998    9.446933265    5.563767824    9.769913314
    0.946577629    9.437342064    5.559037298    9.759951949
    0.953756260    9.427704223    5.554283193    9.749941338
    0.960934891    9.418020171    5.549505706    9.739881932
    0.968113523    9.408290337    5.544705035    9.729774182
    0.975292154    9.398515151    5.539881377    9.719618537
    0.982470785    9.388695042    5.535034930    9.709415447
    0.989649416    9.378830437    5.530165891    9.699165363
    0.996828047    9.368921764    5.525274456    9.688868735
    1.004006678    9.358969452    5.520360822    9.678526010
    1.011185309    9.348973928    5.515425186    9.668137638
    1.018363940    9.338935618    5.510467744    9.657704068
    1.025542571    9.328854949    5.505488691    9.647225747
    1.032721202    9.318732346    5.500488223    9.636703125
    1.039899833    9.308568234    5.495466535    9.626136646
    1.047078464    9.298363040    5.490423823    9.615526759
    1.054257095    9.288117186    5.485360282    9.604873910
    1.061435726    9.277831097    5.480276105    9.594178545
    1.068614357    9.267505195    5.475171488    9.583441108
    1.075792988    9.257139904    5.470046623    9.572662044
    1.082971619    9.246735644    5.464901705    9.561841797
    1.090150250    9.236292837    5.459736927    9.550980811
    1.097328881    9.225811903    5.454552482    9.540079528
    1.104507513    9.215293261    5.449348562    9.529138389
    1.111686144    9.204737332    5.444125360    9.518157837
    1.118864775    9.194144532    5.438883068    9.507138310
    1.126043406    9.183515279    5.433621876    9.496080250
    1.133222037    9.172849990    5.428341977    9.484984095
    1.140400668    9.162149079    5.423043562    9.473850282
    1.147579299    9.151412963    5.417726820    9.462679248
    1.154757930    9.140642054    5.412391942    9.451471430
    1.161936561    9.129836765    5.407039117    9.440227264
    1.169115192    9.118997509    5.401668535    9.428947182
    1.176293823    9.108124696    5.396280384    9.417631619
    1.183472454    9.097218737    5.390874853    9.406281007
    1.190651085    9.086280041    5.385452130    9.394895776
    1.197829716    9.075309015    5.380012402    9.383476358
    1.205008347    9.064306066    5.374555857    9.372023181
    1.212186978    9.053271601    5.369082681    9.360536673
    1.219365609    9.042206023    5.363593060    9.349017262
    1.226544240    9.031109737    5.358087181    9.337465372
    1.233722871    9.019983145    5.352565228    9.325881429
    1.240901503    9.008826649    5.347027387    9.314265856
    1.248080134    8.997640648    5.341473841    9.302619074
    1.255258765    8.986425542    5.335904775    9.290941506
    1.262437396    8.975181728    5.330320371    9.279233570
    1.269616027    8.963909603    5.324720813    9.267495686
    1.276794658    8.952609562    5.319106284    9.255728269
    1.283973289    8.941281999    5.313476964    9.243931737
    1.291151920    8.929927307    5.307833035    9.232106502
    1.298330551    8.918545876    5.302174678    9.220252980
    1.305509182    8.907138099    5.296502073    9.208371580
    1.312687813    8.895704361    5.290815400    9.196462713
    1.319866444    8.884245053    5.285114838    9.184526789
    1.327045075    8.872760558    5.279400566    9.172564215
    1.334223706    8.861251262    5.273672762    9.160575396
    1.341402337    8.849717548    5.267931602    9.148560738
    1.348580968    8.838159798    5.262177265    9.136520642
    1.355759599    8.826578391    5.256409926    9.124455511
    1.362938230    8.814973707    5.250629762    9.112365745
    1.370116861    8.803346124    5.244836946    9.100251742
    1.377295492    8.791696016    5.239031655    9.088113899
    1.384474124    8.780023759    5.233214061    9.075952611
    1.391652755    8.768329725    5.227384339    9.063768272
    1.398831386    8.756614285    5.221542661    9.051561273
    1.406010017    8.744877809    5.215689199    9.039332007
    1.413188648    8.733120666    5.209824124    9.027080860
    1.420367279    8.721343221    5.203947608    9.014808221
    1.427545910    8.709545841    5.198059821    9.002514475
    1.434724541    8.697728887    5.192160933    8.990200005
    1.441903172    8.685892723    5.186251112    8.977865195
    1.449081803    8.674037709    5.180330527    8.965510423
    1.456260434    8.662164202    5.174399345    8.953136070
    1.463439065    8.650272560    5.168457735    8.940742511
    1.470617696    8.638363138    5.162505861    8.928330123
    1.477796327    8.626436289    5.156543890    8.915899278
    1.484974958    8.614492366    5.150571986    8.903450348
    1.492153589    8.602531719    5.144590315    8.890983704
    1.499332220    8.590554696    5.138599040    8.878499713
    1.506510851    8.578561643    5.132598324    8.865998741
    1.513689482    8.566552906    5.126588330    8.853481153
    1.520868114    8.554528829    5.120569218    8.840947312
    1.528046745    8.542489752    5.114541150    8.828397579
    1.535225376    8.530436016    5.108504287    8.815832312
    1.542404007    8.518367958    5.102458787    8.803251869
    1.549582638    8.506285915    5.096404810    8.790656604
    1.556761269    8.494190222    5.090342514    8.778046872
    1.563939900    8.482081211    5.084272056    8.765423023
    1.571118531    8.469959213    5.078193594    8.752785408
    1.578297162    8.457824557    5.072107282    8.740134374
    1.585475793    8.445677571    5.066013277    8.727470267
    1.592654424    8.433518579    5.059911733    8.714793431
    1.599833055    8.421347907    5.053802804    8.702104207
    1.607011686    8.409165875    5.047686643    8.689402936
    1.614190317    8.396972804    5.041563402    8.676689957
    1.621368948    8.384769012    5.035433233    8.663965604
    1.628547579    8.372554815    5.029296288    8.651230213
    1.635726210    8.360330527    5.023152715    8.638484115
    1.642904841    8.348096463    5.017002666    8.625727642
    1.650083472    8.335852931    5.010846287    8.612961121
    1.657262104    8.323600242    5.004683728    8.600184879
    1.664440735    8.311338702    4.998515135    8.587399240
    1.671619366    8.299068617    4.992340655    8.574604526
    1.678797997    8.286790290    4.986160434    8.561801059
    1.685976628    8.274504022    4.979974616    8.548989157
    1.693155259    8.262210113    4.973783346    8.536169135
    1.700333890    8.249908861    4.967586767    8.523341310
    1.707512521    8.237600561    4.961385022    8.510505993
    1.714691152    8.225285507    4.955178252    8.497663494
    1.721869783    8.212963992    4.948966599    8.484814123
    1.729048414    8.200636306    4.942750203    8.471958185
    1.736227045    8.188302736    4.936529204    8.459095986
    1.743405676    8.175963570    4.930303740    8.446227828
    1.750584307    8.163619091    4.924073949    8.433354011
    1.757762938    8.151269583    4.917839969    8.420474833
    1.764941569    8.138915325    4.911601937    8.407590593
    1.772120200    8.126556597    4.905359987    8.394701582
    1.779298831    8.114193675    4.899114255    8.381808096
    1.786477462    8.101826835    4.892864874    8.368910422
    1.793656093    8.089456349    4.886611979    8.356008851
    1.800834725    8.077082489    4.880355702    8.343103669
    1.808013356    8.064705524    4.874096174    8.330195159
    1.815191987    8.052325720    4.867833527    8.317283604
    1.822370618    8.039943345    4.861567891    8.304369285
    1.829549249    8.027558660    4.855299395    8.291452481
    1.836727880    8.015171928    4.849028167    8.278533466
    1.843906511    8.002783408    4.842754337    8.265612516
    1.851085142    7.990393359    4.836478030    8.252689903
    1.858263773    7.978002035    4.830199374    8.239765897
    1.865442404    7.965609692    4.823918492    8.226840767
    1.872621035    7.953216581    4.817635512    8.213914779
    1.879799666    7.940822952    4.811350555    8.200988197
    1.886978297    7.928429054    4.805063746    8.188061283
    1.894156928    7.916035134    4.798775206    8.175134297
    1.901335559    7.903641435    4.792485057    8.162207499
    1.908514190    7.891248201    4.786193421    8.149281144
    1.915692821    7.878855672    4.779900416    8.136355486
    1.922871452    7.866464087    4.773606162    8.123430778
    1.930050083    7.854073683    4.767310778    8.110507270
    1.937228715    7.841684695    4.761014381    8.097585210
    1.944407346    7.829297357    4.754717088    8.084664845
    1.951585977    7.816911900    4.748419014    8.071746419
    1.958764608    7.804528554    4.742120276    8.058830174
    1.965943239    7.792147546    4.735820988    8.045916352
    1.973121870    7.779769101    4.729521262    8.033005189
    1.980300501    7.767393445    4.723221213    8.020096923
    1.987479132    7.755020799    4.716920952    8.007191788
    1.994657763    7.742651384    4.710620591    7.994290018
    2.001836394    7.730285417    4.704320240    7.981391841
    2.009015025    7.717923116    4.698020008    7.968497488
    2.016193656    7.705564695    4.691720005    7.955607184
    2.023372287    7.693210367    4.685420339    7.942721155
    2.030550918    7.680860343    4.679121118    7.929839623
    2.037729549    7.668514833    4.672822447    7.916962809
    2.044908180    7.656174044    4.666524434    7.904090933
    2.052086811    7.643838182    4.660227182    7.891224212
    2.059265442    7.631507450    4.653930796    7.878362859
    2.066444073    7.619182051    4.647635380    7.865507090
    2.073622705    7.606862185    4.641341036    7.852657115
    2.080801336    7.594548051    4.635047866    7.839813143
    2.087979967    7.582239844    4.628755972    7.826975383
    2.095158598    7.569937761    4.622465454    7.814144040
    2.102337229    7.557641994    4.616176412    7.801319318
    2.109515860    7.545352734    4.609888944    7.788501418
    2.116694491    7.533070172    4.603603148    7.775690541
    2.123873122    7.520794495    4.597319123    7.762886886
    2.131051753    7.508525890    4.591036964    7.750090648
    2.138230384    7.496264540    4.584756768    7.737302021
    2.145409015    7.484010628    4.578478629    7.724521200
    2.152587646    7.471764336    4.572202642    7.711748374
    2.159766277    7.459525842    4.565928900    7.698983733
    2.166944908    7.447295325    4.559657497    7.686227464
    2.174123539    7.435072959    4.553388523    7.673479752
    2.181302170    7.422858919    4.547122071    7.660740781
    2.188480801    7.410653378    4.540858232    7.648010733
    2.195659432    7.398456506    4.534597094    7.635289788
    2.202838063    7.386268472    4.528338747    7.622578124
    2.210016694    7.374089443    4.522083280    7.609875917
    2.217195326    7.361919585    4.515830779    7.597183343
    2.224373957    7.349759063    4.509581333    7.584500573
    2.231552588    7.337608038    4.503335026    7.571827781
    2.238731219    7.325466671    4.497091945    7.559165134
    2.245909850    7.313335122    4.490852173    7.546512800
    2.253088481    7.301213548    4.484615795    7.533870947
    2.260267112    7.289102104    4.478382895    7.521239737
    2.267445743    7.277000945    4.472153554    7.508619334
    2.274624374    7.264910224    4.465927854    7.496009898
    2.281803005    7.252830092    4.459705877    7.483411588
    2.288981636    7.240760697    4.453487702    7.470824563
    2.296160267    7.228702188    4.447273409    7.458248977
    2.303338898    7.216654711    4.441063078    7.445684985
    2.310517529    7.204618411    4.434856786    7.433132739
    2.317696160    7.192593430    4.428654611    7.420592390
    2.324874791    7.180579911    4.422456629    7.408064088
    2.332053422    7.168577994    4.416262918    7.395547979
    2.339232053    7.156587816    4.410073551    7.383044210
    2.346410684    7.144609516    4.403888603    7.370552925
    2.353589316    7.132643227    4.397708150    7.358074266
    2.360767947    7.120689085    4.391532263    7.345608375
    2.367946578    7.108747221    4.385361016    7.333155391
    2.375125209    7.096817767    4.379194481    7.320715451
    2.382303840    7.084900851    4.373032728    7.308288693
    2.389482471    7.072996602    4.366875828    7.295875250
    2.396661102    7.061105147    4.360723852    7.283475257
    2.403839733    7.049226610    4.354576867    7.271088844
    2.411018364    7.037361114    4.348434944    7.258716141
    2.418196995    7.025508782    4.342298149    7.246357277
    2.425375626    7.013669735    4.336166550    7.234012380
    2.432554257    7.001844091    4.330040213    7.221681573
    2.439732888    6.990031968    4.323919205    7.209364982
    2.446911519    6.978233484    4.317803590    7.197062729
    2.454090150    6.966448751    4.311693433    7.184774934
    2.461268781    6.954677885    4.305588798    7.172501717
    2.468447412    6.942920997    4.299489747    7.160243197
    2.475626043    6.931178199    4.293396345    7.147999489
    2.482804674    6.919449598    4.287308652    7.135770708
    2.489983306    6.907735304    4.281226730    7.123556969
    2.497161937    6.896035423    4.275150640    7.111358383
    2.504340568    6.884350060    4.269080441    7.099175061
    2.511519199    6.872679319    4.263016194    7.087007113
    2.518697830    6.861023304    4.256957956    7.074854645
    2.525876461    6.849382114    4.250905786    7.062717766
    2.533055092    6.837755850    4.244859742    7.050596579
    2.540233723    6.826144611    4.238819880    7.038491188
