# energy grid [eV]     ieps_x  ieps_y  ieps_z
#
    0.200000000    1.111348731    8.262920377    8.407734226
    0.207178631    1.111299544    8.261095729    8.405810871
    0.214357262    1.111248729    8.259207882    8.403820967
    0.221535893    1.111196295    8.257256950    8.401764645
    0.228714524    1.111142254    8.255243054    8.399642038
    0.235893155    1.111086616    8.253166317    8.397453285
    0.243071786    1.111029393    8.251026868    8.395198526
    0.250250417    1.110970595    8.248824836    8.392877908
    0.257429048    1.110910235    8.246560356    8.390491581
    0.264607679    1.110848323    8.244233566    8.388039697
    0.271786311    1.110784873    8.241844607    8.385522414
    0.278964942    1.110719896    8.239393625    8.382939895
    0.286143573    1.110653404    8.236880767    8.380292302
    0.293322204    1.110585410    8.234306186    8.377579806
    0.300500835    1.110515926    8.231670036    8.374802578
    0.307679466    1.110444966    8.228972475    8.371960794
    0.314858097    1.110372541    8.226213666    8.369054634
    0.322036728    1.110298666    8.223393773    8.366084282
    0.329215359    1.110223353    8.220512964    8.363049923
    0.336393990    1.110146616    8.217571410    8.359951748
    0.343572621    1.110068468    8.214569287    8.356789951
    0.350751252    1.109988922    8.211506771    8.353564728
    0.357929883    1.109907993    8.208384044    8.350276280
    0.365108514    1.109825693    8.205201288    8.346924810
    0.372287145    1.109742036    8.201958691    8.343510526
    0.379465776    1.109657037    8.198656443    8.340033637
    0.386644407    1.109570709    8.195294735    8.336494357
    0.393823038    1.109483066    8.191873764    8.332892902
    0.401001669    1.109394122    8.188393728    8.329229491
    0.408180301    1.109303891    8.184854828    8.325504348
    0.415358932    1.109212387    8.181257269    8.321717699
    0.422537563    1.109119624    8.177601256    8.317869770
    0.429716194    1.109025616    8.173887000    8.313960795
    0.436894825    1.108930378    8.170114712    8.309991006
    0.444073456    1.108833922    8.166284608    8.305960643
    0.451252087    1.108736264    8.162396905    8.301869944
    0.458430718    1.108637417    8.158451823    8.297719153
    0.465609349    1.108537395    8.154449585    8.293508514
    0.472787980    1.108436212    8.150390415    8.289238276
    0.479966611    1.108333883    8.146274542    8.284908690
    0.487145242    1.108230421    8.142102194    8.280520009
    0.494323873    1.108125840    8.137873605    8.276072490
    0.501502504    1.108020155    8.133589009    8.271566389
    0.508681135    1.107913378    8.129248642    8.267001968
    0.515859766    1.107805523    8.124852746    8.262379491
    0.523038397    1.107696605    8.120401560    8.257699223
    0.530217028    1.107586637    8.115895329    8.252961432
    0.537395659    1.107475632    8.111334299    8.248166388
    0.544574290    1.107363604    8.106718717    8.243314363
    0.551752922    1.107250567    8.102048833    8.238405633
    0.558931553    1.107136533    8.097324901    8.233440474
    0.566110184    1.107021517    8.092547174    8.228419165
    0.573288815    1.106905531    8.087715908    8.223341986
    0.580467446    1.106788588    8.082831362    8.218209222
    0.587646077    1.106670702    8.077893795    8.213021157
    0.594824708    1.106551886    8.072903470    8.207778077
    0.602003339    1.106432151    8.067860651    8.202480273
    0.609181970    1.106311512    8.062765602    8.197128034
    0.616360601    1.106189981    8.057618592    8.191721654
    0.623539232    1.106067570    8.052419889    8.186261427
    0.630717863    1.105944291    8.047169765    8.180747649
    0.637896494    1.105820158    8.041868492    8.175180617
    0.645075125    1.105695183    8.036516344    8.169560632
    0.652253756    1.105569377    8.031113597    8.163887994
    0.659432387    1.105442753    8.025660528    8.158163007
    0.666611018    1.105315322    8.020157416    8.152385975
    0.673789649    1.105187098    8.014604541    8.146557203
    0.680968280    1.105058090    8.009002186    8.140677000
    0.688146912    1.104928312    8.003350633    8.134745673
    0.695325543    1.104797774    7.997650168    8.128763534
    0.702504174    1.104666488    7.991901076    8.122730893
    0.709682805    1.104534465    7.986103644    8.116648065
    0.716861436    1.104401717    7.980258162    8.110515362
    0.724040067    1.104268254    7.974364919    8.104333100
    0.731218698    1.104134088    7.968424206    8.098101597
    0.738397329    1.103999230    7.962436316    8.091821170
    0.745575960    1.103863690    7.956401542    8.085492138
    0.752754591    1.103727479    7.950320179    8.079114822
    0.759933222    1.103590607    7.944192523    8.072689542
    0.767111853    1.103453086    7.938018870    8.066216622
    0.774290484    1.103314925    7.931799519    8.059696384
    0.781469115    1.103176134    7.925534768    8.053129152
    0.788647746    1.103036724    7.919224918    8.046515253
    0.795826377    1.102896705    7.912870268    8.039855012
    0.803005008    1.102756087    7.906471121    8.033148756
    0.810183639    1.102614879    7.900027779    8.026396813
    0.817362270    1.102473092    7.893540546    8.019599512
    0.824540902    1.102330734    7.887009726    8.012757182
    0.831719533    1.102187816    7.880435625    8.005870153
    0.838898164    1.102044346    7.873818547    7.998938757
    0.846076795    1.101900335    7.867158800    7.991963325
    0.853255426    1.101755790    7.860456690    7.984944190
    0.860434057    1.101610723    7.853712527    7.977881683
    0.867612688    1.101465140    7.846926617    7.970776138
    0.874791319    1.101319052    7.840099272    7.963627890
    0.881969950    1.101172467    7.833230799    7.956437273
    0.889148581    1.101025393    7.826321510    7.949204622
    0.896327212    1.100877840    7.819371716    7.941930271
    0.903505843    1.100729816    7.812381727    7.934614558
    0.910684474    1.100581329    7.805351856    7.927257818
    0.917863105    1.100432388    7.798282415    7.919860387
    0.925041736    1.100283001    7.791173716    7.912422603
    0.932220367    1.100133176    7.784026073    7.904944803
    0.939398998    1.099982921    7.776839799    7.897427324
    0.946577629    1.099832245    7.769615208    7.889870503
    0.953756260    1.099681154    7.762352613    7.882274679
    0.960934891    1.099529657    7.755052330    7.874640190
    0.968113523    1.099377762    7.747714672    7.866967373
    0.975292154    1.099225475    7.740339954    7.859256568
    0.982470785    1.099072806    7.732928492    7.851508112
    0.989649416    1.098919761    7.725480600    7.843722344
    0.996828047    1.098766347    7.717996594    7.835899603
    1.004006678    1.098612572    7.710476789    7.828040226
    1.011185309    1.098458443    7.702921501    7.820144553
    1.018363940    1.098303967    7.695331044    7.812212921
    1.025542571    1.098149152    7.687705735    7.804245670
    1.032721202    1.097994004    7.680045890    7.796243137
    1.039899833    1.097838530    7.672351823    7.788205660
    1.047078464    1.097682737    7.664623850    7.780133577
    1.054257095    1.097526632    7.656862287    7.772027226
    1.061435726    1.097370222    7.649067450    7.763886945
    1.068614357    1.097213513    7.641239652    7.755713070
    1.075792988    1.097056511    7.633379211    7.747505940
    1.082971619    1.096899224    7.625486439    7.739265889
    1.090150250    1.096741657    7.617561653    7.730993256
    1.097328881    1.096583817    7.609605167    7.722688375
    1.104507513    1.096425711    7.601617295    7.714351584
    1.111686144    1.096267344    7.593598351    7.705983216
    1.118864775    1.096108723    7.585548650    7.697583607
    1.126043406    1.095949853    7.577468504    7.689153092
    1.133222037    1.095790741    7.569358227    7.680692004
    1.140400668    1.095631393    7.561218131    7.672200676
    1.147579299    1.095471814    7.553048530    7.663679443
    1.154757930    1.095312011    7.544849735    7.655128636
    1.161936561    1.095151989    7.536622058    7.646548588
    1.169115192    1.094991754    7.528365811    7.637939629
    1.176293823    1.094831312    7.520081303    7.629302091
    1.183472454    1.094670668    7.511768846    7.620636303
    1.190651085    1.094509828    7.503428750    7.611942596
    1.197829716    1.094348797    7.495061324    7.603221298
    1.205008347    1.094187580    7.486666876    7.594472737
    1.212186978    1.094026184    7.478245715    7.585697240
    1.219365609    1.093864613    7.469798148    7.576895135
    1.226544240    1.093702873    7.461324484    7.568066748
    1.233722871    1.093540969    7.452825028    7.559212403
    1.240901503    1.093378906    7.444300086    7.550332426
    1.248080134    1.093216689    7.435749963    7.541427139
    1.255258765    1.093054324    7.427174965    7.532496866
    1.262437396    1.092891815    7.418575395    7.523541929
    1.269616027    1.092729167    7.409951556    7.514562649
    1.276794658    1.092566385    7.401303751    7.505559346
    1.283973289    1.092403475    7.392632281    7.496532339
    1.291151920    1.092240440    7.383937449    7.487481948
    1.298330551    1.092077286    7.375219553    7.478408490
    1.305509182    1.091914017    7.366478893    7.469312280
    1.312687813    1.091750639    7.357715768    7.460193636
    1.319866444    1.091587155    7.348930477    7.451052871
    1.327045075    1.091423571    7.340123315    7.441890300
    1.334223706    1.091259890    7.331294580    7.432706234
    1.341402337    1.091096118    7.322444566    7.423500986
    1.348580968    1.090932259    7.313573568    7.414274867
    1.355759599    1.090768317    7.304681880    7.405028185
    1.362938230    1.090604297    7.295769793    7.395761249
    1.370116861    1.090440203    7.286837601    7.386474367
    1.377295492    1.090276039    7.277885593    7.377167845
    1.384474124    1.090111810    7.268914060    7.367841989
    1.391652755    1.089947519    7.259923291    7.358497101
    1.398831386    1.089783171    7.250913573    7.349133486
    1.406010017    1.089618771    7.241885193    7.339751444
    1.413188648    1.089454321    7.232838437    7.330351277
    1.420367279    1.089289827    7.223773590    7.320933284
    1.427545910    1.089125292    7.214690936    7.311497762
    1.434724541    1.088960721    7.205590758    7.302045010
    1.441903172    1.088796116    7.196473338    7.292575323
    1.449081803    1.088631482    7.187338956    7.283088996
    1.456260434    1.088466824    7.178187892    7.273586321
    1.463439065    1.088302144    7.169020424    7.264067591
    1.470617696    1.088137447    7.159836830    7.254533096
    1.477796327    1.087972736    7.150637387    7.244983127
    1.484974958    1.087808015    7.141422369    7.235417971
    1.492153589    1.087643288    7.132192050    7.225837916
    1.499332220    1.087478558    7.122946704    7.216243247
    1.506510851    1.087313829    7.113686602    7.206634248
    1.513689482    1.087149105    7.104412015    7.197011203
    1.520868114    1.086984388    7.095123213    7.187374393
    1.528046745    1.086819684    7.085820463    7.177724098
    1.535225376    1.086654994    7.076504033    7.168060597
    1.542404007    1.086490323    7.067174189    7.158384169
    1.549582638    1.086325674    7.057831194    7.148695089
    1.556761269    1.086161050    7.048475314    7.138993632
    1.563939900    1.085996455    7.039106810    7.129280072
    1.571118531    1.085831892    7.029725942    7.119554681
    1.578297162    1.085667364    7.020332972    7.109817730
    1.585475793    1.085502875    7.010928157    7.100069487
    1.592654424    1.085338428    7.001511754    7.090310221
    1.599833055    1.085174025    6.992084020    7.080540199
    1.607011686    1.085009671    6.982645210    7.070759684
    1.614190317    1.084845367    6.973195576    7.060968942
    1.621368948    1.084681118    6.963735371    7.051168234
    1.628547579    1.084516927    6.954264846    7.041357820
    1.635726210    1.084352796    6.944784250    7.031537961
    1.642904841    1.084188728    6.935293833    7.021708914
    1.650083472    1.084024727    6.925793839    7.011870935
    1.657262104    1.083860795    6.916284517    7.002024280
    1.664440735    1.083696935    6.906766109    6.992169201
    1.671619366    1.083533150    6.897238858    6.982305952
    1.678797997    1.083369444    6.887703008    6.972434781
    1.685976628    1.083205818    6.878158797    6.962555939
    1.693155259    1.083042276    6.868606464    6.952669673
    1.700333890    1.082878820    6.859046249    6.942776228
    1.707512521    1.082715454    6.849478386    6.932875850
    1.714691152    1.082552179    6.839903111    6.922968782
    1.721869783    1.082388999    6.830320657    6.913055265
    1.729048414    1.082225917    6.820731258    6.903135539
    1.736227045    1.082062934    6.811135142    6.893209842
    1.743405676    1.081900054    6.801532541    6.883278413
    1.750584307    1.081737278    6.791923683    6.873341485
    1.757762938    1.081574611    6.782308793    6.863399294
    1.764941569    1.081412053    6.772688098    6.853452072
    1.772120200    1.081249609    6.763061822    6.843500050
    1.779298831    1.081087279    6.753430187    6.833543458
    1.786477462    1.080925067    6.743793415    6.823582523
    1.793656093    1.080762975    6.734151725    6.813617471
    1.800834725    1.080601006    6.724505336    6.803648528
    1.808013356    1.080439161    6.714854465    6.793675918
    1.815191987    1.080277444    6.705199328    6.783699862
    1.822370618    1.080115856    6.695540139    6.773720580
    1.829549249    1.079954400    6.685877111    6.763738291
    1.836727880    1.079793078    6.676210456    6.753753214
    1.843906511    1.079631892    6.666540384    6.743765562
    1.851085142    1.079470845    6.656867103    6.733775552
    1.858263773    1.079309939    6.647190822    6.723783395
    1.865442404    1.079149175    6.637511745    6.713789303
    1.872621035    1.078988557    6.627830078    6.703793485
    1.879799666    1.078828086    6.618146023    6.693796150
    1.886978297    1.078667764    6.608459783    6.683797505
    1.894156928    1.078507594    6.598771558    6.673797754
    1.901335559    1.078347577    6.589081546    6.663797101
    1.908514190    1.078187716    6.579389946    6.653795749
    1.915692821    1.078028012    6.569696953    6.643793898
    1.922871452    1.077868468    6.560002763    6.633791746
    1.930050083    1.077709085    6.550307568    6.623789493
    1.937228715    1.077549866    6.540611561    6.613787333
    1.944407346    1.077390812    6.530914933    6.603785462
    1.951585977    1.077231926    6.521217871    6.593784072
    1.958764608    1.077073208    6.511520565    6.583783354
    1.965943239    1.076914662    6.501823201    6.573783500
    1.973121870    1.076756288    6.492125963    6.563784698
    1.980300501    1.076598090    6.482429035    6.553787134
    1.987479132    1.076440067    6.472732600    6.543790995
    1.994657763    1.076282223    6.463036839    6.533796464
    2.001836394    1.076124559    6.453341930    6.523803724
    2.009015025    1.075967077    6.443648052    6.513812955
    2.016193656    1.075809778    6.433955382    6.503824339
    2.023372287    1.075652665    6.424264094    6.493838052
    2.030550918    1.075495738    6.414574364    6.483854272
    2.037729549    1.075338999    6.404886362    6.473873174
    2.044908180    1.075182451    6.395200262    6.463894931
    2.052086811    1.075026094    6.385516232    6.453919715
    2.059265442    1.074869931    6.375834441    6.443947699
    2.066444073    1.074713962    6.366155056    6.433979050
    2.073622705    1.074558190    6.356478242    6.424013937
    2.080801336    1.074402615    6.346804165    6.414052526
    2.087979967    1.074247240    6.337132987    6.404094982
    2.095158598    1.074092066    6.327464869    6.394141469
    2.102337229    1.073937095    6.317799973    6.384192149
    2.109515860    1.073782327    6.308138457    6.374247182
    2.116694491    1.073627764    6.298480479    6.364306728
    2.123873122    1.073473408    6.288826195    6.354370945
    2.131051753    1.073319260    6.279175759    6.344439989
    2.138230384    1.073165322    6.269529327    6.334514015
    2.145409015    1.073011594    6.259887049    6.324593177
    2.152587646    1.072858079    6.250249077    6.314677626
    2.159766277    1.072704777    6.240615561    6.304767514
    2.166944908    1.072551689    6.230986649    6.294862990
    2.174123539    1.072398818    6.221362487    6.284964202
    2.181302170    1.072246164    6.211743222    6.275071297
    2.188480801    1.072093728    6.202128999    6.265184420
    2.195659432    1.071941512    6.192519959    6.255303714
    2.202838063    1.071789517    6.182916246    6.245429322
    2.210016694    1.071637744    6.173317998    6.235561386
    2.217195326    1.071486195    6.163725357    6.225700044
    2.224373957    1.071334870    6.154138459    6.215845436
    2.231552588    1.071183771    6.144557442    6.205997699
    2.238731219    1.071032898    6.134982440    6.196156968
    2.245909850    1.070882253    6.125413589    6.186323377
    2.253088481    1.070731838    6.115851020    6.176497060
    2.260267112    1.070581652    6.106294865    6.166678148
    2.267445743    1.070431697    6.096745256    6.156866772
    2.274624374    1.070281974    6.087202320    6.147063061
    2.281803005    1.070132485    6.077666185    6.137267143
    2.288981636    1.069983230    6.068136979    6.127479143
    2.296160267    1.069834209    6.058614827    6.117699188
    2.303338898    1.069685425    6.049099853    6.107927400
    2.310517529    1.069536878    6.039592179    6.098163904
    2.317696160    1.069388569    6.030091928    6.088408819
    2.324874791    1.069240499    6.020599220    6.078662266
    2.332053422    1.069092669    6.011114174    6.068924364
    2.339232053    1.068945080    6.001636908    6.059195231
    2.346410684    1.068797732    5.992167539    6.049474982
    2.353589316    1.068650627    5.982706184    6.039763732
    2.360767947    1.068503765    5.973252956    6.030061596
    2.367946578    1.068357147    5.963807968    6.020368686
    2.375125209    1.068210775    5.954371333    6.010685113
    2.382303840    1.068064648    5.944943162    6.001010987
    2.389482471    1.067918768    5.935523565    5.991346417
    2.396661102    1.067773135    5.926112650    5.981691511
    2.403839733    1.067627750    5.916710524    5.972046375
    2.411018364    1.067482615    5.907317295    5.962411115
    2.418196995    1.067337729    5.897933067    5.952785834
    2.425375626    1.067193093    5.888557944    5.943170635
    2.432554257    1.067048708    5.879192029    5.933565620
    2.439732888    1.066904576    5.869835424    5.923970890
    2.446911519    1.066760695    5.860488230    5.914386544
    2.454090150    1.066617068    5.851150546    5.904812680
    2.461268781    1.066473695    5.841822470    5.895249395
    2.468447412    1.066330576    5.832504101    5.885696784
    2.475626043    1.066187712    5.823195534    5.876154944
    2.482804674    1.066045104    5.813896864    5.866623967
    2.489983306    1.065902752    5.804608185    5.857103946
    2.497161937    1.065760657    5.795329591    5.847594972
    2.504340568    1.065618819    5.786061173    5.838097135
    2.511519199    1.065477240    5.776803022    5.828610525
    2.518697830    1.065335919    5.767555227    5.819135230
    2.525876461    1.065194857    5.758317879    5.809671336
    2.533055092    1.065054055    5.749091063    5.800218930
    2.540233723    1.064913513    5.739874868    5.790778096
