# energy grid [eV]     epsr_x  epsr_y  epsr_z
#
    0.200000000   13.426778742   12.423890538   11.959065552
    0.207178631   13.429705040   12.426538896   11.961360996
    0.214357262   13.432736076   12.429282025   11.963738461
    0.221535893   13.435872012   12.432120071   11.966198062
    0.228714524   13.439113017   12.435053185   11.968739915
    0.235893155   13.442459266   12.438081522   11.971364142
    0.243071786   13.445910939   12.441205243   11.974070869
    0.250250417   13.449468222   12.444424515   11.976860225
    0.257429048   13.453131309   12.447739511   11.979732345
    0.264607679   13.456900395   12.451150405   11.982687365
    0.271786311   13.460775687   12.454657382   11.985725427
    0.278964942   13.464757394   12.458260628   11.988846678
    0.286143573   13.468845732   12.461960337   11.992051268
    0.293322204   13.473040923   12.465756707   11.995339352
    0.300500835   13.477343195   12.469649941   11.998711086
    0.307679466   13.481752783   12.473640249   12.002166636
    0.314858097   13.486269928   12.477727846   12.005706166
    0.322036728   13.490894874   12.481912952   12.009329849
    0.329215359   13.495627877   12.486195792   12.013037861
    0.336393990   13.500469194   12.490576599   12.016830379
    0.343572621   13.505419091   12.495055608   12.020707590
    0.350751252   13.510477840   12.499633063   12.024669681
    0.357929883   13.515645719   12.504309211   12.028716846
    0.365108514   13.520923012   12.509084307   12.032849280
    0.372287145   13.526310010   12.513958611   12.037067186
    0.379465776   13.531807011   12.518932388   12.041370771
    0.386644407   13.537414318   12.524005910   12.045760243
    0.393823038   13.543132242   12.529179453   12.050235820
    0.401001669   13.548961101   12.534453301   12.054797719
    0.408180301   13.554901218   12.539827744   12.059446165
    0.415358932   13.560952924   12.545303075   12.064181387
    0.422537563   13.567116556   12.550879597   12.069003618
    0.429716194   13.573392458   12.556557616   12.073913096
    0.436894825   13.579780982   12.562337446   12.078910064
    0.444073456   13.586282485   12.568219407   12.083994768
    0.451252087   13.592897333   12.574203824   12.089167462
    0.458430718   13.599625898   12.580291030   12.094428402
    0.465609349   13.606468558   12.586481362   12.099777849
    0.472787980   13.613425700   12.592775166   12.105216070
    0.479966611   13.620497718   12.599172793   12.110743337
    0.487145242   13.627685013   12.605674601   12.116359926
    0.494323873   13.634987992   12.612280953   12.122066118
    0.501502504   13.642407071   12.618992221   12.127862200
    0.508681135   13.649942675   12.625808782   12.133748462
    0.515859766   13.657595232   12.632731021   12.139725201
    0.523038397   13.665365181   12.639759329   12.145792720
    0.530217028   13.673252969   12.646894103   12.151951324
    0.537395659   13.681259048   12.654135748   12.158201325
    0.544574290   13.689383881   12.661484676   12.164543041
    0.551752922   13.697627937   12.668941306   12.170976793
    0.558931553   13.705991693   12.676506063   12.177502911
    0.566110184   13.714475635   12.684179381   12.184121726
    0.573288815   13.723080255   12.691961700   12.190833578
    0.580467446   13.731806057   12.699853467   12.197638810
    0.587646077   13.740653550   12.707855138   12.204537773
    0.594824708   13.749623252   12.715967174   12.211530821
    0.602003339   13.758715691   12.724190046   12.218618315
    0.609181970   13.767931401   12.732524232   12.225800621
    0.616360601   13.777270927   12.740970215   12.233078113
    0.623539232   13.786734822   12.749528490   12.240451167
    0.630717863   13.796323647   12.758199557   12.247920167
    0.637896494   13.806037973   12.766983925   12.255485504
    0.645075125   13.815878379   12.775882111   12.263147574
    0.652253756   13.825845454   12.784894639   12.270906776
    0.659432387   13.835939796   12.794022043   12.278763521
    0.666611018   13.846162012   12.803264863   12.286718220
    0.673789649   13.856512718   12.812623650   12.294771295
    0.680968280   13.866992541   12.822098961   12.302923172
    0.688146912   13.877602116   12.831691364   12.311174283
    0.695325543   13.888342089   12.841401432   12.319525068
    0.702504174   13.899213114   12.851229752   12.327975972
    0.709682805   13.910215858   12.861176914   12.336527446
    0.716861436   13.921350996   12.871243522   12.345179950
    0.724040067   13.932619212   12.881430186   12.353933948
    0.731218698   13.944021203   12.891737526   12.362789914
    0.738397329   13.955557675   12.902166171   12.371748324
    0.745575960   13.967229345   12.912716761   12.380809665
    0.752754591   13.979036940   12.923389943   12.389974430
    0.759933222   13.990981199   12.934186375   12.399243118
    0.767111853   14.003062871   12.945106724   12.408616236
    0.774290484   14.015282716   12.956151669   12.418094297
    0.781469115   14.027641506   12.967321895   12.427677823
    0.788647746   14.040140024   12.978618102   12.437367342
    0.795826377   14.052779064   12.990040996   12.447163389
    0.803005008   14.065559432   13.001591295   12.457066509
    0.810183639   14.078481947   13.013269728   12.467077252
    0.817362270   14.091547439   13.025077033   12.477196177
    0.824540902   14.104756748   13.037013962   12.487423850
    0.831719533   14.118110731   13.049081273   12.497760846
    0.838898164   14.131610252   13.061279740   12.508207746
    0.846076795   14.145256193   13.073610145   12.518765141
    0.853255426   14.159049445   13.086073282   12.529433630
    0.860434057   14.172990912   13.098669957   12.540213818
    0.867612688   14.187081514   13.111400988   12.551106322
    0.874791319   14.201322182   13.124267202   12.562111763
    0.881969950   14.215713861   13.137269443   12.573230776
    0.889148581   14.230257509   13.150408562   12.584463999
    0.896327212   14.244954098   13.163685425   12.595812083
    0.903505843   14.259804617   13.177100911   12.607275686
    0.910684474   14.274810065   13.190655909   12.618855475
    0.917863105   14.289971457   13.204351323   12.630552126
    0.925041736   14.305289824   13.218188069   12.642366326
    0.932220367   14.320766211   13.232167078   12.654298768
    0.939398998   14.336401676   13.246289290   12.666350158
    0.946577629   14.352197296   13.260555664   12.678521209
    0.953756260   14.368154161   13.274967170   12.690812645
    0.960934891   14.384273378   13.289524790   12.703225200
    0.968113523   14.400556069   13.304229524   12.715759617
    0.975292154   14.417003372   13.319082383   12.728416650
    0.982470785   14.433616443   13.334084396   12.741197062
    0.989649416   14.450396454   13.349236604   12.754101627
    0.996828047   14.467344593   13.364540064   12.767131131
    1.004006678   14.484462066   13.379995848   12.780286369
    1.011185309   14.501750097   13.395605043   12.793568146
    1.018363940   14.519209927   13.411368753   12.806977280
    1.025542571   14.536842815   13.427288098   12.820514599
    1.032721202   14.554650038   13.443364212   12.834180943
    1.039899833   14.572632894   13.459598247   12.847977163
    1.047078464   14.590792696   13.475991373   12.861904120
    1.054257095   14.609130780   13.492544774   12.875962690
    1.061435726   14.627648498   13.509259653   12.890153759
    1.068614357   14.646347225   13.526137231   12.904478226
    1.075792988   14.665228354   13.543178745   12.918937000
    1.082971619   14.684293298   13.560385451   12.933531003
    1.090150250   14.703543488   13.577758619   12.948261162
    1.097328881   14.722980367   13.595299528   12.963128399
    1.104507513   14.742605397   13.613009474   12.978133643
    1.111686144   14.762420110   13.630889822   12.993277937
    1.118864775   14.782426057   13.648941956   13.008562331
    1.126043406   14.802624764   13.667167228   13.023987793
    1.133222037   14.823017787   13.685567018   13.039555312
    1.140400668   14.843606713   13.704142731   13.055265911
    1.147579299   14.864393153   13.722895800   13.071120630
    1.154757930   14.885378744   13.741827676   13.087120525
    1.161936561   14.906565141   13.760939828   13.103266660
    1.169115192   14.927954009   13.780233732   13.119560093
    1.176293823   14.949547049   13.799710895   13.136001913
    1.183472454   14.971346056   13.819372916   13.152593309
    1.190651085   14.993352818   13.839221382   13.169335445
    1.197829716   15.015569100   13.859257857   13.186229437
    1.205008347   15.037996708   13.879483940   13.203276432
    1.212186978   15.060637482   13.899901266   13.220477606
    1.219365609   15.083493296   13.920511495   13.237834155
    1.226544240   15.106566052   13.941316313   13.255347295
    1.233722871   15.129857681   13.962317435   13.273018255
    1.240901503   15.153370146   13.983516597   13.290848285
    1.248080134   15.177105435   14.004915566   13.308838649
    1.255258765   15.201065573   14.026516133   13.326990633
    1.262437396   15.225252611   14.048320119   13.345305538
    1.269616027   15.249668635   14.070329371   13.363784684
    1.276794658   15.274315762   14.092545766   13.382429411
    1.283973289   15.299196142   14.114971208   13.401241076
    1.291151920   15.324311958   14.137607632   13.420221057
    1.298330551   15.349665423   14.160456998   13.439370751
    1.305509182   15.375258784   14.183521294   13.458691576
    1.312687813   15.401094336   14.206802555   13.478184969
    1.319866444   15.427174424   14.230302860   13.497852389
    1.327045075   15.453501406   14.254024297   13.517695316
    1.334223706   15.480077674   14.277968984   13.537715249
    1.341402337   15.506905664   14.302139076   13.557913712
    1.348580968   15.533987854   14.326536766   13.578292250
    1.355759599   15.561326760   14.351164284   13.598852431
    1.362938230   15.588924941   14.376023893   13.619595844
    1.370116861   15.616784997   14.401117893   13.640524104
    1.377295492   15.644909569   14.426448624   13.661638849
    1.384474124   15.673301343   14.452018462   13.682941740
    1.391652755   15.701963048   14.477829820   13.704434464
    1.398831386   15.730897458   14.503885153   13.726118733
    1.406010017   15.760107394   14.530186957   13.747996283
    1.413188648   15.789595723   14.556737767   13.770068878
    1.420367279   15.819365360   14.583540160   13.792338308
    1.427545910   15.849419268   14.610596758   13.814806389
    1.434724541   15.879760460   14.637910225   13.837474966
    1.441903172   15.910392001   14.665483271   13.860345909
    1.449081803   15.941317007   14.693318648   13.883421120
    1.456260434   15.972538648   14.721419161   13.906702528
    1.463439065   16.004060146   14.749787656   13.930192092
    1.470617696   16.035884780   14.778427031   13.953891801
    1.477796327   16.068015885   14.807340234   13.977803675
    1.484974958   16.100456855   14.836530262   14.001929765
    1.492153589   16.133211141   14.866000164   14.026272154
    1.499332220   16.166282255   14.895753043   14.050832957
    1.506510851   16.199673770   14.925792056   14.075614323
    1.513689482   16.233389324   14.956120413   14.100618433
    1.520868114   16.267432617   14.986741383   14.125847504
    1.528046745   16.301807417   15.017658291   14.151303789
    1.535225376   16.336517556   15.048874523   14.176989573
    1.542404007   16.371566939   15.080393524   14.202907182
    1.549582638   16.406959537   15.112218800   14.229058975
    1.556761269   16.442699394   15.144353919   14.255447349
    1.563939900   16.478790623   15.176802512   14.282074734
    1.571118531   16.515237420   15.209568279   14.308943610
    1.578297162   16.552044068   15.242655000   14.336056506
    1.585475793   16.589214918   15.276066514   14.363415977
    1.592654424   16.626754397   15.309806724   14.391024617
    1.599833055   16.664667017   15.343879610   14.418885081
    1.607011686   16.702957374   15.378289224   14.447000056
    1.614190317   16.741630146   15.413039690   14.475372268
    1.621368948   16.780690086   15.448135197   14.504004492
    1.628547579   16.820142042   15.483580018   14.532899550
    1.635726210   16.859991029   15.519378576   14.562060314
    1.642904841   16.900242129   15.555535354   14.591489703
    1.650083472   16.940900469   15.592054866   14.621190684
    1.657262104   16.981971285   15.628941725   14.651166273
    1.664440735   17.023459926   15.666200644   14.681419544
    1.671619366   17.065371853   15.703836433   14.711953630
    1.678797997   17.107712634   15.741853994   14.742771708
    1.685976628   17.150487946   15.780258330   14.773877008
    1.693155259   17.193703582   15.819054541   14.805272819
    1.700333890   17.237365452   15.858247829   14.836962488
    1.707512521   17.281479584   15.897843502   14.868949421
    1.714691152   17.326052130   15.937846974   14.901237086
    1.721869783   17.371089368   15.978263772   14.933829012
    1.729048414   17.416597705   16.019099533   14.966728790
    1.736227045   17.462583679   16.060360010   14.999940074
    1.743405676   17.509053963   16.102051075   15.033466583
    1.750584307   17.556015364   16.144178713   15.067312098
    1.757762938   17.603474853   16.186749058   15.101480486
    1.764941569   17.651439559   16.229768382   15.135975698
    1.772120200   17.699916735   16.273243063   15.170801728
    1.779298831   17.748913782   16.317179607   15.205962634
    1.786477462   17.798438270   16.361584665   15.241462543
    1.793656093   17.848497960   16.406465063   15.277305682
    1.800834725   17.899100772   16.451827765   15.313496424
    1.808013356   17.950254768   16.497679861   15.350039181
    1.815191987   18.001968233   16.544028626   15.386938400
    1.822370618   18.054249657   16.590881521   15.424198629
    1.829549249   18.107107677   16.638246131   15.461824514
    1.836727880   18.160551119   16.686130212   15.499820793
    1.843906511   18.214589022   16.734541703   15.538192298
    1.851085142   18.269230640   16.783488732   15.576943957
    1.858263773   18.324485441   16.832979614   15.616080794
    1.865442404   18.380363114   16.883022856   15.655607932
    1.872621035   18.436873577   16.933627165   15.695530597
    1.879799666   18.494026978   16.984801445   15.735854111
    1.886978297   18.551833699   17.036554791   15.776583891
    1.894156928   18.610304371   17.088896517   15.817725464
    1.901335559   18.669449939   17.141836274   15.859284552
    1.908514190   18.729281601   17.195383920   15.901266980
    1.915692821   18.789810785   17.249549460   15.943678616
    1.922871452   18.851049209   17.304343157   15.986525465
    1.930050083   18.913008895   17.359775547   16.029813670
    1.937228715   18.975702169   17.415857444   16.073549510
    1.944407346   19.039141676   17.472599952   16.117739397
    1.951585977   19.103340382   17.530014442   16.162389882
    1.958764608   19.168311588   17.588112569   16.207507657
    1.965943239   19.234068941   17.646906299   16.253099559
    1.973121870   19.300626449   17.706407910   16.299172575
    1.980300501   19.367998486   17.766630006   16.345733844
    1.987479132   19.436199809   17.827585522   16.392790659
    1.994657763   19.505245545   17.889287726   16.440350460
    2.001836394   19.575151210   17.951750233   16.488420823
    2.009015025   19.645932827   18.014987083   16.537009546
    2.016193656   19.717606936   18.079012761   16.586124691
    2.023372287   19.790190489   18.143842080   16.635774509
    2.030550918   19.863700845   18.209490232   16.685967332
    2.037729549   19.938155830   18.275972861   16.736711659
    2.044908180   20.013573811   18.343306067   16.788016220
    2.052086811   20.089973702   18.411506422   16.839889967
    2.059265442   20.167374973   18.480590981   16.892342071
    2.066444073   20.245797673   18.550577301   16.945381926
    2.073622705   20.325262446   18.621483462   16.999019152
    2.080801336   20.405790558   18.693328090   17.053263607
    2.087979967   20.487403924   18.766130372   17.108125391
    2.095158598   20.570125130   18.839910089   17.163614856
    2.102337229   20.653977464   18.914687631   17.219742605
    2.109515860   20.738984945   18.990484030   17.276519497
    2.116694491   20.825172351   19.067320980   17.333956641
    2.123873122   20.912565255   19.145220873   17.392065356
    2.131051753   21.001190052   19.224206818   17.450857303
    2.138230384   21.091074001   19.304302670   17.510344938
    2.145409015   21.182245237   19.385533047   17.570540776
    2.152587646   21.274732844   19.467923432   17.631457309
    2.159766277   21.368566825   19.551500160   17.693107402
    2.166944908   21.463777909   19.636290263   17.755504341
    2.174123539   21.560398298   19.722322001   17.818662022
    2.181302170   21.658461767   19.809625005   17.882594602
    2.188480801   21.758002601   19.898229441   17.947316544
    2.195659432   21.859057239   19.988166462   18.012843092
    2.202838063   21.961662899   20.079468438   18.079189653
    2.210016694   22.065857503   20.172168956   18.146371899
    2.217195326   22.171680632   20.266302865   18.214406045
    2.224373957   22.279173487   20.361906280   18.283308831
    2.231552588   22.388378754   20.459016508   18.353097482
    2.238731219   22.499340658   20.557672090   18.423789707
    2.245909850   22.612105800   20.657913744   18.495403784
    2.253088481   22.726722833   20.759783896   18.567958526
    2.260267112   22.843241648   20.863326519   18.641473535
    2.267445743   22.961714202   20.968588308   18.715969224
    2.274624374   23.082194437   21.075616547   18.791466183
    2.281803005   23.204738325   21.184460157   18.867985515
    2.288981636   23.329404572   21.295170505   18.945549211
    2.296160267   23.456255586   21.407801437   19.024180413
    2.303338898   23.585355614   21.522409208   19.103902749
    2.310517529   23.716770847   21.639052454   19.184740403
    2.317696160   23.850570718   21.757792462   19.266718471
    2.324874791   23.986828857   21.878693444   19.349863080
    2.332053422   24.125622122   22.001822581   19.434201259
    2.339232053   24.267030237   22.127250146   19.519760903
    2.346410684   24.411136844   22.255049782   19.606570928
    2.353589316   24.558029768   22.385298683   19.694661314
    2.360767947   24.707801128   22.518077674   19.784063140
    2.367946578   24.860547559   22.653471559   19.874808646
    2.375125209   25.016370902   22.791570493   19.966931389
    2.382303840   25.175378748   22.932469617   20.060466220
    2.389482471   25.337683839   23.076267965   20.155449231
    2.396661102   25.503404644   23.223069797   20.251917939
    2.403839733   25.672666299   23.372985426   20.349911516
    2.411018364   25.845600956   23.526131435   20.449470671
    2.418196995   26.022348444   23.682631132   20.550637752
    2.425375626   26.203056583   23.842614997   20.653457034
    2.432554257   26.387881526   24.006220999   20.757974463
    2.439732888   26.576989107   24.173595821   20.864238297
    2.446911519   26.770555878   24.344895834   20.972299450
    2.454090150   26.968768868   24.520286638   21.082210424
    2.461268781   27.171826811   24.699944250   21.194026010
    2.468447412   27.379941512   24.884056432   21.307803729
    2.475626043   27.593338834   25.072823504   21.423603784
    2.482804674   27.812259644   25.266459034   21.541488883
    2.489983306   28.036961140   25.465190926   21.661524721
    2.497161937   28.267719638   25.669264967   21.783782797
    2.504340568   28.504832518   25.878947366   21.908338471
    2.511519199   28.748620653   26.094524691   22.035268581
    2.518697830   28.999427818   26.316303305   22.164654124
    2.525876461   29.257622868   26.544612506   22.296580931
    2.533055092   29.523604088   26.779807898   22.431139651
    2.540233723   29.797804612   27.022276654   22.568426752
