# energy grid [eV]     epsr_x  epsr_y  epsr_z
#
    0.200000000    9.450729957   10.323796904    4.746149769
    0.207178631    9.452500035   10.325599003    4.746830128
    0.214357262    9.454333376   10.327465423    4.747534778
    0.221535893    9.456230070   10.329396244    4.748263752
    0.228714524    9.458190210   10.331391552    4.749017083
    0.235893155    9.460213890   10.333451434    4.749794804
    0.243071786    9.462301210   10.335575978    4.750596950
    0.250250417    9.464452270   10.337765279    4.751423557
    0.257429048    9.466667176   10.340019432    4.752274663
    0.264607679    9.468946036   10.342338536    4.753150307
    0.271786311    9.471288962   10.344722693    4.754050527
    0.278964942    9.473696068   10.347172007    4.754975364
    0.286143573    9.476167472   10.349686586    4.755924861
    0.293322204    9.478703295   10.352266541    4.756899060
    0.300500835    9.481303662   10.354911984    4.757898006
    0.307679466    9.483968701   10.357623033    4.758921744
    0.314858097    9.486698542   10.360399807    4.759970320
    0.322036728    9.489493321   10.363242429    4.761043783
    0.329215359    9.492353174   10.366151024    4.762142181
    0.336393990    9.495278243   10.369125721    4.763265564
    0.343572621    9.498268673   10.372166651    4.764413983
    0.350751252    9.501324612   10.375273950    4.765587492
    0.357929883    9.504446211   10.378447755    4.766786144
    0.365108514    9.507633626   10.381688207    4.768009993
    0.372287145    9.510887013   10.384995451    4.769259097
    0.379465776    9.514206537   10.388369633    4.770533512
    0.386644407    9.517592360   10.391810905    4.771833298
    0.393823038    9.521044654   10.395319419    4.773158513
    0.401001669    9.524563590   10.398895333    4.774509220
    0.408180301    9.528149345   10.402538806    4.775885481
    0.415358932    9.531802097   10.406250002    4.777287359
    0.422537563    9.535522031   10.410029088    4.778714920
    0.429716194    9.539309334   10.413876233    4.780168230
    0.436894825    9.543164195   10.417791610    4.781647356
    0.444073456    9.547086811   10.421775395    4.783152368
    0.451252087    9.551077378   10.425827769    4.784683335
    0.458430718    9.555136099   10.429948915    4.786240330
    0.465609349    9.559263180   10.434139018    4.787823425
    0.472787980    9.563458830   10.438398270    4.789432694
    0.479966611    9.567723262   10.442726862    4.791068213
    0.487145242    9.572056694   10.447124993    4.792730060
    0.494323873    9.576459348   10.451592862    4.794418311
    0.501502504    9.580931447   10.456130673    4.796133048
    0.508681135    9.585473222   10.460738633    4.797874352
    0.515859766    9.590084906   10.465416954    4.799642304
    0.523038397    9.594766736   10.470165849    4.801436989
    0.530217028    9.599518952   10.474985536    4.803258493
    0.537395659    9.604341802   10.479876238    4.805106901
    0.544574290    9.609235533   10.484838179    4.806982304
    0.551752922    9.614200400   10.489871588    4.808884789
    0.558931553    9.619236661   10.494976699    4.810814449
    0.566110184    9.624344578   10.500153747    4.812771377
    0.573288815    9.629524417   10.505402972    4.814755666
    0.580467446    9.634776450   10.510724620    4.816767413
    0.587646077    9.640100952   10.516118937    4.818806714
    0.594824708    9.645498201   10.521586175    4.820873669
    0.602003339    9.650968483   10.527126590    4.822968378
    0.609181970    9.656512086   10.532740441    4.825090944
    0.616360601    9.662129303   10.538427992    4.827241469
    0.623539232    9.667820432   10.544189510    4.829420059
    0.630717863    9.673585775   10.550025267    4.831626820
    0.637896494    9.679425638   10.555935538    4.833861862
    0.645075125    9.685340335   10.561920604    4.836125295
    0.652253756    9.691330181   10.567980747    4.838417229
    0.659432387    9.697395497   10.574116256    4.840737780
    0.666611018    9.703536610   10.580327423    4.843087061
    0.673789649    9.709753851   10.586614544    4.845465189
    0.680968280    9.716047556   10.592977920    4.847872284
    0.688146912    9.722418066   10.599417856    4.850308466
    0.695325543    9.728865726   10.605934662    4.852773856
    0.702504174    9.735390889   10.612528651    4.855268579
    0.709682805    9.741993911   10.619200141    4.857792760
    0.716861436    9.748675152   10.625949456    4.860346527
    0.724040067    9.755434981   10.632776923    4.862930010
    0.731218698    9.762273769   10.639682872    4.865543339
    0.738397329    9.769191894   10.646667642    4.868186648
    0.745575960    9.776189739   10.653731573    4.870860071
    0.752754591    9.783267693   10.660875010    4.873563747
    0.759933222    9.790426150   10.668098305    4.876297812
    0.767111853    9.797665510   10.675401813    4.879062409
    0.774290484    9.804986178   10.682785894    4.881857681
    0.781469115    9.812388566   10.690250914    4.884683771
    0.788647746    9.819873091   10.697797241    4.887540828
    0.795826377    9.827440175   10.705425253    4.890428999
    0.803005008    9.835090249   10.713135328    4.893348436
    0.810183639    9.842823747   10.720927853    4.896299292
    0.817362270    9.850641110   10.728803217    4.899281723
    0.824540902    9.858542786   10.736761816    4.902295885
    0.831719533    9.866529228   10.744804051    4.905341938
    0.838898164    9.874600897   10.752930329    4.908420044
    0.846076795    9.882758259   10.761141061    4.911530366
    0.853255426    9.891001787   10.769436665    4.914673072
    0.860434057    9.899331960   10.777817563    4.917848330
    0.867612688    9.907749265   10.786284182    4.921056309
    0.874791319    9.916254194   10.794836958    4.924297185
    0.881969950    9.924847248   10.803476330    4.927571131
    0.889148581    9.933528932   10.812202742    4.930878326
    0.896327212    9.942299761   10.821016646    4.934218950
    0.903505843    9.951160256   10.829918499    4.937593186
    0.910684474    9.960110944   10.838908764    4.941001220
    0.917863105    9.969152360   10.847987910    4.944443238
    0.925041736    9.978285048   10.857156412    4.947919431
    0.932220367    9.987509556   10.866414750    4.951429993
    0.939398998    9.996826444   10.875763414    4.954975118
    0.946577629   10.006236275   10.885202896    4.958555005
    0.953756260   10.015739624   10.894733696    4.962169854
    0.960934891   10.025337070   10.904356321    4.965819869
    0.968113523   10.035029204   10.914071285    4.969505256
    0.975292154   10.044816621   10.923879106    4.973226225
    0.982470785   10.054699927   10.933780312    4.976982987
    0.989649416   10.064679736   10.943775436    4.980775756
    0.996828047   10.074756670   10.953865017    4.984604751
    1.004006678   10.084931358   10.964049603    4.988470192
    1.011185309   10.095204440   10.974329747    4.992372302
    1.018363940   10.105576564   10.984706012    4.996311308
    1.025542571   10.116048386   10.995178964    5.000287439
    1.032721202   10.126620572   11.005749181    5.004300929
    1.039899833   10.137293798   11.016417244    5.008352013
    1.047078464   10.148068748   11.027183744    5.012440930
    1.054257095   10.158946114   11.038049280    5.016567922
    1.061435726   10.169926601   11.049014458    5.020733234
    1.068614357   10.181010921   11.060079889    5.024937116
    1.075792988   10.192199797   11.071246197    5.029179820
    1.082971619   10.203493961   11.082514010    5.033461601
    1.090150250   10.214894157   11.093883965    5.037782719
    1.097328881   10.226401137   11.105356709    5.042143435
    1.104507513   10.238015666   11.116932895    5.046544017
    1.111686144   10.249738517   11.128613185    5.050984733
    1.118864775   10.261570474   11.140398251    5.055465857
    1.126043406   10.273512334   11.152288771    5.059987667
    1.133222037   10.285564904   11.164285433    5.064550443
    1.140400668   10.297729002   11.176388935    5.069154470
    1.147579299   10.310005456   11.188599982    5.073800036
    1.154757930   10.322395109   11.200919290    5.078487435
    1.161936561   10.334898813   11.213347582    5.083216962
    1.169115192   10.347517432   11.225885593    5.087988919
    1.176293823   10.360251844   11.238534064    5.092803609
    1.183472454   10.373102938   11.251293750    5.097661343
    1.190651085   10.386071615   11.264165412    5.102562434
    1.197829716   10.399158791   11.277149822    5.107507198
    1.205008347   10.412365392   11.290247763    5.112495958
    1.212186978   10.425692359   11.303460027    5.117529040
    1.219365609   10.439140646   11.316787417    5.122606776
    1.226544240   10.452711220   11.330230745    5.127729500
    1.233722871   10.466405063   11.343790836    5.132897552
    1.240901503   10.480223170   11.357468524    5.138111279
    1.248080134   10.494166549   11.371264655    5.143371029
    1.255258765   10.508236226   11.385180084    5.148677158
    1.262437396   10.522433239   11.399215679    5.154030024
    1.269616027   10.536758640   11.413372320    5.159429992
    1.276794658   10.551213500   11.427650896    5.164877433
    1.283973289   10.565798902   11.442052311    5.170372722
    1.291151920   10.580515946   11.456577477    5.175916237
    1.298330551   10.595365748   11.471227322    5.181508367
    1.305509182   10.610349440   11.486002783    5.187149501
    1.312687813   10.625468172   11.500904811    5.192840036
    1.319866444   10.640723108   11.515934370    5.198580375
    1.327045075   10.656115431   11.531092436    5.204370927
    1.334223706   10.671646341   11.546379999    5.210212104
    1.341402337   10.687317056   11.561798059    5.216104328
    1.348580968   10.703128812   11.577347635    5.222048025
    1.355759599   10.719082863   11.593029754    5.228043626
    1.362938230   10.735180482   11.608845459    5.234091570
    1.370116861   10.751422960   11.624795809    5.240192302
    1.377295492   10.767811609   11.640881874    5.246346274
    1.384474124   10.784347760   11.657104741    5.252553944
    1.391652755   10.801032763   11.673465510    5.258815776
    1.398831386   10.817867990   11.689965296    5.265132242
    1.406010017   10.834854833   11.706605230    5.271503820
    1.413188648   10.851994704   11.723386458    5.277930996
    1.420367279   10.869289040   11.740310142    5.284414263
    1.427545910   10.886739296   11.757377459    5.290954122
    1.434724541   10.904346951   11.774589604    5.297551078
    1.441903172   10.922113509   11.791947785    5.304205649
    1.449081803   10.940040492   11.809453231    5.310918357
    1.456260434   10.958129451   11.827107184    5.317689732
    1.463439065   10.976381959   11.844910905    5.324520314
    1.470617696   10.994799611   11.862865674    5.331410650
    1.477796327   11.013384032   11.880972785    5.338361295
    1.484974958   11.032136869   11.899233555    5.345372812
    1.492153589   11.051059795   11.917649314    5.352445775
    1.499332220   11.070154511   11.936221415    5.359580765
    1.506510851   11.089422744   11.954951229    5.366778372
    1.513689482   11.108866251   11.973840144    5.374039195
    1.520868114   11.128486812   11.992889570    5.381363844
    1.528046745   11.148286241   12.012100937    5.388752936
    1.535225376   11.168266379   12.031475695    5.396207099
    1.542404007   11.188429095   12.051015313    5.403726972
    1.549582638   11.208776292   12.070721284    5.411313201
    1.556761269   11.229309902   12.090595120    5.418966446
    1.563939900   11.250031888   12.110638355    5.426687374
    1.571118531   11.270944243   12.130852543    5.434476664
    1.578297162   11.292048990   12.151239255    5.442335001
    1.585475793   11.313348187   12.171800085    5.450263085
    1.592654424   11.334843949   12.192536684    5.458261637
    1.599833055   11.356538419   12.213450714    5.466331387
    1.607011686   11.378433757   12.234543836    5.474473066
    1.614190317   11.400532162   12.255817744    5.482687419
    1.621368948   11.422835874   12.277274157    5.490975206
    1.628547579   11.445347174   12.298914826    5.499337198
    1.635726210   11.468068380   12.320741523    5.507774182
    1.642904841   11.491001851   12.342756051    5.516286955
    1.650083472   11.514149987   12.364960237    5.524876330
    1.657262104   11.537515230   12.387355937    5.533543132
    1.664440735   11.561100062   12.409945034    5.542288199
    1.671619366   11.584907010   12.432729441    5.551112386
    1.678797997   11.608938646   12.455711097    5.560016560
    1.685976628   11.633197586   12.478891973    5.569001605
    1.693155259   11.657686494   12.502274070    5.578068417
    1.700333890   11.682408080   12.525859418    5.587217912
    1.707512521   11.707365101   12.549650080    5.596451018
    1.714691152   11.732560368   12.573648150    5.605768678
    1.721869783   11.757996739   12.597855752    5.615171846
    1.729048414   11.783677122   12.622275038    5.624661464
    1.736227045   11.809604480   12.646908187    5.634238449
    1.743405676   11.835781832   12.671757433    5.643903858
    1.750584307   11.862212260   12.696825078    5.653658909
    1.757762938   11.888898895   12.722113416    5.663504633
    1.764941569   11.915844923   12.747624768    5.673442028
    1.772120200   11.943053592   12.773361499    5.683472156
    1.779298831   11.970528211   12.799326020    5.693596119
    1.786477462   11.998272153   12.825520777    5.703815042
    1.793656093   12.026288855   12.851948258    5.714130073
    1.800834725   12.054581819   12.878610992    5.724542381
    1.808013356   12.083154615   12.905511548    5.735053157
    1.815191987   12.112010882   12.932652535    5.745663612
    1.822370618   12.141154328   12.960036608    5.756374981
    1.829549249   12.170588735   12.987666460    5.767188521
    1.836727880   12.200317956   13.015544825    5.778105510
    1.843906511   12.230345920   13.043674473    5.789127247
    1.851085142   12.260676640   13.072058255    5.800255069
    1.858263773   12.291314214   13.100699081    5.811490342
    1.865442404   12.322262804   13.129599863    5.822834444
    1.872621035   12.353526667   13.158763566    5.834288779
    1.879799666   12.385110159   13.188193236    5.845854781
    1.886978297   12.417017711   13.217891953    5.857533912
    1.894156928   12.449253841   13.247862840    5.869327665
    1.901335559   12.481823153   13.278109079    5.881237560
    1.908514190   12.514730334   13.308633902    5.893265149
    1.915692821   12.547980164   13.339440597    5.905412013
    1.922871452   12.581577626   13.370532538    5.917679767
    1.930050083   12.615527791   13.401913154    5.930070058
    1.937228715   12.649835752   13.433585907    5.942584566
    1.944407346   12.684506716   13.465554325    5.955225004
    1.951585977   12.719546023   13.497822003    5.967993122
    1.958764608   12.754959136   13.530392599    5.980890703
    1.965943239   12.790751635   13.563269839    5.993919572
    1.973121870   12.826929227   13.596457517    6.007081588
    1.980300501   12.863497743   13.629959492    6.020378649
    1.987479132   12.900463144   13.663779697    6.033812696
    1.994657763   12.937831525   13.697922131    6.047385710
    2.001836394   12.975609116   13.732390868    6.061099711
    2.009015025   13.013802283   13.767190045    6.074956768
    2.016193656   13.052417547   13.802323890    6.088958992
    2.023372287   13.091461602   13.837796737    6.103108538
    2.030550918   13.130941277   13.873612979    6.117407613
    2.037729549   13.170863550   13.909777073    6.131858469
    2.044908180   13.211235567   13.946293565    6.146463404
    2.052086811   13.252064644   13.983167092    6.161224763
    2.059265442   13.293358264   14.020402375    6.176144916
    2.066444073   13.335124094   14.058004229    6.191226299
    2.073622705   13.377370030   14.095977583    6.206471527
    2.080801336   13.420104143   14.134327452    6.221883219
    2.087979967   13.463334670   14.173058933    6.237463966
    2.095158598   13.507070059   14.212177220    6.253216435
    2.102337229   13.551318970   14.251687607    6.269143364
    2.109515860   13.596090279   14.291595477    6.285247550
    2.116694491   13.641393109   14.331906379    6.301531908
    2.123873122   13.687236823   14.372625997    6.317999452
    2.131051753   13.733630971   14.413760056    6.334653197
    2.138230384   13.780585342   14.455314385    6.351496225
    2.145409015   13.828110104   14.497294973    6.368531707
    2.152587646   13.876215691   14.539707940    6.385762900
    2.159766277   13.924912702   14.582559503    6.403193138
    2.166944908   13.974212027   14.625856012    6.420825839
    2.174123539   14.024124870   14.669603953    6.438664509
    2.181302170   14.074662730   14.713809932    6.456712738
    2.188480801   14.125837393   14.758480676    6.474974211
    2.195659432   14.177661038   14.803623101    6.493452705
    2.202838063   14.230146320   14.849244369    6.512152097
    2.210016694   14.283306110   14.895351694    6.531076361
    2.217195326   14.337153585   14.941952401    6.550229577
    2.224373957   14.391702332   14.989053997    6.569615932
    2.231552588   14.446966349   15.036664164    6.589239725
    2.238731219   14.502960026   15.084790737    6.609105368
    2.245909850   14.559698146   15.133441694    6.629217394
    2.253088481   14.617196005   15.182625258    6.649580458
    2.260267112   14.675469507   15.232349973    6.670199344
    2.267445743   14.734534881   15.282624436    6.691078967
    2.274624374   14.794408770   15.333457373    6.712224379
    2.281803005   14.855108327   15.384857749    6.733640774
    2.288981636   14.916651265   15.436834752    6.755333491
    2.296160267   14.979056084   15.489397788    6.777308026
    2.303338898   15.042341835   15.542556486    6.799570028
    2.310517529   15.106527977   15.596320696    6.822125313
    2.317696160   15.171634630   15.650700483    6.844979865
    2.324874791   15.237682606   15.705706115    6.868139845
    2.332053422   15.304693429   15.761348140    6.891611597
    2.339232053   15.372689379   15.817637566    6.915401662
    2.346410684   15.441693474   15.874585555    6.939516775
    2.353589316   15.511729503   15.932203405    6.963963874
    2.360767947   15.582822089   15.990502736    6.988750112
    2.367946578   15.654996718   16.049495486    7.013882864
    2.375125209   15.728279784   16.109193901    7.039369738
    2.382303840   15.802698630   16.169610543    7.065218583
    2.389482471   15.878281587   16.230758292    7.091437499
    2.396661102   15.955058030   16.292650364    7.118034848
    2.403839733   16.033058423   16.355300317    7.145019263
    2.411018364   16.112314374   16.418722061    7.172399662
    2.418196995   16.192858695   16.482929880    7.200185260
    2.425375626   16.274725460   16.547938434    7.228385580
    2.432554257   16.357950071   16.613762778    7.257010468
    2.439732888   16.442569328   16.680418376    7.286070106
    2.446911519   16.528621500   16.747921114    7.315575031
    2.454090150   16.616146403   16.816287318    7.345536144
    2.461268781   16.705185488   16.885533766    7.375964732
    2.468447412   16.795781921   16.955677704    7.406872485
    2.475626043   16.887980674   17.026736857    7.438271509
    2.482804674   16.981828594   17.098729407    7.470174340
    2.489983306   17.077374490   17.171673984    7.502593958
    2.497161937   17.174669485   17.245589912    7.535543857
    2.504340568   17.273767203   17.320497404    7.569038084
    2.511519199   17.374723331   17.396416957    7.603091183
    2.518697830   17.477596045   17.473369517    7.637718268
    2.525876461   17.582446409   17.551376839    7.672935032
    2.533055092   17.689338275   17.630461306    7.708757756
    2.540233723   17.798338396   17.710645921    7.745203360
