# energy grid [eV]     epsr_x  epsr_y  epsr_z
#
    0.200000000   17.373265045   17.208613838    9.792209689
    0.207178631   17.378206254   17.213122270    9.794450721
    0.214357262   17.383330653   17.217793858    9.796774970
    0.221535893   17.388639290   17.222629059    9.799182929
    0.228714524   17.394133271   17.227628350    9.801675117
    0.235893155   17.399813761   17.232792227    9.804252080
    0.243071786   17.405681994   17.238121207    9.806914400
    0.250250417   17.411739268   17.243615831    9.809662685
    0.257429048   17.417986957   17.249276657    9.812497581
    0.264607679   17.424426509   17.255104271    9.815419770
    0.271786311   17.431059455   17.261099279    9.818429971
    0.278964942   17.437887413   17.267262311    9.821528946
    0.286143573   17.444912093   17.273594025    9.824717497
    0.293322204   17.452135305   17.280095102    9.827996477
    0.300500835   17.459558961   17.286766253    9.831366784
    0.307679466   17.467185090   17.293608215    9.834829373
    0.314858097   17.475015841   17.300621756    9.838385254
    0.322036728   17.483053493   17.307807673    9.842035499
    0.329215359   17.491300467   17.315166798    9.845781244
    0.336393990   17.499759333   17.322699994    9.849623699
    0.343572621   17.508432830   17.330408162    9.853564149
    0.350751252   17.517323870   17.338292239    9.857603962
    0.357929883   17.526435560   17.346353202    9.861744595
    0.365108514   17.535771219   17.354592070    9.865987606
    0.372287145   17.545334393   17.363009909    9.870334655
    0.379465776   17.555128879   17.371607827    9.874787522
    0.386644407   17.565158748   17.380386988    9.879348112
    0.393823038   17.575428371   17.389348607    9.884018468
    0.401001669   17.585942452   17.398493957    9.888800787
    0.408180301   17.596706059   17.407824375    9.893697433
    0.415358932   17.607724662   17.417341263    9.898710957
    0.422537563   17.619004179   17.427046099    9.903844112
    0.429716194   17.630551025   17.436940435    9.909099879
    0.436894825   17.642372167   17.447025914    9.914481491
    0.444073456   17.654475191   17.457304269    9.919992464
    0.451252087   17.666868372   17.467777339    9.925636625
    0.458430718   17.679560767   17.478447073    9.931418155
    0.465609349   17.692562306   17.489315548    9.937341631
    0.472787980   17.705883911   17.500384978    9.943412075
    0.479966611   17.719537629   17.511657732    9.949635017
    0.487145242   17.733536788   17.523136353    9.956016558
    0.494323873   17.747896177   17.534823575    9.962563457
    0.501502504   17.762632266   17.546722356    9.969283218
    0.508681135   17.777763458   17.558835898    9.976184209
    0.515859766   17.793310394   17.571167688    9.983275789
    0.523038397   17.809296316   17.583721539    9.990568469
    0.530217028   17.825747501   17.596501636    9.998074100
    0.537395659   17.842693791   17.609512598   10.005806102
    0.544574290   17.860169230   17.622759550   10.013779743
    0.551752922   17.878212854   17.636248210   10.022012476
    0.558931553   17.896869648   17.649984995   10.030524355
    0.566110184   17.916191755   17.663977157   10.039338553
    0.573288815   17.936239963   17.678232943   10.048482006
    0.580467446   17.957085601   17.692761809   10.057986220
    0.587646077   17.978812932   17.707574680   10.067888302
    0.594824708   18.001522236   17.722684282   10.078232276
    0.602003339   18.025333790   17.738105586   10.089070783
    0.609181970   18.050393087   17.753856364   10.100467310
    0.616360601   18.076877735   17.769957947   10.112499128
    0.623539232   18.105006695   17.786436215   10.125261222
    0.630717863   18.135052777   17.803322957   10.138871604
    0.637896494   18.167359782   17.820657708   10.153478596
    0.645075125   18.202366260   17.838490317   10.169270907
    0.652253756   18.240638792   17.856884515   10.186491745
    0.659432387   18.282918942   17.875922968   10.205458709
    0.666611018   18.330189424   17.895714364   10.226591813
    0.673789649   18.383765643   17.916403241   10.250452228
    0.680968280   18.445414272   17.938182686   10.277792473
    0.688146912   18.517475111   17.961307417   10.309608008
    0.695325543   18.602855567   17.986093256   10.347135099
    0.702504174   18.704344008   18.012843903   10.391561210
    0.709682805   18.821007448   18.041466377   10.442504672
    0.716861436   18.932902703   18.069838579   10.491561224
    0.724040067   18.946098494   18.087938791   10.499096858
    0.731218698   18.601863914   18.068148838   10.355914448
    0.738397329   17.848529735   18.004962578   10.040227169
    0.745575960   17.377648892   17.972238746    9.843987234
    0.752754591   17.334373874   17.985492526    9.828503016
    0.759933222   17.437337867   18.014697383    9.875045920
    0.767111853   17.558182712   18.046169281    9.929487123
    0.774290484   17.666417067   18.076679696    9.979024113
    0.781469115   17.758705783   18.105906602   10.022336504
    0.788647746   17.837480880   18.134152794   10.060563691
    0.795826377   17.905747720   18.161794487   10.095121597
    0.803005008   17.966012896   18.189171376   10.127263095
    0.810183639   18.020194842   18.216583393   10.158058345
    0.817362270   18.069736090   18.244311032   10.188466103
    0.824540902   18.115728797   18.272638039   10.219413302
    0.831719533   18.159013891   18.301865269   10.251846270
    0.838898164   18.200245781   18.332284707   10.286663415
    0.846076795   18.239901919   18.363989065   10.324169058
    0.853255426   18.278137710   18.396021074   10.361611683
    0.860434057   18.314126356   18.423142868   10.383823103
    0.867612688   18.344530234   18.428544969   10.342088034
    0.874791319   18.366748370   18.399091703   10.198333002
    0.881969950   18.390494522   18.379850998   10.083177149
    0.889148581   18.421254041   18.396080658   10.069816939
    0.896327212   18.454797973   18.427343609   10.099001862
    0.903505843   18.488618534   18.461391632   10.135211991
    0.910684474   18.522116699   18.495034293   10.169176597
    0.917863105   18.555264080   18.527819510   10.199557808
    0.925041736   18.588154479   18.559910226   10.226796206
    0.932220367   18.620893061   18.591554424   10.251574464
    0.939398998   18.653573325   18.622970424   10.274484564
    0.946577629   18.686275141   18.654332529   10.295985735
    0.953756260   18.719067203   18.685778354   10.316425123
    0.960934891   18.752009894   18.717418676   10.336065636
    0.968113523   18.785157713   18.749345691   10.355108988
    0.975292154   18.818561207   18.781639267   10.373712773
    0.982470785   18.852268530   18.814371634   10.392002726
    0.989649416   18.886326745   18.847610954   10.410081506
    0.996828047   18.920782971   18.881424195   10.428035043
    1.004006678   18.955685464   18.915879572   10.445937215
    1.011185309   18.991084702   18.951048802   10.463853388
    1.018363940   19.027034540   18.987009340   10.481843173
    1.025542571   19.063593502   19.023846780   10.499962689
    1.032721202   19.100826299   19.061657572   10.518266500
    1.039899833   19.138805656   19.100552260   10.536809395
    1.047078464   19.177614589   19.140659478   10.555648137
    1.054257095   19.217349306   19.182131010   10.574843309
    1.061435726   19.258122957   19.225148342   10.594461382
    1.068614357   19.300070593   19.269931321   10.614577173
    1.075792988   19.343355809   19.316749744   10.635276888
    1.082971619   19.388179780   19.365939140   10.656662024
    1.090150250   19.434793704   19.417922482   10.678854518
    1.097328881   19.483516097   19.473240366   10.702003659
    1.104507513   19.534756862   19.532592973   10.726295530
    1.111686144   19.589050273   19.596897525   10.751965934
    1.118864775   19.647097521   19.667362322   10.779317832
    1.126043406   19.709810778   19.745563260   10.808743312
    1.133222037   19.778313831   19.833444321   10.840744675
    1.140400668   19.853706114   19.932904484   10.875925740
    1.147579299   19.935805274   20.043598621   10.914828666
    1.154757930   20.017884431   20.153735082   10.957132712
    1.161936561   20.070071770   20.211159746   10.999007913
    1.169115192   20.034084573   20.116099318   11.032127283
    1.176293823   19.953814565   19.960033093   11.063727670
    1.183472454   19.924955340   19.946063454   11.103861789
    1.190651085   19.885259929   19.946431983   11.110640724
    1.197829716   19.793559847   19.711418194   10.988347862
    1.205008347   19.651747171   19.218584150   10.735348806
    1.212186978   19.611313016   18.966648609   10.600343262
    1.219365609   19.680861557   19.014134059   10.613393025
    1.226544240   19.784182862   19.156480254   10.674745552
    1.233722871   19.890547485   19.306709592   10.741929369
    1.240901503   19.993697308   19.439818497   10.803746737
    1.248080134   20.093034555   19.533176958   10.853390143
    1.255258765   20.188950343   19.560343096   10.883809720
    1.262437396   20.287478430   19.576157541   10.911597888
    1.269616027   20.395304611   19.643093198   10.955588670
    1.276794658   20.513318278   19.736957878   11.009534258
    1.283973289   20.640946901   19.835795851   11.067272691
    1.291151920   20.770347368   19.933136075   11.124405779
    1.298330551   20.861477026   20.024339707   11.166842864
    1.305509182   20.803849151   20.099350577   11.159202860
    1.312687813   20.576241325   20.162825736   11.105952760
    1.319866444   20.467063474   20.244074658   11.098328010
    1.327045075   20.521613732   20.336096327   11.133853747
    1.334223706   20.526437273   20.400953090   11.138502381
    1.341402337   20.366340529   20.414976214   11.073529390
    1.348580968   20.269812770   20.435099504   11.032928326
    1.355759599   20.327303095   20.456924926   11.053873906
    1.362938230   20.426767362   20.425655139   11.100670038
    1.370116861   20.529132869   20.365064482   11.160536014
    1.377295492   20.650065821   20.381093173   11.222572652
    1.384474124   20.720327654   20.420841076   11.253174047
    1.391652755   20.601514990   20.359354021   11.210039168
    1.398831386   20.394208747   20.259632011   11.152864109
    1.406010017   20.352041009   20.252987632   11.144494683
    1.413188648   20.411724535   20.293240719   11.132100553
    1.420367279   20.501210224   20.360217924   11.100960495
    1.427545910   20.616717373   20.450826862   11.106565146
    1.434724541   20.750099799   20.551214124   11.158378472
    1.441903172   20.887276609   20.651050456   11.226353054
    1.449081803   21.024113285   20.747623314   11.297227408
    1.456260434   21.159592297   20.840281704   11.367784537
    1.463439065   21.286001270   20.925284072   11.433577821
    1.470617696   21.379394293   20.992524306   11.480006734
    1.477796327   21.428290050   21.042623431   11.493097406
    1.484974958   21.460476482   21.101802812   11.476871932
    1.492153589   21.427680410   21.173054290   11.385530596
    1.499332220   21.368421806   21.249258569   11.266848161
    1.506510851   21.428217599   21.336162438   11.250330958
    1.513689482   21.559725311   21.431287348   11.301267538
    1.520868114   21.657978894   21.531451791   11.368462989
    1.528046745   21.637505231   21.636122181   11.435652153
    1.535225376   21.600583610   21.744468897   11.500671855
    1.542404007   21.674126173   21.847553485   11.563890730
    1.549582638   21.752795987   21.909694755   11.621353097
    1.556761269   21.718522910   21.877715623   11.656371432
    1.563939900   21.650775670   21.793269356   11.642595665
    1.571118531   21.681451145   21.767662279   11.618621464
    1.578297162   21.816685028   21.844352841   11.643567471
    1.585475793   21.996222955   21.970332685   11.698433569
    1.592654424   22.176319187   22.100472876   11.761526884
    1.599833055   22.302583594   22.190594253   11.825278761
    1.607011686   22.276715789   22.172720006   11.884819191
    1.614190317   22.130535838   22.100860807   11.934428814
    1.621368948   21.982150777   22.120846469   11.960818263
    1.628547579   21.855909471   22.196015303   11.958994839
    1.635726210   21.867433988   22.282386816   11.958900038
    1.642904841   21.985412839   22.391598859   11.988832104
    1.650083472   22.125316903   22.508893919   12.019839388
    1.657262104   22.249729103   22.608188623   12.028151714
    1.664440735   22.378972973   22.675669840   12.049337704
    1.671619366   22.519098533   22.725897853   12.093924636
    1.678797997   22.665853133   22.819807312   12.163813005
    1.685976628   22.813168269   22.948991289   12.244483480
    1.693155259   22.947591667   23.073504890   12.302983829
    1.700333890   23.040241532   23.148751522   12.286696215
    1.707512521   23.088465711   23.175853802   12.223699657
    1.714691152   23.163851946   23.239914989   12.234704828
    1.721869783   23.290579913   23.353287238   12.306436457
    1.729048414   23.426818117   23.461021761   12.376107853
    1.736227045   23.537842676   23.557400348   12.412465765
    1.743405676   23.576156867   23.655292745   12.372603099
    1.750584307   23.561990214   23.753306478   12.275806033
    1.757762938   23.637742900   23.895528196   12.272713380
    1.764941569   23.797105050   24.065704019   12.347319548
    1.772120200   23.982217039   24.206882205   12.414612052
    1.779298831   24.167430135   24.286651321   12.438622135
    1.786477462   24.336950305   24.361926896   12.473776711
    1.793656093   24.424627808   24.400480264   12.529813892
    1.800834725   24.351726036   24.381225646   12.587357829
    1.808013356   24.274082345   24.392624219   12.647780253
    1.815191987   24.372778772   24.513803626   12.726063276
    1.822370618   24.541933323   24.730936638   12.825948356
    1.829549249   24.625308382   24.937191245   12.896558149
    1.836727880   24.618076273   24.999019554   12.895122113
    1.843906511   24.657715695   24.793371530   12.823992926
    1.851085142   24.700423655   24.559263647   12.775401579
    1.858263773   24.736771636   24.548012158   12.757147308
    1.865442404   24.771582623   24.630244688   12.691944730
    1.872621035   24.865095652   24.754199915   12.615088430
    1.879799666   25.035582630   24.938989161   12.544471258
    1.886978297   25.267347186   25.198675349   12.582625989
    1.894156928   25.539942287   25.506707081   12.704798887
    1.901335559   25.835108684   25.820261132   12.833291294
    1.908514190   26.112713708   26.047036664   12.905261886
    1.915692821   26.301420036   26.071724557   12.902836613
    1.922871452   26.275962207   25.908236749   12.881677270
    1.930050083   25.929400793   25.603785129   12.852676462
    1.937228715   25.544981991   25.244538005   12.834616221
    1.944407346   25.429539440   25.160460421   12.871576223
    1.951585977   25.399586782   25.270465979   12.941678995
    1.958764608   25.386392199   25.461001199   13.037252320
    1.965943239   25.526558141   25.749593087   13.153953211
    1.973121870   25.789298362   26.087677194   13.278137357
    1.980300501   26.096965175   26.372600400   13.388731871
    1.987479132   26.364854500   26.441639596   13.455705817
    1.994657763   26.531249420   26.234600747   13.472369200
    2.001836394   26.629641276   26.006793535   13.460854516
    2.009015025   26.798002628   26.070610726   13.498065506
    2.016193656   26.965230611   26.294684902   13.545407759
    2.023372287   27.026326239   26.533166637   13.547671434
    2.030550918   27.153898394   26.796301215   13.598072780
    2.037729549   27.433315686   27.111995914   13.717564498
    2.044908180   27.765387678   27.455250202   13.836826331
    2.052086811   28.064309251   27.783702249   13.938249930
    2.059265442   28.270755294   28.056704801   14.059599009
    2.066444073   28.104690500   28.081252738   14.151940216
    2.073622705   27.507027548   27.878300510   14.163297093
    2.080801336   27.151140030   27.903684439   14.175036685
    2.087979967   27.173510369   28.093169083   14.154924864
    2.095158598   27.365427604   28.001117415   13.990984147
    2.102337229   27.610269767   27.504468882   13.752996054
    2.109515860   27.824950292   27.041976017   13.608917957
    2.116694491   28.026726419   26.939750517   13.643199517
    2.123873122   28.279316642   27.142358884   13.754234333
    2.131051753   28.476225718   27.396991957   13.858603098
    2.138230384   28.626634907   27.652632719   13.935883062
    2.145409015   28.821816391   27.985973972   13.969576079
    2.152587646   29.083721117   28.382154536   14.027408985
    2.159766277   29.391203008   28.800774260   14.142984861
    2.166944908   29.708294752   29.213400611   14.261312104
    2.174123539   30.059556691   29.623342648   14.396502335
    2.181302170   30.426148342   29.992930058   14.530142663
    2.188480801   30.776782342   30.270269268   14.619252214
    2.195659432   31.169681439   30.527173786   14.726057705
    2.202838063   31.572116869   30.803317965   14.882781705
    2.210016694   31.804895232   30.925794705   15.023387640
    2.217195326   31.940886811   30.780509621   15.105672705
    2.224373957   32.276121461   30.675208664   15.174716727
    2.231552588   32.682225651   30.792884325   15.231856712
    2.238731219   32.661259586   30.906639569   15.199996419
    2.245909850   31.432544672   30.561024424   14.943787031
    2.253088481   29.663303926   29.948356035   14.603568845
    2.260267112   29.159886421   29.955325432   14.458897758
    2.267445743   29.603140729   30.460761959   14.505500009
    2.274624374   30.227972968   31.075563955   14.704249058
    2.281803005   30.681336083   31.586192826   14.917931378
    2.288981636   31.005266277   31.907056711   15.099048128
    2.296160267   31.447438416   32.159362206   15.279873835
    2.303338898   31.991110603   32.489015703   15.461422142
    2.310517529   32.446980605   32.677862788   15.497334379
    2.317696160   32.728416174   32.658283326   15.331942169
    2.324874791   33.060046802   32.893403155   15.304116360
    2.332053422   33.553297074   33.353666871   15.513689543
    2.339232053   34.128753029   33.846696356   15.796006952
    2.346410684   34.638636450   34.211209090   15.944105369
    2.353589316   34.871691420   34.177003298   15.808722459
    2.360767947   34.960456818   34.061958794   15.640791137
    2.367946578   35.249914310   34.284557856   15.553849892
    2.375125209   35.609404728   34.641139173   15.352561038
    2.382303840   35.853864531   34.999237128   15.197942689
    2.389482471   36.050545956   35.417664618   15.217825360
    2.396661102   36.416959882   35.970689322   15.383614461
    2.403839733   36.556471450   36.315348150   15.458550431
    2.411018364   36.456376693   36.389884132   15.375818357
    2.418196995   36.543221372   36.493807811   15.224997569
    2.425375626   36.767949008   36.660943568   15.068752767
    2.432554257   37.079702616   36.909564232   15.040446503
    2.439732888   37.413472166   37.279297253   15.146955980
    2.446911519   37.703922427   37.471197431   15.343167274
    2.454090150   37.939721610   37.425890610   15.586700580
    2.461268781   38.536747188   37.956132484   15.835082692
    2.468447412   39.326366153   39.018196841   16.029450315
    2.475626043   40.254288782   40.313961182   16.212747941
    2.482804674   41.480911833   41.730604803   16.430886032
    2.489983306   42.854836251   43.164528164   16.652406282
    2.497161937   44.087550318   44.425682899   16.858957280
    2.504340568   44.539941427   44.830350094   17.010289210
    2.511519199   42.995626569   42.697252435   16.926821013
    2.518697830   40.198627139   38.883003579   16.686588787
    2.525876461   39.094882768   37.341187543   16.670003035
    2.533055092   39.195784282   37.603078597   16.772349547
    2.540233723   39.371220257   38.008777219   16.820637460
