# energy grid [eV]     epsr_x  epsr_y  epsr_z
#
    0.200000000   11.342843724   10.723488671    4.324013879
    0.207178631   11.345071447   10.725741440    4.324640986
    0.214357262   11.347378959   10.728075065    4.325290663
    0.221535893   11.349766389   10.730489698    4.325962962
    0.228714524   11.352233874   10.732985495    4.326657933
    0.235893155   11.354781555   10.735562618    4.327375631
    0.243071786   11.357409576   10.738221238    4.328116112
    0.250250417   11.360118090   10.740961527    4.328879434
    0.257429048   11.362907251   10.743783667    4.329665657
    0.264607679   11.365777221   10.746687845    4.330474844
    0.271786311   11.368728166   10.749674253    4.331307061
    0.278964942   11.371760258   10.752743090    4.332162374
    0.286143573   11.374873672   10.755894563    4.333040854
    0.293322204   11.378068592   10.759128883    4.333942573
    0.300500835   11.381345205   10.762446268    4.334867608
    0.307679466   11.384703704   10.765846946    4.335816034
    0.314858097   11.388144288   10.769331147    4.336787934
    0.322036728   11.391667161   10.772899111    4.337783390
    0.329215359   11.395272534   10.776551084    4.338802489
    0.336393990   11.398960623   10.780287320    4.339845322
    0.343572621   11.402731651   10.784108080    4.340911979
    0.350751252   11.406585845   10.788013633    4.342002558
    0.357929883   11.410523441   10.792004254    4.343117158
    0.365108514   11.414544679   10.796080228    4.344255881
    0.372287145   11.418649807   10.800241848    4.345418835
    0.379465776   11.422839079   10.804489414    4.346606129
    0.386644407   11.427112756   10.808823235    4.347817879
    0.393823038   11.431471105   10.813243629    4.349054201
    0.401001669   11.435914402   10.817750923    4.350315220
    0.408180301   11.440442928   10.822345453    4.351601063
    0.415358932   11.445056973   10.827027566    4.352911860
    0.422537563   11.449756834   10.831797616    4.354247750
    0.429716194   11.454542816   10.836655970    4.355608874
    0.436894825   11.459415232   10.841603003    4.356995379
    0.444073456   11.464374404   10.846639103    4.358407419
    0.451252087   11.469420661   10.851764669    4.359845152
    0.458430718   11.474554341   10.856980109    4.361308744
    0.465609349   11.479775793   10.862285847    4.362798367
    0.472787980   11.485085374   10.867682317    4.364314199
    0.479966611   11.490483451   10.873169966    4.365856428
    0.487145242   11.495970400   10.878749258    4.367425245
    0.494323873   11.501546610   10.884420667    4.369020855
    0.501502504   11.507212478   10.890184683    4.370643468
    0.508681135   11.512968415   10.896041815    4.372293305
    0.515859766   11.518814841   10.901992584    4.373970596
    0.523038397   11.524752192   10.908037531    4.375675581
    0.530217028   11.530780913   10.914177214    4.377408513
    0.537395659   11.536901466   10.920412210    4.379169657
    0.544574290   11.543114325   10.926743117    4.380959288
    0.551752922   11.549419980   10.933170554    4.382777699
    0.558931553   11.555818936   10.939695163    4.384625195
    0.566110184   11.562311716   10.946317610    4.386502098
    0.573288815   11.568898860   10.953038586    4.388408747
    0.580467446   11.575580926   10.959858810    4.390345499
    0.587646077   11.582358493   10.966779030    4.392312733
    0.594824708   11.589232160   10.973800026    4.394310847
    0.602003339   11.596202549   10.980922611    4.396340265
    0.609181970   11.603270308   10.988147632    4.398401435
    0.616360601   11.610436108   10.995475980    4.400494834
    0.623539232   11.617700649   11.002908584    4.402620969
    0.630717863   11.625064663   11.010446419    4.404780381
    0.637896494   11.632528911   11.018090511    4.406973646
    0.645075125   11.640094191   11.025841939    4.409201381
    0.652253756   11.647761340   11.033701841    4.411464248
    0.659432387   11.655531236   11.041671420    4.413762956
    0.666611018   11.663404801   11.049751948    4.416098269
    0.673789649   11.671383008   11.057944776    4.418471010
    0.680968280   11.679466887   11.066251342    4.420882068
    0.688146912   11.687657524   11.074673176    4.423332407
    0.695325543   11.695956075   11.083211917    4.425823072
    0.702504174   11.704363770   11.091869317    4.428355201
    0.709682805   11.712881921   11.100647264    4.430930035
    0.716861436   11.721511933   11.109547791    4.433548932
    0.724040067   11.730255313   11.118573096    4.436213383
    0.731218698   11.739113688   11.127725566    4.438925028
    0.738397329   11.748088815   11.137007798    4.441685677
    0.745575960   11.757182600   11.146422632    4.444497334
    0.752754591   11.766397124   11.155973183    4.447362227
    0.759933222   11.775734659   11.165662884    4.450282841
    0.767111853   11.785197707   11.175495530    4.453261957
    0.774290484   11.794789027   11.185475341    4.456302701
    0.781469115   11.804511683   11.195607027    4.459408598
    0.788647746   11.814369092   11.205895874    4.462583648
    0.795826377   11.824365086   11.216347845    4.465832403
    0.803005008   11.834503989   11.226969700    4.469160073
    0.810183639   11.844790707   11.237769153    4.472572650
    0.817362270   11.855230844   11.248755057    4.476077066
    0.824540902   11.865830846   11.259937640    4.479681386
    0.831719533   11.876598179   11.271328796    4.483395053
    0.838898164   11.887541555   11.282942465    4.487229197
    0.846076795   11.898671227   11.294795102    4.491197033
    0.853255426   11.909999362   11.306906303    4.495314369
    0.860434057   11.921540531   11.319299600    4.499600279
    0.867612688   11.933312354   11.332003529    4.504077977
    0.874791319   11.945336365   11.345053039    4.508775997
    0.881969950   11.957639169   11.358491400    4.513729770
    0.889148581   11.970254030   11.372372811    4.518983788
    0.896327212   11.983223063   11.386765991    4.524594593
    0.903505843   11.996600295   11.401759209    4.530634943
    0.910684474   12.010455969   11.417467360    4.537199693
    0.917863105   12.024882638   11.434041954    4.544414084
    0.925041736   12.040003645   11.451685059    4.552445320
    0.932220367   12.055984457   11.470667896    4.561518002
    0.939398998   12.073045643   11.491352162    4.571931834
    0.946577629   12.091469294   11.514200562    4.584070363
    0.953756260   12.111562462   11.539716777    4.598351143
    0.960934891   12.133429678   11.568071920    4.614915615
    0.968113523   12.155965513   11.597450217    4.632255699
    0.975292154   12.172966669   11.617664705    4.641913560
    0.982470785   12.163392023   11.594163308    4.615203493
    0.989649416   12.104970837   11.490374792    4.521763479
    0.996828047   12.051990837   11.395444051    4.435600684
    1.004006678   12.048104969   11.381052664    4.416224261
    1.011185309   12.067236368   11.404379319    4.428083337
    1.018363940   12.090781384   11.434874401    4.445814949
    1.025542571   12.113621329   11.464131844    4.462439629
    1.032721202   12.134928710   11.490792096    4.476827888
    1.039899833   12.154863708   11.515117429    4.489196642
    1.047078464   12.173736554   11.537616489    4.499967322
    1.054257095   12.191822363   11.558740220    4.509513429
    1.061435726   12.209334514   11.578838161    4.518124244
    1.068614357   12.226432971   11.598172101    4.526016168
    1.075792988   12.243237273   11.616937410    4.533350425
    1.082971619   12.259837504   11.635281042    4.540248005
    1.090150250   12.276302438   11.653314920    4.546800775
    1.097328881   12.292685374   11.671125495    4.553079410
    1.104507513   12.309028257   11.688780523    4.559139012
    1.111686144   12.325364618   11.706333883    4.565023111
    1.118864775   12.341721686   11.723829035    4.570766520
    1.126043406   12.358121917   11.741301525    4.576397420
    1.133222037   12.374584124   11.758780836    4.581938880
    1.140400668   12.391124321   11.776291759    4.587409990
    1.147579299   12.407756361   11.793855432    4.592826710
    1.154757930   12.424492426   11.811490133    4.598202522
    1.161936561   12.441343417   11.829211898    4.603548923
    1.169115192   12.458319256   11.847035011    4.608875814
    1.176293823   12.475429139   11.864972390    4.614191807
    1.183472454   12.492681747   11.883035907    4.619504461
    1.190651085   12.510085427   11.901236664    4.624820482
    1.197829716   12.527648353   11.919585215    4.630145877
    1.205008347   12.545378679   11.938091779    4.635486086
    1.212186978   12.563284689   11.956766431    4.640846087
    1.219365609   12.581374945   11.975619283    4.646230491
    1.226544240   12.599658449   11.994660680    4.651643618
    1.233722871   12.618144824   12.013901393    4.657089569
    1.240901503   12.636844518   12.033352842    4.662572287
    1.248080134   12.655769054   12.053027351    4.668095618
    1.255258765   12.674931320   12.072938448    4.673663364
    1.262437396   12.694345951   12.093101238    4.679279346
    1.269616027   12.714029791   12.113532857    4.684947463
    1.276794658   12.734002503   12.134253072    4.690671758
    1.283973289   12.754287364   12.155285039    4.696456496
    1.291151920   12.774912320   12.176656327    4.702306259
    1.298330551   12.795911402   12.198400275    4.708226060
    1.305509182   12.817326668   12.220557855    4.714221488
    1.312687813   12.839210885   12.243180234    4.720298909
    1.319866444   12.861631267   12.266332361    4.726465721
    1.327045075   12.884674761   12.290098013    4.732730718
    1.334223706   12.908455470   12.314586895    4.739104577
    1.341402337   12.933124940   12.339944472    4.745600533
    1.348580968   12.958885511   12.366364730    4.752235244
    1.355759599   12.986004207   12.394103454    4.759029696
    1.362938230   13.014813001   12.423478484    4.766009311
    1.370116861   13.045635235   12.454799437    4.773199623
    1.377295492   13.078395128   12.487994689    4.780602919
    1.384474124   13.110954629   12.521022603    4.788098348
    1.391652755   13.133087790   12.544115325    4.795079643
    1.398831386   13.116014733   12.529780734    4.799825770
    1.406010017   13.051800646   12.470439901    4.801871369
    1.413188648   13.017750906   12.439943106    4.805880968
    1.420367279   13.033005519   12.456576118    4.813022734
    1.427545910   13.065717248   12.489917462    4.821401012
    1.434724541   13.100915448   12.525668132    4.830139769
    1.441903172   13.135011206   12.560402572    4.839053371
    1.449081803   13.167606777   12.593744557    4.848155700
    1.456260434   13.198989707   12.625973683    4.857511959
    1.463439065   13.229522893   12.657443183    4.867205553
    1.470617696   13.259518682   12.688460321    4.877335514
    1.477796327   13.289228880   12.719277803    4.888022759
    1.484974958   13.318859060   12.750108629    4.899419658
    1.492153589   13.348584711   12.781142658    4.911719404
    1.499332220   13.378562878   12.812557075    4.925153562
    1.506510851   13.408931207   12.844505986    4.939930255
    1.513689482   13.439763094   12.877030714    4.955921482
    1.520868114   13.470855407   12.909662273    4.971356945
    1.528046745   13.500988320   12.940050797    4.978367805
    1.535225376   13.527128767   12.962490644    4.958192211
    1.542404007   13.550312734   12.978758017    4.916255430
    1.549582638   13.578733210   13.003798030    4.900575111
    1.556761269   13.612643682   13.037896271    4.911659093
    1.563939900   13.649132447   13.075527285    4.931339869
    1.571118531   13.686798461   13.114202407    4.952247075
    1.578297162   13.723546611   13.151315362    4.970812279
    1.585475793   13.752528074   13.179117604    4.979661790
    1.592654424   13.765040630   13.187798700    4.969689785
    1.599833055   13.778552885   13.196655520    4.959153954
    1.607011686   13.811649405   13.226185092    4.967415700
    1.614190317   13.856119439   13.267059283    4.985802745
    1.621368948   13.904740743   13.311369242    5.007059003
    1.628547579   13.953706983   13.356563324    5.029372681
    1.635726210   13.994879368   13.400563339    5.052752309
    1.642904841   14.014619697   13.440346563    5.077675906
    1.650083472   14.030451787   13.480706004    5.105175089
    1.657262104   14.075350007   13.530177062    5.136297480
    1.664440735   14.139690071   13.586079608    5.170109627
    1.671619366   14.202167529   13.639723195    5.198939568
    1.678797997   14.220554582   13.666314238    5.191814549
    1.685976628   14.116916291   13.617667501    5.086609834
    1.693155259   13.950282194   13.530682309    4.930623821
    1.700333890   13.904418046   13.519957685    4.871234838
    1.707512521   13.951789257   13.568432633    4.886012077
    1.714691152   14.024833327   13.633998380    4.920442552
    1.721869783   14.099527239   13.701041920    4.955481237
    1.729048414   14.165896142   13.760121098    4.985372502
    1.736227045   14.207545811   13.791557596    5.004267623
    1.743405676   14.215475453   13.785655417    5.010116923
    1.750584307   14.218523227   13.783642735    5.016929215
    1.757762938   14.207558638   13.784262312    5.026710813
    1.764941569   14.197080580   13.790497559    5.037834915
    1.772120200   14.227343354   13.829189386    5.054202185
    1.779298831   14.279998468   13.885349888    5.072971543
    1.786477462   14.336654053   13.944838134    5.091673793
    1.793656093   14.392063253   14.003780016    5.109731132
    1.800834725   14.445558719   14.061807074    5.127190674
    1.808013356   14.497457556   14.119084067    5.144201796
    1.815191987   14.547916433   14.174680798    5.160812553
    1.822370618   14.596010389   14.223567457    5.176700948
    1.829549249   14.639608958   14.256191077    5.191141710
    1.836727880   14.681600227   14.282842963    5.205118985
    1.843906511   14.728045455   14.326334970    5.220699104
    1.851085142   14.777958015   14.381802077    5.237561133
    1.858263773   14.829566123   14.441195702    5.255121467
    1.865442404   14.882590576   14.502139220    5.273306539
    1.872621035   14.937382807   14.564501169    5.292260701
    1.879799666   14.994462969   14.628753793    5.312191614
    1.886978297   15.054106501   14.695455199    5.333238462
    1.894156928   15.114961780   14.764723860    5.355035985
    1.901335559   15.168760415   14.834485848    5.375042688
    1.908514190   15.186546003   14.895887495    5.384184687
    1.915692821   15.134228848   14.938464664    5.371783283
    1.922871452   15.084931762   14.987397410    5.361119681
    1.930050083   15.106884024   15.064003385    5.373916826
    1.937228715   15.163972201   15.144673114    5.398725265
    1.944407346   15.227257003   15.175255752    5.425822349
    1.951585977   15.287158153   15.078341116    5.451149402
    1.958764608   15.344675915   14.946569218    5.477146683
    1.965943239   15.404094985   14.945869530    5.508760783
    1.973121870   15.464847493   15.028754921    5.545728550
    1.980300501   15.526029400   15.134437442    5.587661832
    1.987479132   15.587686626   15.244651000    5.635359599
    1.994657763   15.650099565   15.356265978    5.689373873
    2.001836394   15.713128812   15.466658647    5.746344351
    2.009015025   15.774630137   15.559760196    5.785765223
    2.016193656   15.826391452   15.576605312    5.735019934
    2.023372287   15.858183112   15.443762218    5.504119711
    2.030550918   15.891240130   15.310020601    5.273617835
    2.037729549   15.947057335   15.325595923    5.225990585
    2.044908180   16.015621230   15.417316306    5.272115891
    2.052086811   16.088913982   15.525392536    5.339157520
    2.059265442   16.165117179   15.632978776    5.405995402
    2.066444073   16.244473987   15.737001202    5.465680182
    2.073622705   16.327363076   15.836199962    5.504985880
    2.080801336   16.412438791   15.928920810    5.503643118
    2.087979967   16.491148195   16.021556398    5.488116513
    2.095158598   16.531598897   16.121841723    5.479310075
    2.102337229   16.492765510   16.228045301    5.432561307
    2.109515860   16.455175010   16.339579286    5.388040360
    2.116694491   16.502532433   16.456218759    5.399622849
    2.123873122   16.595605115   16.575011655    5.438996007
    2.131051753   16.699904350   16.677251567    5.483557841
    2.138230384   16.793538615   16.700883197    5.526156069
    2.145409015   16.845807457   16.614083268    5.564127533
    2.152587646   16.823157474   16.501658752    5.596119047
    2.159766277   16.790716387   16.451778496    5.627226738
    2.166944908   16.843308277   16.525256060    5.664264741
    2.174123539   16.946508505   16.660500187    5.704952902
    2.181302170   17.059919721   16.802832952    5.743555013
    2.188480801   17.160802703   16.916774322    5.766093917
    2.195659432   17.233054612   16.980476635    5.749933470
    2.202838063   17.294240023   17.037298453    5.703964457
    2.210016694   17.379823225   17.133116005    5.687194049
    2.217195326   17.478926134   17.239435579    5.709380100
    2.224373957   17.555501683   17.299708252    5.739464108
    2.231552588   17.634050778   17.351620604    5.771961555
    2.238731219   17.747114648   17.438240223    5.811885290
    2.245909850   17.869843096   17.509801433    5.852568406
    2.253088481   18.002349726   17.593302302    5.889050303
    2.260267112   18.131394595   17.712212733    5.903847227
    2.267445743   18.211488392   17.821260393    5.871630833
    2.274624374   18.287360205   17.938754403    5.842039487
    2.281803005   18.339459413   18.079796890    5.859339041
    2.288981636   18.165556511   18.176517080    5.890445748
    2.296160267   17.820229124   18.167763924    5.910178417
    2.303338898   17.570244844   18.081383081    5.916099883
    2.310517529   17.443817079   18.049483276    5.916518150
    2.317696160   17.461659727   18.126312256    5.922858850
    2.324874791   17.548383196   18.248014876    5.920800427
    2.332053422   17.665448593   18.388582557    5.923742110
    2.339232053   17.821168408   18.547534399    5.944626388
    2.346410684   17.986061368   18.707495445    5.968848875
    2.353589316   18.149028535   18.882262242    6.002206044
    2.360767947   18.308230855   19.073283168    6.044053454
    2.367946578   18.461748654   19.269907017    6.087259916
    2.375125209   18.606550338   19.461882903    6.127163472
    2.382303840   18.745980455   19.653712969    6.164452468
    2.389482471   18.894797994   19.873528441    6.206791034
    2.396661102   19.052705118   20.121552972    6.253950740
    2.403839733   19.201884241   20.367306108    6.297472296
    2.411018364   19.290821415   20.523234074    6.314739264
    2.418196995   19.253074052   20.471277396    6.277161232
    2.425375626   19.199070465   20.368471616    6.233889913
    2.432554257   19.228872177   20.280635037    6.230675347
    2.439732888   19.284513171   20.029280711    6.240032721
    2.446911519   19.381879586   19.930884609    6.264773939
    2.454090150   19.515468008   20.082631813    6.305555336
    2.461268781   19.643588160   20.212010917    6.344983887
    2.468447412   19.755290974   20.236603898    6.373430100
    2.475626043   19.872131420   20.365050829    6.401379639
    2.482804674   20.014668933   20.608393637    6.436506765
    2.489983306   20.163109870   20.820523442    6.469785504
    2.497161937   20.301597346   20.921288833    6.498620028
    2.504340568   20.424223360   21.013538344    6.528377008
    2.511519199   20.551896498   21.198924230    6.565320238
    2.518697830   20.707570740   21.470879431    6.611564973
    2.525876461   20.857409633   21.757365045    6.662631528
    2.533055092   20.955475547   21.998710535    6.715045194
    2.540233723   21.047689709   22.235531022    6.768137872
