# energy grid [eV]     ieps_x  ieps_y  ieps_z
#
    0.200000000    6.536257115    6.262220582    2.171667730
    0.207178631    6.534985042    6.260915012    2.171378357
    0.214357262    6.533668835    6.259564238    2.171079020
    0.221535893    6.532308567    6.258168344    2.170769743
    0.228714524    6.530904314    6.256727418    2.170450551
    0.235893155    6.529456154    6.255241548    2.170121468
    0.243071786    6.527964169    6.253710829    2.169782521
    0.250250417    6.526428440    6.252135354    2.169433736
    0.257429048    6.524849052    6.250515221    2.169075141
    0.264607679    6.523226093    6.248850530    2.168706762
    0.271786311    6.521559652    6.247141383    2.168328630
    0.278964942    6.519849821    6.245387886    2.167940771
    0.286143573    6.518096693    6.243590145    2.167543216
    0.293322204    6.516300364    6.241748270    2.167135996
    0.300500835    6.514460932    6.239862374    2.166719139
    0.307679466    6.512578497    6.237932569    2.166292679
    0.314858097    6.510653162    6.235958974    2.165856645
    0.322036728    6.508685030    6.233941706    2.165411070
    0.329215359    6.506674207    6.231880888    2.164955988
    0.336393990    6.504620803    6.229776641    2.164491430
    0.343572621    6.502524926    6.227629093    2.164017430
    0.350751252    6.500386690    6.225438370    2.163534023
    0.357929883    6.498206209    6.223204602    2.163041242
    0.365108514    6.495983598    6.220927922    2.162539124
    0.372287145    6.493718976    6.218608463    2.162027701
    0.379465776    6.491412462    6.216246362    2.161507012
    0.386644407    6.489064179    6.213841756    2.160977090
    0.393823038    6.486674250    6.211394785    2.160437974
    0.401001669    6.484242800    6.208905592    2.159889699
    0.408180301    6.481769957    6.206374321    2.159332303
    0.415358932    6.479255849    6.203801118    2.158765824
    0.422537563    6.476700608    6.201186130    2.158190298
    0.429716194    6.474104366    6.198529507    2.157605765
    0.436894825    6.471467258    6.195831401    2.157012263
    0.444073456    6.468789419    6.193091965    2.156409830
    0.451252087    6.466070987    6.190311354    2.155798506
    0.458430718    6.463312101    6.187489725    2.155178329
    0.465609349    6.460512902    6.184627237    2.154549341
    0.472787980    6.457673533    6.181724051    2.153911580
    0.479966611    6.454794139    6.178780327    2.153265087
    0.487145242    6.451874864    6.175796231    2.152609902
    0.494323873    6.448915856    6.172771926    2.151946066
    0.501502504    6.445917264    6.169707581    2.151273621
    0.508681135    6.442879239    6.166603363    2.150592606
    0.515859766    6.439801931    6.163459443    2.149903064
    0.523038397    6.436685495    6.160275992    2.149205036
    0.530217028    6.433530085    6.157053184    2.148498564
    0.537395659    6.430335858    6.153791192    2.147783690
    0.544574290    6.427102971    6.150490194    2.147060456
    0.551752922    6.423831582    6.147150367    2.146328906
    0.558931553    6.420521854    6.143771888    2.145589080
    0.566110184    6.417173946    6.140354940    2.144841023
    0.573288815    6.413788023    6.136899703    2.144084777
    0.580467446    6.410364248    6.133406360    2.143320386
    0.587646077    6.406902788    6.129875096    2.142547892
    0.594824708    6.403403809    6.126306096    2.141767340
    0.602003339    6.399867480    6.122699548    2.140978772
    0.609181970    6.396293969    6.119055638    2.140182233
    0.616360601    6.392683449    6.115374557    2.139377767
    0.623539232    6.389036089    6.111656496    2.138565417
    0.630717863    6.385352064    6.107901645    2.137745229
    0.637896494    6.381631548    6.104110197    2.136917245
    0.645075125    6.377874716    6.100282347    2.136081512
    0.652253756    6.374081744    6.096418290    2.135238072
    0.659432387    6.370252810    6.092518222    2.134386972
    0.666611018    6.366388092    6.088582340    2.133528256
    0.673789649    6.362487771    6.084610842    2.132661969
    0.680968280    6.358552026    6.080603928    2.131788155
    0.688146912    6.354581040    6.076561798    2.130906861
    0.695325543    6.350574995    6.072484653    2.130018131
    0.702504174    6.346534075    6.068372696    2.129122011
    0.709682805    6.342458465    6.064226129    2.128218545
    0.716861436    6.338348350    6.060045157    2.127307781
    0.724040067    6.334203917    6.055829984    2.126389763
    0.731218698    6.330025352    6.051580817    2.125464537
    0.738397329    6.325812846    6.047297862    2.124532148
    0.745575960    6.321566586    6.042981326    2.123592643
    0.752754591    6.317286762    6.038631418    2.122646068
    0.759933222    6.312973566    6.034248347    2.121692469
    0.767111853    6.308627190    6.029832322    2.120731891
    0.774290484    6.304247825    6.025383555    2.119764381
    0.781469115    6.299835664    6.020902256    2.118789985
    0.788647746    6.295390903    6.016388637    2.117808749
    0.795826377    6.290913735    6.011842911    2.116820720
    0.803005008    6.286404357    6.007265292    2.115825943
    0.810183639    6.281862963    6.002655992    2.114824466
    0.817362270    6.277289752    5.998015227    2.113816335
    0.824540902    6.272684920    5.993343212    2.112801596
    0.831719533    6.268048666    5.988640162    2.111780296
    0.838898164    6.263381188    5.983906294    2.110752482
    0.846076795    6.258682686    5.979141824    2.109718199
    0.853255426    6.253953359    5.974346970    2.108677495
    0.860434057    6.249193409    5.969521950    2.107630417
    0.867612688    6.244403036    5.964666981    2.106577010
    0.874791319    6.239582442    5.959782282    2.105517322
    0.881969950    6.234731829    5.954868073    2.104451400
    0.889148581    6.229851400    5.949924572    2.103379291
    0.896327212    6.224941358    5.944952000    2.102301040
    0.903505843    6.220001906    5.939950578    2.101216695
    0.910684474    6.215033249    5.934920525    2.100126303
    0.917863105    6.210035591    5.929862062    2.099029911
    0.925041736    6.205009136    5.924775411    2.097927565
    0.932220367    6.199954091    5.919660794    2.096819312
    0.939398998    6.194870660    5.914518432    2.095705199
    0.946577629    6.189759050    5.909348547    2.094585274
    0.953756260    6.184619468    5.904151362    2.093459582
    0.960934891    6.179452119    5.898927099    2.092328170
    0.968113523    6.174257211    5.893675980    2.091191087
    0.975292154    6.169034951    5.888398230    2.090048377
    0.982470785    6.163785547    5.883094070    2.088900088
    0.989649416    6.158509206    5.877763723    2.087746267
    0.996828047    6.153206137    5.872407415    2.086586961
    1.004006678    6.147876548    5.867025366    2.085422216
    1.011185309    6.142520647    5.861617802    2.084252079
    1.018363940    6.137138644    5.856184946    2.083076597
    1.025542571    6.131730746    5.850727021    2.081895816
    1.032721202    6.126297163    5.845244251    2.080709783
    1.039899833    6.120838105    5.839736860    2.079518545
    1.047078464    6.115353780    5.834205071    2.078322148
    1.054257095    6.109844398    5.828649108    2.077120639
    1.061435726    6.104310169    5.823069194    2.075914064
    1.068614357    6.098751301    5.817465554    2.074702469
    1.075792988    6.093168005    5.811838411    2.073485902
    1.082971619    6.087560491    5.806187987    2.072264408
    1.090150250    6.081928968    5.800514507    2.071038034
    1.097328881    6.076273646    5.794818193    2.069806825
    1.104507513    6.070594735    5.789099269    2.068570829
    1.111686144    6.064892444    5.783357957    2.067330091
    1.118864775    6.059166984    5.777594481    2.066084657
    1.126043406    6.053418563    5.771809062    2.064834574
    1.133222037    6.047647392    5.766001923    2.063579887
    1.140400668    6.041853681    5.760173286    2.062320643
    1.147579299    6.036037638    5.754323373    2.061056886
    1.154757930    6.030199473    5.748452406    2.059788663
    1.161936561    6.024339395    5.742560606    2.058516019
    1.169115192    6.018457614    5.736648193    2.057239001
    1.176293823    6.012554339    5.730715390    2.055957653
    1.183472454    6.006629778    5.724762416    2.054672021
    1.190651085    6.000684140    5.718789491    2.053382150
    1.197829716    5.994717634    5.712796836    2.052088086
    1.205008347    5.988730467    5.706784669    2.050789874
    1.212186978    5.982722849    5.700753210    2.049487559
    1.219365609    5.976694986    5.694702678    2.048181186
    1.226544240    5.970647087    5.688633291    2.046870799
    1.233722871    5.964579359    5.682545267    2.045556444
    1.240901503    5.958492009    5.676438823    2.044238165
    1.248080134    5.952385244    5.670314176    2.042916008
    1.255258765    5.946259270    5.664171543    2.041590016
    1.262437396    5.940114294    5.658011141    2.040260234
    1.269616027    5.933950521    5.651833185    2.038926706
    1.276794658    5.927768158    5.645637889    2.037589476
    1.283973289    5.921567410    5.639425470    2.036248589
    1.291151920    5.915348481    5.633196140    2.034904089
    1.298330551    5.909111576    5.626950114    2.033556019
    1.305509182    5.902856899    5.620687605    2.032204423
    1.312687813    5.896584655    5.614408825    2.030849345
    1.319866444    5.890295046    5.608113987    2.029490829
    1.327045075    5.883988276    5.601803301    2.028128917
    1.334223706    5.877664547    5.595476980    2.026763653
    1.341402337    5.871324061    5.589135232    2.025395080
    1.348580968    5.864967020    5.582778268    2.024023241
    1.355759599    5.858593626    5.576406297    2.022648180
    1.362938230    5.852204079    5.570019527    2.021269938
    1.370116861    5.845798579    5.563618166    2.019888559
    1.377295492    5.839377327    5.557202422    2.018504085
    1.384474124    5.832940522    5.550772500    2.017116558
    1.391652755    5.826488362    5.544328607    2.015726021
    1.398831386    5.820021047    5.537870947    2.014332516
    1.406010017    5.813538773    5.531399726    2.012936084
    1.413188648    5.807041738    5.524915146    2.011536768
    1.420367279    5.800530140    5.518417412    2.010134609
    1.427545910    5.794004173    5.511906725    2.008729649
    1.434724541    5.787464034    5.505383288    2.007321929
    1.441903172    5.780909918    5.498847300    2.005911490
    1.449081803    5.774342019    5.492298963    2.004498374
    1.456260434    5.767760532    5.485738475    2.003082621
    1.463439065    5.761165649    5.479166035    2.001664272
    1.470617696    5.754557563    5.472581842    2.000243368
    1.477796327    5.747936467    5.465986092    1.998819949
    1.484974958    5.741302551    5.459378982    1.997394056
    1.492153589    5.734656008    5.452760706    1.995965729
    1.499332220    5.727997026    5.446131461    1.994535008
    1.506510851    5.721325795    5.439491440    1.993101932
    1.513689482    5.714642505    5.432840836    1.991666542
    1.520868114    5.707947344    5.426179842    1.990228876
    1.528046745    5.701240498    5.419508648    1.988788975
    1.535225376    5.694522156    5.412827446    1.987346877
    1.542404007    5.687792503    5.406136425    1.985902622
    1.549582638    5.681051725    5.399435775    1.984456248
    1.556761269    5.674300006    5.392725684    1.983007795
    1.563939900    5.667537532    5.386006338    1.981557299
    1.571118531    5.660764484    5.379277925    1.980104801
    1.578297162    5.653981046    5.372540630    1.978650338
    1.585475793    5.647187401    5.365794637    1.977193949
    1.592654424    5.640383728    5.359040131    1.975735670
    1.599833055    5.633570209    5.352277294    1.974275540
    1.607011686    5.626747023    5.345506308    1.972813596
    1.614190317    5.619914349    5.338727355    1.971349876
    1.621368948    5.613072366    5.331940615    1.969884417
    1.628547579    5.606221252    5.325146266    1.968417255
    1.635726210    5.599361182    5.318344488    1.966948428
    1.642904841    5.592492333    5.311535458    1.965477972
    1.650083472    5.585614880    5.304719353    1.964005923
    1.657262104    5.578728997    5.297896347    1.962532318
    1.664440735    5.571834859    5.291066617    1.961057194
    1.671619366    5.564932637    5.284230335    1.959580584
    1.678797997    5.558022505    5.277387675    1.958102527
    1.685976628    5.551104632    5.270538809    1.956623056
    1.693155259    5.544179190    5.263683907    1.955142208
    1.700333890    5.537246348    5.256823140    1.953660017
    1.707512521    5.530306275    5.249956677    1.952176519
    1.714691152    5.523359140    5.243084685    1.950691748
    1.721869783    5.516405108    5.236207332    1.949205739
    1.729048414    5.509444347    5.229324785    1.947718527
    1.736227045    5.502477022    5.222437208    1.946230144
    1.743405676    5.495503297    5.215544767    1.944740627
    1.750584307    5.488523338    5.208647623    1.943250008
    1.757762938    5.481537305    5.201745940    1.941758320
    1.764941569    5.474545363    5.194839880    1.940265599
    1.772120200    5.467547671    5.187929601    1.938771876
    1.779298831    5.460544391    5.181015265    1.937277185
    1.786477462    5.453535682    5.174097029    1.935781559
    1.793656093    5.446521703    5.167175052    1.934285031
    1.800834725    5.439502611    5.160249488    1.932787633
    1.808013356    5.432478565    5.153320495    1.931289397
    1.815191987    5.425449719    5.146388227    1.929790355
    1.822370618    5.418416229    5.139452837    1.928290540
    1.829549249    5.411378251    5.132514478    1.926789983
    1.836727880    5.404335936    5.125573301    1.925288716
    1.843906511    5.397289438    5.118629458    1.923786771
    1.851085142    5.390238910    5.111683097    1.922284177
    1.858263773    5.383184500    5.104734368    1.920780967
    1.865442404    5.376126361    5.097783418    1.919277171
    1.872621035    5.369064641    5.090830394    1.917772819
    1.879799666    5.361999487    5.083875442    1.916267943
    1.886978297    5.354931049    5.076918706    1.914762572
    1.894156928    5.347859471    5.069960331    1.913256736
    1.901335559    5.340784901    5.063000458    1.911750465
    1.908514190    5.333707482    5.056039229    1.910243790
    1.915692821    5.326627358    5.049076786    1.908736738
    1.922871452    5.319544673    5.042113268    1.907229339
    1.930050083    5.312459568    5.035148814    1.905721624
    1.937228715    5.305372185    5.028183562    1.904213619
    1.944407346    5.298282664    5.021217648    1.902705354
    1.951585977    5.291191145    5.014251208    1.901196858
    1.958764608    5.284097765    5.007284378    1.899688158
    1.965943239    5.277002663    5.000317290    1.898179284
    1.973121870    5.269905975    4.993350079    1.896670261
    1.980300501    5.262807837    4.986382875    1.895161119
    1.987479132    5.255708384    4.979415810    1.893651885
    1.994657763    5.248607751    4.972449013    1.892142586
    2.001836394    5.241506069    4.965482614    1.890633249
    2.009015025    5.234403472    4.958516740    1.889123902
    2.016193656    5.227300091    4.951551519    1.887614570
    2.023372287    5.220196056    4.944587076    1.886105280
    2.030550918    5.213091497    4.937623536    1.884596059
    2.037729549    5.205986542    4.930661024    1.883086933
    2.044908180    5.198881320    4.923699663    1.881577928
    2.052086811    5.191775956    4.916739574    1.880069069
    2.059265442    5.184670578    4.909780879    1.878560382
    2.066444073    5.177565310    4.902823698    1.877051893
    2.073622705    5.170460276    4.895868150    1.875543626
    2.080801336    5.163355600    4.888914353    1.874035607
    2.087979967    5.156251404    4.881962425    1.872527861
    2.095158598    5.149147810    4.875012482    1.871020411
    2.102337229    5.142044938    4.868064640    1.869513283
    2.109515860    5.134942908    4.861119012    1.868006501
    2.116694491    5.127841839    4.854175712    1.866500088
    2.123873122    5.120741848    4.847234853    1.864994069
    2.131051753    5.113643054    4.840296546    1.863488468
    2.138230384    5.106545571    4.833360903    1.861983307
    2.145409015    5.099449516    4.826428031    1.860478610
    2.152587646    5.092355003    4.819498041    1.858974400
    2.159766277    5.085262146    4.812571040    1.857470700
    2.166944908    5.078171056    4.805647134    1.855967533
    2.174123539    5.071081846    4.798726431    1.854464921
    2.181302170    5.063994628    4.791809034    1.852962887
    2.188480801    5.056909510    4.784895048    1.851461453
    2.195659432    5.049826602    4.777984576    1.849960641
    2.202838063    5.042746013    4.771077720    1.848460473
    2.210016694    5.035667849    4.764174582    1.846960969
    2.217195326    5.028592218    4.757275262    1.845462153
    2.224373957    5.021519225    4.750379858    1.843964045
    2.231552588    5.014448975    4.743488471    1.842466665
    2.238731219    5.007381572    4.736601197    1.840970036
    2.245909850    5.000317119    4.729718134    1.839474177
    2.253088481    4.993255719    4.722839376    1.837979110
    2.260267112    4.986197472    4.715965020    1.836484854
    2.267445743    4.979142480    4.709095159    1.834991430
    2.274624374    4.972090842    4.702229886    1.833498858
    2.281803005    4.965042658    4.695369294    1.832007157
    2.288981636    4.957998024    4.688513474    1.830516348
    2.296160267    4.950957039    4.681662516    1.829026449
    2.303338898    4.943919798    4.674816511    1.827537480
    2.310517529    4.936886397    4.667975546    1.826049461
    2.317696160    4.929856932    4.661139711    1.824562409
    2.324874791    4.922831495    4.654309091    1.823076345
    2.332053422    4.915810180    4.647483773    1.821591286
    2.339232053    4.908793079    4.640663843    1.820107250
    2.346410684    4.901780283    4.633849385    1.818624257
    2.353589316    4.894771883    4.627040482    1.817142324
    2.360767947    4.887767969    4.620237218    1.815661470
    2.367946578    4.880768629    4.613439674    1.814181711
    2.375125209    4.873773952    4.606647931    1.812703065
    2.382303840    4.866784025    4.599862069    1.811225551
    2.389482471    4.859798935    4.593082169    1.809749184
    2.396661102    4.852818767    4.586308308    1.808273983
    2.403839733    4.845843605    4.579540564    1.806799964
    2.411018364    4.838873535    4.572779015    1.805327143
    2.418196995    4.831908640    4.566023736    1.803855538
    2.425375626    4.824949001    4.559274803    1.802385164
    2.432554257    4.817994702    4.552532291    1.800916039
    2.439732888    4.811045822    4.545796272    1.799448178
    2.446911519    4.804102441    4.539066820    1.797981596
    2.454090150    4.797164640    4.532344007    1.796516311
    2.461268781    4.790232497    4.525627905    1.795052336
    2.468447412    4.783306089    4.518918583    1.793589689
    2.475626043    4.776385494    4.512216112    1.792128384
    2.482804674    4.769470788    4.505520561    1.790668435
    2.489983306    4.762562046    4.498831998    1.789209859
    2.497161937    4.755659344    4.492150489    1.787752670
    2.504340568    4.748762755    4.485476103    1.786296883
    2.511519199    4.741872352    4.478808905    1.784842511
    2.518697830    4.734988208    4.472148959    1.783389570
    2.525876461    4.728110396    4.465496331    1.781938074
    2.533055092    4.721238985    4.458851083    1.780488036
    2.540233723    4.714374046    4.452213280    1.779039470
