# energy grid [eV]     epsr_x  epsr_y  epsr_z
#
    0.200000000    5.893774570   10.592995099   11.377347684
    0.207178631    5.894729080   10.595212028   11.379661683
    0.214357262    5.895717765   10.597508749   11.382058802
    0.221535893    5.896740680   10.599885440   11.384539206
    0.228714524    5.897797882   10.602342281   11.387103066
    0.235893155    5.898889429   10.604879464   11.389750559
    0.243071786    5.900015383   10.607497186   11.392481870
    0.250250417    5.901175807   10.610195652   11.395297191
    0.257429048    5.902370765   10.612975074   11.398196720
    0.264607679    5.903600325   10.615835675   11.401180662
    0.271786311    5.904864557   10.618777684   11.404249232
    0.278964942    5.906163532   10.621801337   11.407402651
    0.286143573    5.907497324   10.624906883   11.410641147
    0.293322204    5.908866009   10.628094575   11.413964957
    0.300500835    5.910269665   10.631364679   11.417374327
    0.307679466    5.911708374   10.634717468   11.420869509
    0.314858097    5.913182217   10.638153227   11.424450766
    0.322036728    5.914691281   10.641672249   11.428118369
    0.329215359    5.916235653   10.645274838   11.431872598
    0.336393990    5.917815423   10.648961310   11.435713744
    0.343572621    5.919430684   10.652731990   11.439642106
    0.350751252    5.921081531   10.656587216   11.443657993
    0.357929883    5.922768061   10.660527337   11.447761726
    0.365108514    5.924490375   10.664552716   11.451953636
    0.372287145    5.926248576   10.668663727   11.456234066
    0.379465776    5.928042769   10.672860760   11.460603370
    0.386644407    5.929873063   10.677144216   11.465061914
    0.393823038    5.931739569   10.681514513   11.469610076
    0.401001669    5.933642401   10.685972083   11.474248251
    0.408180301    5.935581676   10.690517375   11.478976842
    0.415358932    5.937557514   10.695150854   11.483796272
    0.422537563    5.939570038   10.699873004   11.488706975
    0.429716194    5.941619374   10.704684327   11.493709404
    0.436894825    5.943705653   10.709585344   11.498804027
    0.444073456    5.945829006   10.714576597   11.503991329
    0.451252087    5.947989570   10.719658650   11.509271815
    0.458430718    5.950187485   10.724832090   11.514646009
    0.465609349    5.952422894   10.730097529   11.520114455
    0.472787980    5.954695945   10.735455604   11.525677719
    0.479966611    5.957006789   10.740906981   11.531336391
    0.487145242    5.959355582   10.746452353   11.537091084
    0.494323873    5.961742482   10.752092446   11.542942439
    0.501502504    5.964167653   10.757828020   11.548891124
    0.508681135    5.966631264   10.763659870   11.554937836
    0.515859766    5.969133488   10.769588828   11.561083304
    0.523038397    5.971674504   10.775615770   11.567328294
    0.530217028    5.974254493   10.781741614   11.573673603
    0.537395659    5.976873646   10.787967326   11.580120074
    0.544574290    5.979532156   10.794293924   11.586668586
    0.551752922    5.982230224   10.800722483   11.593320069
    0.558931553    5.984968057   10.807254136   11.600075499
    0.566110184    5.987745868   10.813890083   11.606935909
    0.573288815    5.990563878   10.820631595   11.613902387
    0.580467446    5.993422316   10.827480021   11.620976089
    0.587646077    5.996321418   10.834436795   11.628158236
    0.594824708    5.999261429   10.841503446   11.635450129
    0.602003339    6.002242603   10.848681601   11.642853150
    0.609181970    6.005265206   10.855973006   11.650368773
    0.616360601    6.008329512   10.863379525   11.657998576
    0.623539232    6.011435808   10.870903164   11.665744246
    0.630717863    6.014584395   10.878546081   11.673607594
    0.637896494    6.017775586   10.886310602   11.681590572
    0.645075125    6.021009710   10.894199242   11.689695280
    0.652253756    6.024287113   10.902214731   11.697923996
    0.659432387    6.027608159   10.910360032   11.706279185
    0.666611018    6.030973231   10.918638377   11.714763531
    0.673789649    6.034382738   10.927053301   11.723379961
    0.680968280    6.037837112   10.935608677   11.732131678
    0.688146912    6.041336814   10.944308766   11.741022201
    0.695325543    6.044882337   10.953158274   11.750055402
    0.702504174    6.048474209   10.962162411   11.759235566
    0.709682805    6.052113001   10.971326968   11.768567448
    0.716861436    6.055799330   10.980658410   11.778056342
    0.724040067    6.059533867   10.990163979   11.787708175
    0.731218698    6.063317345   10.999851822   11.797529604
    0.738397329    6.067150571   11.009731151   11.807528144
    0.745575960    6.071034435   11.019812423   11.817712316
    0.752754591    6.074969926   11.030107572   11.828091835
    0.759933222    6.078958153   11.040630290   11.838677834
    0.767111853    6.083000362   11.051396371   11.849483140
    0.774290484    6.087097969   11.062424144   11.860522630
    0.781469115    6.091252592   11.073735010   11.871813657
    0.788647746    6.095466098   11.085354131   11.883376610
    0.795826377    6.099740655   11.097311300   11.895235615
    0.803005008    6.104078811   11.109642066   11.907419442
    0.810183639    6.108483581   11.122389197   11.919962686
    0.817362270    6.112958578   11.135604606   11.932907319
    0.824540902    6.117508177   11.149351908   11.946304756
    0.831719533    6.122137735   11.163709863   11.960218629
    0.838898164    6.126853893   11.178777061   11.974728571
    0.846076795    6.131665000   11.194678383   11.989935424
    0.853255426    6.136581685   11.211573991   12.005968494
    0.860434057    6.141617681   11.229671983   12.022995762
    0.867612688    6.146790976   11.249246252   12.041238289
    0.874791319    6.152125429   11.270661529   12.060990423
    0.881969950    6.157652966   11.294407344   12.082647194
    0.889148581    6.163416238   11.321139194   12.106737530
    0.896327212    6.169470603   11.351709260   12.133949039
    0.903505843    6.175880136   11.387104551   12.165078103
    0.910684474    6.182685884   11.427955442   12.200633379
    0.917863105    6.189759233   11.472264886   12.239003798
    0.925041736    6.196213790   11.506301501   12.269111359
    0.932220367    6.198644354   11.477329759   12.248410630
    0.939398998    6.191280758   11.295992294   12.104810721
    0.946577629    6.181007584   11.068891567   11.924315544
    0.953756260    6.180604136   10.993910229   11.866571259
    0.960934891    6.186480549   11.015452659   11.886724986
    0.968113523    6.193869295   11.059686867   11.925211258
    0.975292154    6.201267369   11.103332114   11.963247913
    0.982470785    6.208387683   11.141936100   11.997243032
    0.989649416    6.215239736   11.175639034   12.027309802
    0.996828047    6.221886096   11.205402695   12.054224220
    1.004006678    6.228386500   11.232144854   12.078726778
    1.011185309    6.234788184   11.256589478   12.101401604
    1.018363940    6.241126774   11.279280540   12.122687606
    1.025542571    6.247428942   11.300623148   12.142911658
    1.032721202    6.253714806   11.320920654   12.162318525
    1.039899833    6.259999738   11.340402718   12.181093516
    1.047078464    6.266295675   11.359245484   12.199378753
    1.054257095    6.272612036   11.377585879   12.217284710
    1.061435726    6.278956384   11.395531758   12.234898391
    1.068614357    6.285334891   11.413169159   12.252289187
    1.075792988    6.291752684   11.430567553   12.269513108
    1.082971619    6.298214088   11.447783684   12.286615877
    1.090150250    6.304722816   11.464864413   12.303635224
    1.097328881    6.311282104   11.481848848   12.320602602
    1.104507513    6.317894822   11.498769964   12.337544489
    1.111686144    6.324563553   11.515655845   12.354483389
    1.118864775    6.331290659   11.532530644   12.371438601
    1.126043406    6.338078332   11.549415345   12.388426825
    1.133222037    6.344928635   11.566328354   12.405462643
    1.140400668    6.351843534   11.583285989   12.422558896
    1.147579299    6.358824934   11.600302865   12.439726996
    1.154757930    6.365874694   11.617392217   12.456977174
    1.161936561    6.372994658   11.634566170   12.474318683
    1.169115192    6.380186668   11.651835966   12.491759974
    1.176293823    6.387452585   11.669212160   12.509308838
    1.183472454    6.394794308   11.686704799   12.526972525
    1.190651085    6.402213791   11.704323577   12.544757856
    1.197829716    6.409713060   11.722077993   12.562671312
    1.205008347    6.417294235   11.739977490   12.580719124
    1.212186978    6.424959551   11.758031614   12.598907347
    1.219365609    6.432711381   11.776250163   12.617241937
    1.226544240    6.440552264   11.794643365   12.635728827
    1.233722871    6.448484938   11.813222077   12.654374000
    1.240901503    6.456512377   11.831998007   12.673183576
    1.248080134    6.464637838   11.850983998   12.692163892
    1.255258765    6.472864913   11.870194363   12.711321615
    1.262437396    6.481197603   11.889645317   12.730663852
    1.269616027    6.489640404   11.909355520   12.750198300
    1.276794658    6.498198411   11.929346789   12.769933420
    1.283973289    6.506877464   11.949645043   12.789878666
    1.291151920    6.515684329   11.970281562   12.810044775
    1.298330551    6.524626940   11.991294704   12.830444147
    1.305509182    6.533714722   12.012732274   12.851091354
    1.312687813    6.542959025   12.034654828   12.872003833
    1.319866444    6.552373727   12.057140310   12.893202824
    1.327045075    6.561976052   12.080290581   12.914714679
    1.334223706    6.571787692   12.104240447   12.936572635
    1.341402337    6.581836269   12.129169395   12.958819132
    1.348580968    6.592156981   12.155313901   12.981508401
    1.355759599    6.602793355   12.182968236   13.004707544
    1.362938230    6.613792429   12.212422278   13.028488354
    1.370116861    6.625175182   12.243628339   13.052878248
    1.377295492    6.636806603   12.274778745   13.077645554
    1.384474124    6.647919709   12.297139837   13.101513968
    1.391652755    6.656277047   12.285961344   13.120778941
    1.398831386    6.661275516   12.233940668   13.134426713
    1.406010017    6.669189532   12.207759373   13.152779455
    1.413188648    6.681744504   12.224682128   13.178650652
    1.420367279    6.696542838   12.257242223   13.208049366
    1.427545910    6.712479736   12.292431472   13.239126472
    1.434724541    6.728989641   12.326941868   13.271002152
    1.441903172    6.744055320   12.359276187   13.300765636
    1.449081803    6.749948175   12.385244181   13.317313674
    1.456260434    6.732928985   12.397286128   13.300910014
    1.463439065    6.707825507   12.404097282   13.272847364
    1.470617696    6.705711249   12.423587657   13.277749764
    1.477796327    6.718935569   12.451526451   13.304618349
    1.484974958    6.735994959   12.481450964   13.336917369
    1.492153589    6.753202978   12.511334657   13.369335599
    1.499332220    6.769861312   12.540838543   13.400849954
    1.506510851    6.786008068   12.570031223   13.431490600
    1.513689482    6.801818108   12.599050196   13.461478625
    1.520868114    6.817465879   12.628026120   13.491027622
    1.528046745    6.833102677   12.657071747   13.520309115
    1.535225376    6.848860598   12.686285663   13.549455594
    1.542404007    6.864861674   12.715758773   13.578570019
    1.549582638    6.881227501   12.745580945   13.607734616
    1.556761269    6.898088822   12.775847662   13.637017870
    1.563939900    6.915595292   12.806666836   13.666479930
    1.571118531    6.933924330   12.838165077   13.696176717
    1.578297162    6.953281837   12.870488410   13.726162148
    1.585475793    6.973863267   12.903775632   13.756484712
    1.592654424    6.995646552   12.938015321   13.787162092
    1.599833055    7.017528869   12.972448354   13.818071384
    1.607011686    7.034628720   13.003698100   13.848603897
    1.614190317    7.037754996   13.025381014   13.877597970
    1.621368948    7.036373865   13.043889165   13.906286282
    1.628547579    7.052093565   13.073537892   13.937464166
    1.635726210    7.078451321   13.107676475   13.970342627
    1.642904841    7.103296469   13.133673715   14.003422300
    1.650083472    7.127330952   13.155147536   14.036771826
    1.657262104    7.157351245   13.187528889   14.071119347
    1.664440735    7.174302817   13.221080742   14.103755869
    1.671619366    7.126074804   13.229742931   14.127240248
    1.678797997    7.001039828   13.207161869   14.139932778
    1.685976628    6.927852429   13.205776154   14.160500927
    1.693155259    6.934576596   13.237111714   14.193025741
    1.700333890    6.968777999   13.279755953   14.229920137
    1.707512521    7.006451822   13.323949453   14.267719694
    1.714691152    7.041956001   13.367449536   14.305624056
    1.721869783    7.074748963   13.410095556   14.343575015
    1.729048414    7.105373243   13.452166508   14.381674907
    1.736227045    7.134483773   13.493986894   14.420046538
    1.743405676    7.162651488   13.535850369   14.458805789
    1.750584307    7.190352132   13.578019281   14.498061439
    1.757762938    7.217992926   13.620738983   14.537920952
    1.764941569    7.245938328   13.664246921   14.578496547
    1.772120200    7.274512369   13.708749769   14.619907611
    1.779298831    7.303914173   13.754271895   14.662266673
    1.786477462    7.333813924   13.800019165   14.705601119
    1.793656093    7.362185353   13.842582450   14.749618417
    1.800834725    7.386079748   13.877114518   14.793866030
    1.808013356    7.411523063   13.912474462   14.839741006
    1.815191987    7.445533440   13.959370655   14.888706457
    1.822370618    7.483266047   14.012060088   14.939048587
    1.829549249    7.513084620   14.060162489   14.985017778
    1.836727880    7.516888991   14.090323636   15.016323277
    1.843906511    7.511301415   14.114046006   15.042710373
    1.851085142    7.538851497   14.160733842   15.088491064
    1.858263773    7.592584369   14.223243439   15.146403934
    1.865442404    7.657622150   14.282906467   15.196419786
    1.872621035    7.727752296   14.319890889   15.215513446
    1.879799666    7.799793892   14.339244640   15.225313348
    1.886978297    7.859973714   14.345436034   15.271837744
    1.894156928    7.882391127   14.319368537   15.338858714
    1.901335559    7.827844651   14.319984391   15.387841486
    1.908514190    7.554795758   14.346312824   15.358801295
    1.915692821    7.166174343   14.346333901   15.251783620
    1.922871452    7.012082243   14.351325556   15.207342346
    1.930050083    7.046505952   14.401925288   15.249867954
    1.937228715    7.133330638   14.476014953   15.322410096
    1.944407346    7.223113888   14.555361032   15.398971746
    1.951585977    7.305023548   14.634144339   15.473100563
    1.958764608    7.375368778   14.706643346   15.542257892
    1.965943239    7.422492000   14.755477435   15.601202656
    1.973121870    7.424875298   14.759305551   15.648654768
    1.980300501    7.408087927   14.756716547   15.701294678
    1.987479132    7.427363368   14.799196570   15.764554140
    1.994657763    7.471850041   14.870021141   15.832369815
    2.001836394    7.521858224   14.948810623   15.901848626
    2.009015025    7.571273099   15.029393360   15.971993610
    2.016193656    7.619341819   15.110473034   16.040181385
    2.023372287    7.666648055   15.190785709   16.098221818
    2.030550918    7.714071519   15.270700348   16.142904232
    2.037729549    7.762582202   15.357556858   16.198686197
    2.044908180    7.813043993   15.454555118   16.274246762
    2.052086811    7.865675281   15.558270901   16.359119665
    2.059265442    7.917949398   15.657015860   16.443042105
    2.066444073    7.960177623   15.713558400   16.506230613
    2.073622705    7.986504040   15.686562897   16.527969705
    2.080801336    8.017376400   15.624925389   16.532706281
    2.087979967    8.032816270   15.590188700   16.546298173
    2.095158598    7.951266266   15.504276920   16.518949333
    2.102337229    7.797902579   15.355876789   16.449856654
    2.109515860    7.746247921   15.334960869   16.459335995
    2.116694491    7.783542291   15.423417977   16.536583444
    2.123873122    7.830882860   15.534948306   16.626940612
    2.131051753    7.844513062   15.632344495   16.705173836
    2.138230384    7.848592918   15.722333063   16.778802517
    2.145409015    7.884310347   15.821603059   16.863147458
    2.152587646    7.935402577   15.919004556   16.950476524
    2.159766277    7.980845529   15.993375282   17.026677842
    2.166944908    8.011676245   16.039853537   17.082503691
    2.174123539    8.041766046   16.096209970   17.139419389
    2.181302170    8.083393913   16.179244937   17.216801449
    2.188480801    8.129779126   16.268823180   17.303701400
    2.195659432    8.175802798   16.352968737   17.391737630
    2.202838063    8.222381526   16.441793294   17.483005047
    2.210016694    8.270201670   16.539555467   17.578566246
    2.217195326    8.318032034   16.641579517   17.675010733
    2.224373957    8.362463147   16.745431848   17.762376301
    2.231552588    8.395188295   16.849582434   17.816494970
    2.238731219    8.417152936   16.954543762   17.839442195
    2.245909850    8.451094511   17.066217591   17.895628111
    2.253088481    8.499279341   17.185832845   17.991269868
    2.260267112    8.552768206   17.308731013   18.100703481
    2.267445743    8.608010892   17.432698076   18.213492612
    2.274624374    8.665541649   17.563638719   18.330187168
    2.281803005    8.721992806   17.676558758   18.443589578
    2.288981636    8.764000939   17.678929315   18.525401540
    2.296160267    8.784495115   17.521728105   18.559168469
    2.303338898    8.816918428   17.436121807   18.607693174
    2.310517529    8.866284265   17.492657150   18.662884944
    2.317696160    8.906842164   17.581090227   18.656418836
    2.324874791    8.951469046   17.702296649   18.660062076
    2.332053422    9.025830332   17.861125955   18.751916836
    2.339232053    9.117375249   18.012185890   18.886484884
    2.346410684    9.202829211   18.105308283   19.020342498
    2.353589316    9.255797990   18.168908525   19.141797251
    2.360767947    9.198533764   18.237672218   19.233265968
    2.367946578    8.990283741   18.268273197   19.279367352
    2.375125209    8.864436186   18.309822750   19.346454228
    2.382303840    8.883688969   18.340331858   19.436080304
    2.389482471    8.934026373   18.331244436   19.498264832
    2.396661102    8.958204507   18.307811854   19.510892067
    2.403839733    8.997538504   18.368981834   19.568275505
    2.411018364    9.078540787   18.515778113   19.697733965
    2.418196995    9.176119735   18.696304000   19.844765021
    2.425375626    9.246582363   18.875590765   19.971384865
    2.432554257    9.263741421   19.038181686   20.074483761
    2.439732888    9.258886141   19.186534831   20.189473554
    2.446911519    9.272273075   19.343347791   20.331838634
    2.454090150    9.345708584   19.530535272   20.496624236
    2.461268781    9.459497394   19.740007192   20.673186095
    2.468447412    9.576982675   19.948380523   20.847517714
    2.475626043    9.658698429   20.098055499   20.994043445
    2.482804674    9.643425929   20.057930643   21.076445601
    2.489983306    9.538573494   19.841936504   21.111321028
    2.497161937    9.518994383   19.799145736   21.215924318
    2.504340568    9.605379530   19.955064587   21.389773079
    2.511519199    9.715008578   20.154844848   21.557760413
    2.518697830    9.820224839   20.345142068   21.703022230
    2.525876461    9.935495370   20.541365096   21.855426324
    2.533055092   10.039243164   20.702755672   21.939723767
    2.540233723   10.114182936   20.809765956   21.917865707
