# energy grid [eV]     ieps_x  ieps_y  ieps_z
#
    0.200000000    7.493966499    6.521845998    2.696422790
    0.207178631    7.492651352    6.520568632    2.696088036
    0.214357262    7.491290417    6.519246907    2.695741626
    0.221535893    7.489883754    6.517880891    2.695383574
    0.228714524    7.488431426    6.516470659    2.695013896
    0.235893155    7.486933498    6.515016283    2.694632609
    0.243071786    7.485390035    6.513517842    2.694239729
    0.250250417    7.483801105    6.511975415    2.693835274
    0.257429048    7.482166780    6.510389083    2.693419261
    0.264607679    7.480487131    6.508758929    2.692991707
    0.271786311    7.478762232    6.507085040    2.692552633
    0.278964942    7.476992159    6.505367503    2.692102056
    0.286143573    7.475176990    6.503606409    2.691639997
    0.293322204    7.473316805    6.501801851    2.691166475
    0.300500835    7.471411686    6.499953923    2.690681511
    0.307679466    7.469461717    6.498062721    2.690185127
    0.314858097    7.467466982    6.496128345    2.689677343
    0.322036728    7.465427569    6.494150895    2.689158182
    0.329215359    7.463343569    6.492130476    2.688627665
    0.336393990    7.461215070    6.490067191    2.688085817
    0.343572621    7.459042168    6.487961149    2.687532660
    0.350751252    7.456824955    6.485812458    2.686968218
    0.357929883    7.454563530    6.483621231    2.686392516
    0.365108514    7.452257991    6.481387580    2.685805578
    0.372287145    7.449908437    6.479111622    2.685207429
    0.379465776    7.447514970    6.476793473    2.684598096
    0.386644407    7.445077696    6.474433253    2.683977603
    0.393823038    7.442596718    6.472031084    2.683345978
    0.401001669    7.440072144    6.469587089    2.682703248
    0.408180301    7.437504085    6.467101393    2.682049440
    0.415358932    7.434892649    6.464574124    2.681384582
    0.422537563    7.432237950    6.462005411    2.680708702
    0.429716194    7.429540102    6.459395385    2.680021829
    0.436894825    7.426799221    6.456744179    2.679323992
    0.444073456    7.424015425    6.454051927    2.678615221
    0.451252087    7.421188832    6.451318766    2.677895545
    0.458430718    7.418319564    6.448544836    2.677164996
    0.465609349    7.415407743    6.445730275    2.676423603
    0.472787980    7.412453493    6.442875226    2.675671399
    0.479966611    7.409456941    6.439979833    2.674908414
    0.487145242    7.406418214    6.437044242    2.674134681
    0.494323873    7.403337440    6.434068599    2.673350232
    0.501502504    7.400214750    6.431053053    2.672555100
    0.508681135    7.397050277    6.427997755    2.671749319
    0.515859766    7.393844153    6.424902858    2.670932921
    0.523038397    7.390596515    6.421768515    2.670105941
    0.530217028    7.387307499    6.418594882    2.669268413
    0.537395659    7.383977243    6.415382116    2.668420372
    0.544574290    7.380605887    6.412130375    2.667561854
    0.551752922    7.377193573    6.408839821    2.666692892
    0.558931553    7.373740442    6.405510614    2.665813525
    0.566110184    7.370246638    6.402142919    2.664923787
    0.573288815    7.366712309    6.398736900    2.664023715
    0.580467446    7.363137599    6.395292723    2.663113347
    0.587646077    7.359522659    6.391810557    2.662192719
    0.594824708    7.355867636    6.388290570    2.661261869
    0.602003339    7.352172684    6.384732933    2.660320836
    0.609181970    7.348437953    6.381137818    2.659369656
    0.616360601    7.344663598    6.377505400    2.658408370
    0.623539232    7.340849774    6.373835851    2.657437017
    0.630717863    7.336996637    6.370129349    2.656455634
    0.637896494    7.333104345    6.366386072    2.655464263
    0.645075125    7.329173058    6.362606197    2.654462943
    0.652253756    7.325202934    6.358789905    2.653451714
    0.659432387    7.321194136    6.354937377    2.652430617
    0.666611018    7.317146826    6.351048795    2.651399693
    0.673789649    7.313061169    6.347124343    2.650358983
    0.680968280    7.308937329    6.343164207    2.649308529
    0.688146912    7.304775473    6.339168571    2.648248372
    0.695325543    7.300575768    6.335137624    2.647178554
    0.702504174    7.296338382    6.331071553    2.646099119
    0.709682805    7.292063486    6.326970548    2.645010108
    0.716861436    7.287751250    6.322834799    2.643911564
    0.724040067    7.283401846    6.318664498    2.642803531
    0.731218698    7.279015447    6.314459837    2.641686052
    0.738397329    7.274592228    6.310221010    2.640559172
    0.745575960    7.270132362    6.305948211    2.639422933
    0.752754591    7.265636027    6.301641636    2.638277380
    0.759933222    7.261103399    6.297301481    2.637122559
    0.767111853    7.256534657    6.292927943    2.635958512
    0.774290484    7.251929980    6.288521221    2.634785287
    0.781469115    7.247289547    6.284081514    2.633602927
    0.788647746    7.242613541    6.279609022    2.632411479
    0.795826377    7.237902141    6.275103945    2.631210988
    0.803005008    7.233155533    6.270566486    2.630001499
    0.810183639    7.228373898    6.265996846    2.628783061
    0.817362270    7.223557422    6.261395228    2.627555717
    0.824540902    7.218706291    6.256761837    2.626319517
    0.831719533    7.213820690    6.252096878    2.625074505
    0.838898164    7.208900806    6.247400555    2.623820729
    0.846076795    7.203946829    6.242673075    2.622558237
    0.853255426    7.198958945    6.237914644    2.621287076
    0.860434057    7.193937345    6.233125469    2.620007294
    0.867612688    7.188882220    6.228305759    2.618718938
    0.874791319    7.183793759    6.223455722    2.617422056
    0.881969950    7.178672155    6.218575567    2.616116697
    0.889148581    7.173517600    6.213665503    2.614802909
    0.896327212    7.168330287    6.208725742    2.613480740
    0.903505843    7.163110410    6.203756493    2.612150240
    0.910684474    7.157858163    6.198757968    2.610811456
    0.917863105    7.152573742    6.193730378    2.609464439
    0.925041736    7.147257342    6.188673936    2.608109238
    0.932220367    7.141909159    6.183588854    2.606745901
    0.939398998    7.136529391    6.178475345    2.605374478
    0.946577629    7.131118234    6.173333622    2.603995020
    0.953756260    7.125675886    6.168163899    2.602607575
    0.960934891    7.120202547    6.162966390    2.601212193
    0.968113523    7.114698415    6.157741310    2.599808925
    0.975292154    7.109163689    6.152488872    2.598397822
    0.982470785    7.103598571    6.147209293    2.596978932
    0.989649416    7.098003259    6.141902787    2.595552307
    0.996828047    7.092377956    6.136569570    2.594117997
    1.004006678    7.086722862    6.131209857    2.592676053
    1.011185309    7.081038180    6.125823865    2.591226525
    1.018363940    7.075324111    6.120411809    2.589769465
    1.025542571    7.069580859    6.114973906    2.588304923
    1.032721202    7.063808625    6.109510372    2.586832950
    1.039899833    7.058007615    6.104021424    2.585353598
    1.047078464    7.052178030    6.098507278    2.583866918
    1.054257095    7.046320076    6.092968152    2.582372961
    1.061435726    7.040433956    6.087404262    2.580871778
    1.068614357    7.034519875    6.081815825    2.579363422
    1.075792988    7.028578038    6.076203058    2.577847942
    1.082971619    7.022608650    6.070566178    2.576325392
    1.090150250    7.016611917    6.064905402    2.574795823
    1.097328881    7.010588044    6.059220947    2.573259286
    1.104507513    7.004537237    6.053513030    2.571715833
    1.111686144    6.998459702    6.047781867    2.570165516
    1.118864775    6.992355645    6.042027677    2.568608388
    1.126043406    6.986225273    6.036250675    2.567044499
    1.133222037    6.980068792    6.030451078    2.565473902
    1.140400668    6.973886409    6.024629103    2.563896649
    1.147579299    6.967678331    6.018784967    2.562312792
    1.154757930    6.961444764    6.012918884    2.560722383
    1.161936561    6.955185916    6.007031073    2.559125473
    1.169115192    6.948901993    6.001121747    2.557522116
    1.176293823    6.942593204    5.995191125    2.555912364
    1.183472454    6.936259754    5.989239420    2.554296267
    1.190651085    6.929901852    5.983266848    2.552673879
    1.197829716    6.923519704    5.977273625    2.551045252
    1.205008347    6.917113519    5.971259964    2.549410438
    1.212186978    6.910683502    5.965226082    2.547769489
    1.219365609    6.904229862    5.959172191    2.546122457
    1.226544240    6.897752805    5.953098506    2.544469394
    1.233722871    6.891252540    5.947005241    2.542810353
    1.240901503    6.884729272    5.940892609    2.541145386
    1.248080134    6.878183210    5.934760822    2.539474544
    1.255258765    6.871614559    5.928610095    2.537797881
    1.262437396    6.865023527    5.922440638    2.536115447
    1.269616027    6.858410321    5.916252663    2.534427295
    1.276794658    6.851775147    5.910046383    2.532733477
    1.283973289    6.845118212    5.903822008    2.531034045
    1.291151920    6.838439722    5.897579749    2.529329051
    1.298330551    6.831739883    5.891319816    2.527618547
    1.305509182    6.825018901    5.885042419    2.525902585
    1.312687813    6.818276982    5.878747767    2.524181216
    1.319866444    6.811514332    5.872436069    2.522454492
    1.327045075    6.804731156    5.866107533    2.520722465
    1.334223706    6.797927659    5.859762367    2.518985187
    1.341402337    6.791104046    5.853400779    2.517242709
    1.348580968    6.784260522    5.847022975    2.515495083
    1.355759599    6.777397291    5.840629162    2.513742360
    1.362938230    6.770514557    5.834219545    2.511984592
    1.370116861    6.763612524    5.827794330    2.510221830
    1.377295492    6.756691397    5.821353720    2.508454125
    1.384474124    6.749751377    5.814897921    2.506681529
    1.391652755    6.742792668    5.808427135    2.504904092
    1.398831386    6.735815472    5.801941565    2.503121866
    1.406010017    6.728819992    5.795441414    2.501334902
    1.413188648    6.721806430    5.788926884    2.499543250
    1.420367279    6.714774987    5.782398174    2.497746961
    1.427545910    6.707725864    5.775855486    2.495946087
    1.434724541    6.700659262    5.769299019    2.494140676
    1.441903172    6.693575382    5.762728972    2.492330781
    1.449081803    6.686474424    5.756145545    2.490516451
    1.456260434    6.679356586    5.749548933    2.488697737
    1.463439065    6.672222068    5.742939335    2.486874689
    1.470617696    6.665071070    5.736316946    2.485047357
    1.477796327    6.657903789    5.729681962    2.483215791
    1.484974958    6.650720422    5.723034579    2.481380040
    1.492153589    6.643521168    5.716374990    2.479540155
    1.499332220    6.636306224    5.709703389    2.477696186
    1.506510851    6.629075785    5.703019968    2.475848181
    1.513689482    6.621830047    5.696324920    2.473996190
    1.520868114    6.614569206    5.689618436    2.472140263
    1.528046745    6.607293457    5.682900705    2.470280448
    1.535225376    6.600002995    5.676171919    2.468416794
    1.542404007    6.592698012    5.669432265    2.466549352
    1.549582638    6.585378703    5.662681932    2.464678168
    1.556761269    6.578045260    5.655921108    2.462803292
    1.563939900    6.570697876    5.649149978    2.460924772
    1.571118531    6.563336741    5.642368729    2.459042658
    1.578297162    6.555962048    5.635577546    2.457156996
    1.585475793    6.548573987    5.628776613    2.455267835
    1.592654424    6.541172747    5.621966112    2.453375222
    1.599833055    6.533758518    5.615146227    2.451479207
    1.607011686    6.526331489    5.608317140    2.449579836
    1.614190317    6.518891848    5.601479031    2.447677156
    1.621368948    6.511439783    5.594632080    2.445771216
    1.628547579    6.503975479    5.587776466    2.443862062
    1.635726210    6.496499125    5.580912368    2.441949741
    1.642904841    6.489010905    5.574039963    2.440034300
    1.650083472    6.481511004    5.567159428    2.438115787
    1.657262104    6.473999608    5.560270938    2.436194246
    1.664440735    6.466476898    5.553374668    2.434269726
    1.671619366    6.458943060    5.546470793    2.432342272
    1.678797997    6.451398274    5.539559486    2.430411930
    1.685976628    6.443842723    5.532640918    2.428478745
    1.693155259    6.436276588    5.525715261    2.426542765
    1.700333890    6.428700049    5.518782685    2.424604034
    1.707512521    6.421113286    5.511843361    2.422662598
    1.714691152    6.413516477    5.504897456    2.420718501
    1.721869783    6.405909802    5.497945139    2.418771790
    1.729048414    6.398293438    5.490986577    2.416822508
    1.736227045    6.390667561    5.484021934    2.414870701
    1.743405676    6.383032348    5.477051377    2.412916413
    1.750584307    6.375387974    5.470075070    2.410959689
    1.757762938    6.367734613    5.463093175    2.409000572
    1.764941569    6.360072441    5.456105855    2.407039107
    1.772120200    6.352401630    5.449113272    2.405075337
    1.779298831    6.344722352    5.442115586    2.403109306
    1.786477462    6.337034780    5.435112956    2.401141058
    1.793656093    6.329339084    5.428105541    2.399170635
    1.800834725    6.321635434    5.421093499    2.397198081
    1.808013356    6.313924001    5.414076987    2.395223438
    1.815191987    6.306204952    5.407056159    2.393246750
    1.822370618    6.298478457    5.400031172    2.391268059
    1.829549249    6.290744681    5.393002179    2.389287406
    1.836727880    6.283003791    5.385969333    2.387304835
    1.843906511    6.275255954    5.378932787    2.385320387
    1.851085142    6.267501333    5.371892690    2.383334104
    1.858263773    6.259740094    5.364849195    2.381346028
    1.865442404    6.251972398    5.357802449    2.379356199
    1.872621035    6.244198409    5.350752601    2.377364659
    1.879799666    6.236418289    5.343699798    2.375371449
    1.886978297    6.228632198    5.336644188    2.373376609
    1.894156928    6.220840296    5.329585915    2.371380180
    1.901335559    6.213042743    5.322525123    2.369382203
    1.908514190    6.205239697    5.315461957    2.367382718
    1.915692821    6.197431316    5.308396559    2.365381764
    1.922871452    6.189617757    5.301329071    2.363379382
    1.930050083    6.181799176    5.294259633    2.361375610
    1.937228715    6.173975727    5.287188386    2.359370489
    1.944407346    6.166147566    5.280115467    2.357364057
    1.951585977    6.158314846    5.273041016    2.355356353
    1.958764608    6.150477720    5.265965168    2.353347416
    1.965943239    6.142636339    5.258888061    2.351337285
    1.973121870    6.134790856    5.251809828    2.349325998
    1.980300501    6.126941419    5.244730604    2.347313593
    1.987479132    6.119088180    5.237650523    2.345300108
    1.994657763    6.111231285    5.230569716    2.343285581
    2.001836394    6.103370883    5.223488315    2.341270048
    2.009015025    6.095507122    5.216406450    2.339253549
    2.016193656    6.087640147    5.209324251    2.337236118
    2.023372287    6.079770102    5.202241845    2.335217795
    2.030550918    6.071897134    5.195159361    2.333198614
    2.037729549    6.064021386    5.188076925    2.331178613
    2.044908180    6.056142999    5.180994663    2.329157828
    2.052086811    6.048262117    5.173912699    2.327136294
    2.059265442    6.040378879    5.166831157    2.325114049
    2.066444073    6.032493428    5.159750160    2.323091127
    2.073622705    6.024605901    5.152669829    2.321067563
    2.080801336    6.016716437    5.145590287    2.319043394
    2.087979967    6.008825175    5.138511653    2.317018654
    2.095158598    6.000932250    5.131434045    2.314993377
    2.102337229    5.993037799    5.124357583    2.312967599
    2.109515860    5.985141958    5.117282383    2.310941354
    2.116694491    5.977244859    5.110208561    2.308914675
    2.123873122    5.969346638    5.103136234    2.306887597
    2.131051753    5.961447426    5.096065516    2.304860154
    2.138230384    5.953547355    5.088996520    2.302832380
    2.145409015    5.945646556    5.081929359    2.300804306
    2.152587646    5.937745159    5.074864144    2.298775967
    2.159766277    5.929843294    5.067800988    2.296747396
    2.166944908    5.921941088    5.060739998    2.294718625
    2.174123539    5.914038670    5.053681286    2.292689686
    2.181302170    5.906136165    5.046624958    2.290660613
    2.188480801    5.898233700    5.039571122    2.288631436
    2.195659432    5.890331400    5.032519884    2.286602188
    2.202838063    5.882429389    5.025471350    2.284572901
    2.210016694    5.874527790    5.018425625    2.282543605
    2.217195326    5.866626725    5.011382811    2.280514333
    2.224373957    5.858726317    5.004343013    2.278485114
    2.231552588    5.850826685    4.997306331    2.276455981
    2.238731219    5.842927950    4.990272866    2.274426963
    2.245909850    5.835030232    4.983242720    2.272398091
    2.253088481    5.827133647    4.976215991    2.270369395
    2.260267112    5.819238314    4.969192777    2.268340905
    2.267445743    5.811344348    4.962173176    2.266312651
    2.274624374    5.803451867    4.955157285    2.264284662
    2.281803005    5.795560984    4.948145200    2.262256968
    2.288981636    5.787671814    4.941137015    2.260229597
    2.296160267    5.779784470    4.934132824    2.258202579
    2.303338898    5.771899064    4.927132722    2.256175943
    2.310517529    5.764015708    4.920136799    2.254149717
    2.317696160    5.756134512    4.913145148    2.252123929
    2.324874791    5.748255587    4.906157860    2.250098607
    2.332053422    5.740379041    4.899175023    2.248073780
    2.339232053    5.732504983    4.892196728    2.246049474
    2.346410684    5.724633520    4.885223063    2.244025718
    2.353589316    5.716764758    4.878254113    2.242002539
    2.360767947    5.708898805    4.871289968    2.239979963
    2.367946578    5.701035763    4.864330711    2.237958018
    2.375125209    5.693175738    4.857376427    2.235936730
    2.382303840    5.685318833    4.850427202    2.233916127
    2.389482471    5.677465151    4.843483118    2.231896233
    2.396661102    5.669614792    4.836544257    2.229877075
    2.403839733    5.661767858    4.829610701    2.227858680
    2.411018364    5.653924450    4.822682531    2.225841072
    2.418196995    5.646084665    4.815759827    2.223824277
    2.425375626    5.638248604    4.808842668    2.221808320
    2.432554257    5.630416363    4.801931133    2.219793227
    2.439732888    5.622588039    4.795025299    2.217779023
    2.446911519    5.614763729    4.788125243    2.215765731
    2.454090150    5.606943527    4.781231041    2.213753376
    2.461268781    5.599127529    4.774342769    2.211741984
    2.468447412    5.591315828    4.767460500    2.209731577
    2.475626043    5.583508516    4.760584309    2.207722180
    2.482804674    5.575705686    4.753714269    2.205713816
    2.489983306    5.567907430    4.746850451    2.203706509
    2.497161937    5.560113838    4.739992928    2.201700282
    2.504340568    5.552324999    4.733141770    2.199695158
    2.511519199    5.544541003    4.726297047    2.197691161
    2.518697830    5.536761938    4.719458828    2.195688312
    2.525876461    5.528987891    4.712627182    2.193686635
    2.533055092    5.521218949    4.705802176    2.191686151
    2.540233723    5.513455199    4.698983878    2.189686883
