# energy grid [eV]     ieps_x  ieps_y  ieps_z
#
    0.200000000    8.104407355    2.800687957    9.036103348
    0.207178631    8.102708038    2.800339007    9.034344104
    0.214357262    8.100949741    2.799977900    9.032523673
    0.221535893    8.099132561    2.799604652    9.030642142
    0.228714524    8.097256598    2.799219278    9.028699602
    0.235893155    8.095321954    2.798821795    9.026696144
    0.243071786    8.093328736    2.798412218    9.024631865
    0.250250417    8.091277053    2.797990566    9.022506864
    0.257429048    8.089167017    2.797556855    9.020321241
    0.264607679    8.086998744    2.797111105    9.018075101
    0.271786311    8.084772351    2.796653334    9.015768550
    0.278964942    8.082487961    2.796183560    9.013401698
    0.286143573    8.080145697    2.795701805    9.010974658
    0.293322204    8.077745686    2.795208087    9.008487544
    0.300500835    8.075288060    2.794702427    9.005940475
    0.307679466    8.072772952    2.794184847    9.003333571
    0.314858097    8.070200497    2.793655368    9.000666956
    0.322036728    8.067570835    2.793114012    8.997940755
    0.329215359    8.064884108    2.792560802    8.995155097
    0.336393990    8.062140461    2.791995760    8.992310114
    0.343572621    8.059340041    2.791418911    8.989405938
    0.350751252    8.056483000    2.790830277    8.986442708
    0.357929883    8.053569490    2.790229884    8.983420561
    0.365108514    8.050599668    2.789617756    8.980339641
    0.372287145    8.047573692    2.788993919    8.977200090
    0.379465776    8.044491725    2.788358397    8.974002057
    0.386644407    8.041353931    2.787711219    8.970745689
    0.393823038    8.038160476    2.787052409    8.967431140
    0.401001669    8.034911531    2.786381996    8.964058564
    0.408180301    8.031607269    2.785700007    8.960628118
    0.415358932    8.028247863    2.785006469    8.957139961
    0.422537563    8.024833492    2.784301412    8.953594254
    0.429716194    8.021364336    2.783584864    8.949991163
    0.436894825    8.017840578    2.782856854    8.946330853
    0.444073456    8.014262403    2.782117412    8.942613495
    0.451252087    8.010629998    2.781366569    8.938839259
    0.458430718    8.006943555    2.780604354    8.935008318
    0.465609349    8.003203265    2.779830799    8.931120850
    0.472787980    7.999409325    2.779045935    8.927177033
    0.479966611    7.995561930    2.778249795    8.923177046
    0.487145242    7.991661282    2.777442409    8.919121074
    0.494323873    7.987707582    2.776623812    8.915009301
    0.501502504    7.983701035    2.775794035    8.910841915
    0.508681135    7.979641847    2.774953113    8.906619106
    0.515859766    7.975530229    2.774101079    8.902341064
    0.523038397    7.971366390    2.773237967    8.898007985
    0.530217028    7.967150545    2.772363812    8.893620064
    0.537395659    7.962882909    2.771478650    8.889177499
    0.544574290    7.958563699    2.770582515    8.884680492
    0.551752922    7.954193137    2.769675443    8.880129243
    0.558931553    7.949771443    2.768757470    8.875523958
    0.566110184    7.945298842    2.767828633    8.870864842
    0.573288815    7.940775559    2.766888969    8.866152105
    0.580467446    7.936201823    2.765938514    8.861385957
    0.587646077    7.931577864    2.764977308    8.856566610
    0.594824708    7.926903914    2.764005386    8.851694279
    0.602003339    7.922180206    2.763022789    8.846769179
    0.609181970    7.917406977    2.762029554    8.841791528
    0.616360601    7.912584463    2.761025720    8.836761548
    0.623539232    7.907712904    2.760011328    8.831679458
    0.630717863    7.902792542    2.758986415    8.826545484
    0.637896494    7.897823618    2.757951024    8.821359850
    0.645075125    7.892806379    2.756905193    8.816122783
    0.652253756    7.887741070    2.755848964    8.810834513
    0.659432387    7.882627939    2.754782377    8.805495270
    0.666611018    7.877467235    2.753705474    8.800105286
    0.673789649    7.872259211    2.752618296    8.794664794
    0.680968280    7.867004118    2.751520887    8.789174032
    0.688146912    7.861702211    2.750413286    8.783633235
    0.695325543    7.856353747    2.749295538    8.778042643
    0.702504174    7.850958981    2.748167685    8.772402495
    0.709682805    7.845518174    2.747029771    8.766713035
    0.716861436    7.840031584    2.745881838    8.760974504
    0.724040067    7.834499475    2.744723930    8.755187149
    0.731218698    7.828922108    2.743556092    8.749351215
    0.738397329    7.823299748    2.742378368    8.743466949
    0.745575960    7.817632660    2.741190801    8.737534603
    0.752754591    7.811921112    2.739993438    8.731554424
    0.759933222    7.806165371    2.738786323    8.725526667
    0.767111853    7.800365706    2.737569502    8.719451584
    0.774290484    7.794522389    2.736343020    8.713329429
    0.781469115    7.788635690    2.735106923    8.707160458
    0.788647746    7.782705882    2.733861257    8.700944929
    0.795826377    7.776733239    2.732606068    8.694683100
    0.803005008    7.770718035    2.731341404    8.688375230
    0.810183639    7.764660548    2.730067311    8.682021580
    0.817362270    7.758561052    2.728783835    8.675622413
    0.824540902    7.752419826    2.727491025    8.669177990
    0.831719533    7.746237150    2.726188928    8.662688576
    0.838898164    7.740013301    2.724877592    8.656154437
    0.846076795    7.733748561    2.723557064    8.649575838
    0.853255426    7.727443212    2.722227393    8.642953048
    0.860434057    7.721097534    2.720888628    8.636286333
    0.867612688    7.714711812    2.719540816    8.629575964
    0.874791319    7.708286328    2.718184006    8.622822210
    0.881969950    7.701821367    2.716818249    8.616025344
    0.889148581    7.695317214    2.715443592    8.609185636
    0.896327212    7.688774155    2.714060085    8.602303360
    0.903505843    7.682192476    2.712667778    8.595378789
    0.910684474    7.675572464    2.711266720    8.588412199
    0.917863105    7.668914406    2.709856962    8.581403865
    0.925041736    7.662218591    2.708438553    8.574354062
    0.932220367    7.655485308    2.707011543    8.567263067
    0.939398998    7.648714844    2.705575984    8.560131160
    0.946577629    7.641907490    2.704131926    8.552958617
    0.953756260    7.635063536    2.702679418    8.545745717
    0.960934891    7.628183273    2.701218513    8.538492742
    0.968113523    7.621266990    2.699749262    8.531199970
    0.975292154    7.614314979    2.698271714    8.523867682
    0.982470785    7.607327531    2.696785923    8.516496161
    0.989649416    7.600304939    2.695291938    8.509085689
    0.996828047    7.593247493    2.693789812    8.501636547
    1.004006678    7.586155487    2.692279597    8.494149019
    1.011185309    7.579029213    2.690761344    8.486623389
    1.018363940    7.571868964    2.689235105    8.479059941
    1.025542571    7.564675032    2.687700932    8.471458958
    1.032721202    7.557447710    2.686158877    8.463820727
    1.039899833    7.550187291    2.684608993    8.456145532
    1.047078464    7.542894069    2.683051332    8.448433659
    1.054257095    7.535568337    2.681485947    8.440685394
    1.061435726    7.528210387    2.679912889    8.432901023
    1.068614357    7.520820514    2.678332212    8.425080832
    1.075792988    7.513399011    2.676743968    8.417225110
    1.082971619    7.505946170    2.675148211    8.409334142
    1.090150250    7.498462285    2.673544992    8.401408217
    1.097328881    7.490947649    2.671934366    8.393447621
    1.104507513    7.483402556    2.670316384    8.385452642
    1.111686144    7.475827297    2.668691100    8.377423569
    1.118864775    7.468222166    2.667058568    8.369360690
    1.126043406    7.460587454    2.665418840    8.361264291
    1.133222037    7.452923455    2.663771971    8.353134663
    1.140400668    7.445230461    2.662118012    8.344972093
    1.147579299    7.437508763    2.660457017    8.336776869
    1.154757930    7.429758653    2.658789041    8.328549280
    1.161936561    7.421980422    2.657114136    8.320289614
    1.169115192    7.414174361    2.655432356    8.311998159
    1.176293823    7.406340761    2.653743754    8.303675205
    1.183472454    7.398479912    2.652048384    8.295321039
    1.190651085    7.390592105    2.650346299    8.286935950
    1.197829716    7.382677628    2.648637554    8.278520225
    1.205008347    7.374736770    2.646922202    8.270074153
    1.212186978    7.366769822    2.645200296    8.261598021
    1.219365609    7.358777069    2.643471890    8.253092117
    1.226544240    7.350758801    2.641737037    8.244556730
    1.233722871    7.342715305    2.639995792    8.235992145
    1.240901503    7.334646867    2.638248209    8.227398651
    1.248080134    7.326553774    2.636494339    8.218776534
    1.255258765    7.318436311    2.634734239    8.210126081
    1.262437396    7.310294764    2.632967960    8.201447579
    1.269616027    7.302129416    2.631195557    8.192741312
    1.276794658    7.293940553    2.629417083    8.184007568
    1.283973289    7.285728456    2.627632593    8.175246631
    1.291151920    7.277493409    2.625842138    8.166458788
    1.298330551    7.269235694    2.624045774    8.157644321
    1.305509182    7.260955591    2.622243553    8.148803517
    1.312687813    7.252653383    2.620435530    8.139936658
    1.319866444    7.244329348    2.618621756    8.131044029
    1.327045075    7.235983766    2.616802287    8.122125913
    1.334223706    7.227616915    2.614977175    8.113182592
    1.341402337    7.219229073    2.613146474    8.104214348
    1.348580968    7.210820517    2.611310237    8.095221463
    1.355759599    7.202391523    2.609468517    8.086204219
    1.362938230    7.193942366    2.607621367    8.077162896
    1.370116861    7.185473321    2.605768841    8.068097775
    1.377295492    7.176984662    2.603910991    8.059009135
    1.384474124    7.168476661    2.602047871    8.049897254
    1.391652755    7.159949591    2.600179534    8.040762413
    1.398831386    7.151403723    2.598306032    8.031604888
    1.406010017    7.142839326    2.596427418    8.022424957
    1.413188648    7.134256670    2.594543745    8.013222896
    1.420367279    7.125656024    2.592655065    8.003998982
    1.427545910    7.117037655    2.590761432    7.994753491
    1.434724541    7.108401830    2.588862897    7.985486696
    1.441903172    7.099748815    2.586959513    7.976198871
    1.449081803    7.091078873    2.585051333    7.966890291
    1.456260434    7.082392270    2.583138408    7.957561228
    1.463439065    7.073689266    2.581220791    7.948211954
    1.470617696    7.064970125    2.579298534    7.938842739
    1.477796327    7.056235108    2.577371688    7.929453855
    1.484974958    7.047484472    2.575440306    7.920045571
    1.492153589    7.038718478    2.573504439    7.910618156
    1.499332220    7.029937383    2.571564139    7.901171879
    1.506510851    7.021141444    2.569619457    7.891707005
    1.513689482    7.012330916    2.567670446    7.882223803
    1.520868114    7.003506054    2.565717155    7.872722538
    1.528046745    6.994667111    2.563759637    7.863203474
    1.535225376    6.985814339    2.561797942    7.853666875
    1.542404007    6.976947989    2.559832121    7.844113006
    1.549582638    6.968068313    2.557862226    7.834542128
    1.556761269    6.959175558    2.555888307    7.824954502
    1.563939900    6.950269973    2.553910414    7.815350389
    1.571118531    6.941351804    2.551928597    7.805730049
    1.578297162    6.932421298    2.549942908    7.796093740
    1.585475793    6.923478698    2.547953397    7.786441720
    1.592654424    6.914524248    2.545960113    7.776774247
    1.599833055    6.905558190    2.543963106    7.767091575
    1.607011686    6.896580765    2.541962426    7.757393960
    1.614190317    6.887592213    2.539958124    7.747681657
    1.621368948    6.878592773    2.537950247    7.737954917
    1.628547579    6.869582681    2.535938846    7.728213994
    1.635726210    6.860562176    2.533923970    7.718459137
    1.642904841    6.851531490    2.531905668    7.708690598
    1.650083472    6.842490860    2.529883988    7.698908626
    1.657262104    6.833440516    2.527858980    7.689113467
    1.664440735    6.824380691    2.525830693    7.679305371
    1.671619366    6.815311615    2.523799173    7.669484581
    1.678797997    6.806233516    2.521764471    7.659651345
    1.685976628    6.797146624    2.519726634    7.649805904
    1.693155259    6.788051163    2.517685709    7.639948503
    1.700333890    6.778947361    2.515641745    7.630079383
    1.707512521    6.769835440    2.513594790    7.620198785
    1.714691152    6.760715623    2.511544890    7.610306949
    1.721869783    6.751588133    2.509492094    7.600404112
    1.729048414    6.742453189    2.507436448    7.590490514
    1.736227045    6.733311010    2.505377999    7.580566390
    1.743405676    6.724161816    2.503316794    7.570631975
    1.750584307    6.715005821    2.501252880    7.560687503
    1.757762938    6.705843241    2.499186302    7.550733209
    1.764941569    6.696674291    2.497117109    7.540769323
    1.772120200    6.687499182    2.495045344    7.530796077
    1.779298831    6.678318127    2.492971056    7.520813701
    1.786477462    6.669131336    2.490894288    7.510822422
    1.793656093    6.659939018    2.488815087    7.500822469
    1.800834725    6.650741379    2.486733498    7.490814068
    1.808013356    6.641538628    2.484649566    7.480797444
    1.815191987    6.632330968    2.482563336    7.470772821
    1.822370618    6.623118603    2.480474853    7.460740421
    1.829549249    6.613901737    2.478384163    7.450700467
    1.836727880    6.604680569    2.476291308    7.440653180
    1.843906511    6.595455301    2.474196333    7.430598778
    1.851085142    6.586226130    2.472099283    7.420537479
    1.858263773    6.576993255    2.470000202    7.410469501
    1.865442404    6.567756870    2.467899132    7.400395060
    1.872621035    6.558517171    2.465796118    7.390314370
    1.879799666    6.549274351    2.463691202    7.380227645
    1.886978297    6.540028603    2.461584428    7.370135096
    1.894156928    6.530780117    2.459475839    7.360036936
    1.901335559    6.521529082    2.457365478    7.349933373
    1.908514190    6.512275688    2.455253386    7.339824617
    1.915692821    6.503020120    2.453139607    7.329710875
    1.922871452    6.493762565    2.451024182    7.319592353
    1.930050083    6.484503207    2.448907153    7.309469256
    1.937228715    6.475242229    2.446788562    7.299341789
    1.944407346    6.465979812    2.444668451    7.289210153
    1.951585977    6.456716138    2.442546860    7.279074551
    1.958764608    6.447451385    2.440423832    7.268935182
    1.965943239    6.438185732    2.438299406    7.258792246
    1.973121870    6.428919355    2.436173623    7.248645940
    1.980300501    6.419652429    2.434046524    7.238496460
    1.987479132    6.410385128    2.431918150    7.228344003
    1.994657763    6.401117625    2.429788539    7.218188762
    2.001836394    6.391850092    2.427657733    7.208030930
    2.009015025    6.382582698    2.425525770    7.197870699
    2.016193656    6.373315613    2.423392691    7.187708259
    2.023372287    6.364049005    2.421258534    7.177543800
    2.030550918    6.354783038    2.419123338    7.167377509
    2.037729549    6.345517880    2.416987143    7.157209573
    2.044908180    6.336253692    2.414849987    7.147040178
    2.052086811    6.326990639    2.412711908    7.136869508
    2.059265442    6.317728881    2.410572944    7.126697746
    2.066444073    6.308468578    2.408433134    7.116525074
    2.073622705    6.299209888    2.406292514    7.106351672
    2.080801336    6.289952970    2.404151124    7.096177721
    2.087979967    6.280697980    2.402009000    7.086003397
    2.095158598    6.271445072    2.399866179    7.075828879
    2.102337229    6.262194400    2.397722697    7.065654342
    2.109515860    6.252946116    2.395578593    7.055479960
    2.116694491    6.243700373    2.393433902    7.045305906
    2.123873122    6.234457319    2.391288661    7.035132353
    2.131051753    6.225217103    2.389142905    7.024959472
    2.138230384    6.215979874    2.386996671    7.014787431
    2.145409015    6.206745776    2.384849993    7.004616400
    2.152587646    6.197514956    2.382702909    6.994446546
    2.159766277    6.188287557    2.380555452    6.984278034
    2.166944908    6.179063721    2.378407657    6.974111029
    2.174123539    6.169843589    2.376259561    6.963945695
    2.181302170    6.160627303    2.374111196    6.953782194
    2.188480801    6.151415001    2.371962597    6.943620688
    2.195659432    6.142206820    2.369813800    6.933461335
    2.202838063    6.133002897    2.367664836    6.923304295
    2.210016694    6.123803367    2.365515741    6.913149725
    2.217195326    6.114608365    2.363366547    6.902997782
    2.224373957    6.105418023    2.361217288    6.892848620
    2.231552588    6.096232473    2.359067997    6.882702394
    2.238731219    6.087051845    2.356918707    6.872559255
    2.245909850    6.077876270    2.354769451    6.862419356
    2.253088481    6.068705874    2.352620260    6.852282847
    2.260267112    6.059540786    2.350471167    6.842149877
    2.267445743    6.050381130    2.348322205    6.832020593
    2.274624374    6.041227032    2.346173404    6.821895143
    2.281803005    6.032078615    2.344024796    6.811773671
    2.288981636    6.022936001    2.341876414    6.801656323
    2.296160267    6.013799312    2.339728287    6.791543242
    2.303338898    6.004668668    2.337580447    6.781434569
    2.310517529    5.995544187    2.335432924    6.771330445
    2.317696160    5.986425987    2.333285749    6.761231010
    2.324874791    5.977314186    2.331138953    6.751136403
    2.332053422    5.968208898    2.328992565    6.741046760
    2.339232053    5.959110237    2.326846615    6.730962218
    2.346410684    5.950018318    2.324701133    6.720882913
    2.353589316    5.940933253    2.322556149    6.710808977
    2.360767947    5.931855151    2.320411691    6.700740543
    2.367946578    5.922784125    2.318267788    6.690677744
    2.375125209    5.913720281    2.316124470    6.680620709
    2.382303840    5.904663728    2.313981764    6.670569568
    2.389482471    5.895614573    2.311839701    6.660524449
    2.396661102    5.886572922    2.309698306    6.650485479
    2.403839733    5.877538878    2.307557609    6.640452784
    2.411018364    5.868512545    2.305417637    6.630426488
    2.418196995    5.859494027    2.303278419    6.620406716
    2.425375626    5.850483423    2.301139980    6.610393590
    2.432554257    5.841480834    2.299002348    6.600387231
    2.439732888    5.832486360    2.296865551    6.590387759
    2.446911519    5.823500098    2.294729615    6.580395294
    2.454090150    5.814522146    2.292594566    6.570409954
    2.461268781    5.805552600    2.290460431    6.560431856
    2.468447412    5.796591555    2.288327236    6.550461116
    2.475626043    5.787639104    2.286195007    6.540497848
    2.482804674    5.778695342    2.284063769    6.530542167
    2.489983306    5.769760360    2.281933548    6.520594185
    2.497161937    5.760834248    2.279804369    6.510654013
    2.504340568    5.751917097    2.277676258    6.500721763
    2.511519199    5.743008996    2.275549239    6.490797543
    2.518697830    5.734110034    2.273423338    6.480881462
    2.525876461    5.725220296    2.271298577    6.470973628
    2.533055092    5.716339868    2.269174983    6.461074146
    2.540233723    5.707468837    2.267052578    6.451183122
