# energy grid [eV]     ieps_x  ieps_y  ieps_z
#
    0.200000000   10.992550334   10.908537118    5.035785951
    0.207178631   10.990079989   10.906052542    5.034991847
    0.214357262   10.987523879   10.903481722    5.034170082
    0.221535893   10.984882145   10.900824798    5.033320692
    0.228714524   10.982154928   10.898081915    5.032443711
    0.235893155   10.979342375   10.895253222    5.031539178
    0.243071786   10.976444639   10.892338874    5.030607131
    0.250250417   10.973461876   10.889339029    5.029647609
    0.257429048   10.970394246   10.886253851    5.028660654
    0.264607679   10.967241914   10.883083506    5.027646308
    0.271786311   10.964005049   10.879828168    5.026604612
    0.278964942   10.960683826   10.876488011    5.025535613
    0.286143573   10.957278422   10.873063218    5.024439354
    0.293322204   10.953789021   10.869553973    5.023315882
    0.300500835   10.950215807   10.865960466    5.022165245
    0.307679466   10.946558973   10.862282891    5.020987491
    0.314858097   10.942818714   10.858521446    5.019782670
    0.322036728   10.938995228   10.854676333    5.018550832
    0.329215359   10.935088720   10.850747759    5.017292031
    0.336393990   10.931099397   10.846735935    5.016006318
    0.343572621   10.927027470   10.842641075    5.014693747
    0.350751252   10.922873157   10.838463400    5.013354374
    0.357929883   10.918636676   10.834203132    5.011988255
    0.365108514   10.914318252   10.829860500    5.010595447
    0.372287145   10.909918113   10.825435733    5.009176009
    0.379465776   10.905436490   10.820929068    5.007729999
    0.386644407   10.900873620   10.816340745    5.006257478
    0.393823038   10.896229742   10.811671007    5.004758507
    0.401001669   10.891505101   10.806920100    5.003233149
    0.408180301   10.886699943   10.802088277    5.001681468
    0.415358932   10.881814520   10.797175793    5.000103527
    0.422537563   10.876849087   10.792182907    4.998499393
    0.429716194   10.871803903   10.787109881    4.996869131
    0.436894825   10.866679231   10.781956982    4.995212809
    0.444073456   10.861475336   10.776724480    4.993530496
    0.451252087   10.856192489   10.771412650    4.991822260
    0.458430718   10.850830964   10.766021769    4.990088173
    0.465609349   10.845391037   10.760552117    4.988328306
    0.472787980   10.839872988   10.755003981    4.986542731
    0.479966611   10.834277103   10.749377648    4.984731521
    0.487145242   10.828603669   10.743673411    4.982894750
    0.494323873   10.822852976   10.737891564    4.981032494
    0.501502504   10.817025319   10.732032406    4.979144829
    0.508681135   10.811120996   10.726096240    4.977231831
    0.515859766   10.805140307   10.720083371    4.975293579
    0.523038397   10.799083558   10.713994108    4.973330151
    0.530217028   10.792951055   10.707828764    4.971341628
    0.537395659   10.786743110   10.701587652    4.969328088
    0.544574290   10.780460036   10.695271093    4.967289615
    0.551752922   10.774102150   10.688879407    4.965226290
    0.558931553   10.767669773   10.682412920    4.963138197
    0.566110184   10.761163228   10.675871959    4.961025420
    0.573288815   10.754582840   10.669256856    4.958888042
    0.580467446   10.747928939   10.662567944    4.956726151
    0.587646077   10.741201857   10.655805560    4.954539833
    0.594824708   10.734401928   10.648970043    4.952329175
    0.602003339   10.727529491   10.642061738    4.950094265
    0.609181970   10.720584885   10.635080988    4.947835192
    0.616360601   10.713568455   10.628028143    4.945552047
    0.623539232   10.706480546   10.620903553    4.943244919
    0.630717863   10.699321507   10.613707572    4.940913900
    0.637896494   10.692091688   10.606440556    4.938559082
    0.645075125   10.684791445   10.599102865    4.936180558
    0.652253756   10.677421132   10.591694859    4.933778421
    0.659432387   10.669981110   10.584216903    4.931352766
    0.666611018   10.662471739   10.576669363    4.928903688
    0.673789649   10.654893384   10.569052608    4.926431283
    0.680968280   10.647246410   10.561367011    4.923935647
    0.688146912   10.639531185   10.553612943    4.921416878
    0.695325543   10.631748081   10.545790782    4.918875073
    0.702504174   10.623897471   10.537900905    4.916310331
    0.709682805   10.615979729   10.529943694    4.913722751
    0.716861436   10.607995233   10.521919530    4.911112433
    0.724040067   10.599944362   10.513828799    4.908479478
    0.731218698   10.591827499   10.505671888    4.905823987
    0.738397329   10.583645026   10.497449185    4.903146061
    0.745575960   10.575397329   10.489161081    4.900445804
    0.752754591   10.567084796   10.480807969    4.897723319
    0.759933222   10.558707816   10.472390245    4.894978709
    0.767111853   10.550266779   10.463908304    4.892212078
    0.774290484   10.541762080   10.455362545    4.889423532
    0.781469115   10.533194113   10.446753369    4.886613176
    0.788647746   10.524563275   10.438081177    4.883781116
    0.795826377   10.515869963   10.429346374    4.880927458
    0.803005008   10.507114577   10.420549364    4.878052311
    0.810183639   10.498297520   10.411690554    4.875155781
    0.817362270   10.489419193   10.402770353    4.872237976
    0.824540902   10.480480003   10.393789171    4.869299007
    0.831719533   10.471480353   10.384747420    4.866338981
    0.838898164   10.462420653   10.375645511    4.863358009
    0.846076795   10.453301310   10.366483861    4.860356202
    0.853255426   10.444122734   10.357262883    4.857333669
    0.860434057   10.434885338   10.347982996    4.854290522
    0.867612688   10.425589534   10.338644617    4.851226873
    0.874791319   10.416235736   10.329248166    4.848142833
    0.881969950   10.406824358   10.319794064    4.845038517
    0.889148581   10.397355817   10.310282731    4.841914036
    0.896327212   10.387830531   10.300714591    4.838769504
    0.903505843   10.378248917   10.291090068    4.835605035
    0.910684474   10.368611395   10.281409586    4.832420744
    0.917863105   10.358918384   10.271673572    4.829216745
    0.925041736   10.349170307   10.261882451    4.825993152
    0.932220367   10.339367586   10.252036652    4.822750083
    0.939398998   10.329510642   10.242136603    4.819487652
    0.946577629   10.319599901   10.232182733    4.816205975
    0.953756260   10.309635786   10.222175471    4.812905170
    0.960934891   10.299618722   10.212115250    4.809585353
    0.968113523   10.289549136   10.202002499    4.806246641
    0.975292154   10.279427453   10.191837651    4.802889152
    0.982470785   10.269254102   10.181621138    4.799513004
    0.989649416   10.259029508   10.171353394    4.796118315
    0.996828047   10.248754102   10.161034851    4.792705203
    1.004006678   10.238428311   10.150665945    4.789273787
    1.011185309   10.228052564   10.140247108    4.785824186
    1.018363940   10.217627291   10.129778777    4.782356519
    1.025542571   10.207152922   10.119261386    4.778870907
    1.032721202   10.196629887   10.108695371    4.775367468
    1.039899833   10.186058615   10.098081168    4.771846323
    1.047078464   10.175439539   10.087419212    4.768307592
    1.054257095   10.164773088   10.076709940    4.764751395
    1.061435726   10.154059695   10.065953788    4.761177853
    1.068614357   10.143299789   10.055151192    4.757587087
    1.075792988   10.132493803   10.044302589    4.753979218
    1.082971619   10.121642167   10.033408416    4.750354368
    1.090150250   10.110745314   10.022469109    4.746712657
    1.097328881   10.099803674   10.011485104    4.743054207
    1.104507513   10.088817678   10.000456839    4.739379141
    1.111686144   10.077787759    9.989384749    4.735687579
    1.118864775   10.066714347    9.978269271    4.731979644
    1.126043406   10.055597874    9.967110841    4.728255458
    1.133222037   10.044438769    9.955909894    4.724515144
    1.140400668   10.033237464    9.944666866    4.720758823
    1.147579299   10.021994389    9.933382193    4.716986619
    1.154757930   10.010709974    9.922056310    4.713198653
    1.161936561    9.999384649    9.910689651    4.709395049
    1.169115192    9.988018843    9.899282651    4.705575929
    1.176293823    9.976612986    9.887835743    4.701741417
    1.183472454    9.965167505    9.876349361    4.697891634
    1.190651085    9.953682829    9.864823937    4.694026704
    1.197829716    9.942159386    9.853259906    4.690146750
    1.205008347    9.930597603    9.841657697    4.686251894
    1.212186978    9.918997906    9.830017744    4.682342261
    1.219365609    9.907360721    9.818340475    4.678417972
    1.226544240    9.895686475    9.806626323    4.674479152
    1.233722871    9.883975591    9.794875715    4.670525923
    1.240901503    9.872228495    9.783089081    4.666558408
    1.248080134    9.860445609    9.771266850    4.662576730
    1.255258765    9.848627356    9.759409447    4.658581012
    1.262437396    9.836774159    9.747517300    4.654571378
    1.269616027    9.824886438    9.735590835    4.650547950
    1.276794658    9.812964614    9.723630476    4.646510851
    1.283973289    9.801009107    9.711636647    4.642460204
    1.291151920    9.789020336    9.699609773    4.638396132
    1.298330551    9.776998717    9.687550273    4.634318758
    1.305509182    9.764944669    9.675458571    4.630228204
    1.312687813    9.752858607    9.663335087    4.626124593
    1.319866444    9.740740947    9.651180239    4.622008047
    1.327045075    9.728592102    9.638994446    4.617878689
    1.334223706    9.716412486    9.626778125    4.613736642
    1.341402337    9.704202510    9.614531693    4.609582026
    1.348580968    9.691962586    9.602255564    4.605414965
    1.355759599    9.679693124    9.589950153    4.601235581
    1.362938230    9.667394532    9.577615872    4.597043995
    1.370116861    9.655067218    9.565253133    4.592840329
    1.377295492    9.642711588    9.552862346    4.588624704
    1.384474124    9.630328049    9.540443921    4.584397242
    1.391652755    9.617917003    9.527998265    4.580158064
    1.398831386    9.605478855    9.515525786    4.575907292
    1.406010017    9.593014005    9.503026889    4.571645045
    1.413188648    9.580522854    9.490501978    4.567371446
    1.420367279    9.568005802    9.477951455    4.563086613
    1.427545910    9.555463246    9.465375723    4.558790669
    1.434724541    9.542895582    9.452775182    4.554483732
    1.441903172    9.530303206    9.440150230    4.550165923
    1.449081803    9.517686512    9.427501264    4.545837362
    1.456260434    9.505045892    9.414828681    4.541498168
    1.463439065    9.492381737    9.402132875    4.537148460
    1.470617696    9.479694437    9.389414239    4.532788358
    1.477796327    9.466984379    9.376673165    4.528417980
    1.484974958    9.454251951    9.363910043    4.524037445
    1.492153589    9.441497538    9.351125260    4.519646871
    1.499332220    9.428721524    9.338319205    4.515246377
    1.506510851    9.415924290    9.325492263    4.510836080
    1.513689482    9.403106218    9.312644818    4.506416098
    1.520868114    9.390267687    9.299777251    4.501986548
    1.528046745    9.377409075    9.286889944    4.497547547
    1.535225376    9.364530757    9.273983276    4.493099213
    1.542404007    9.351633108    9.261057625    4.488641661
    1.549582638    9.338716501    9.248113366    4.484175008
    1.556761269    9.325781307    9.235150873    4.479699369
    1.563939900    9.312827896    9.222170519    4.475214861
    1.571118531    9.299856636    9.209172675    4.470721598
    1.578297162    9.286867894    9.196157710    4.466219696
    1.585475793    9.273862033    9.183125992    4.461709270
    1.592654424    9.260839418    9.170077886    4.457190433
    1.599833055    9.247800409    9.157013756    4.452663300
    1.607011686    9.234745366    9.143933965    4.448127984
    1.614190317    9.221674647    9.130838873    4.443584600
    1.621368948    9.208588608    9.117728839    4.439033259
    1.628547579    9.195487603    9.104604219    4.434474075
    1.635726210    9.182371986    9.091465370    4.429907160
    1.642904841    9.169242108    9.078312643    4.425332626
    1.650083472    9.156098316    9.065146392    4.420750586
    1.657262104    9.142940960    9.051966965    4.416161149
    1.664440735    9.129770384    9.038774711    4.411564427
    1.671619366    9.116586932    9.025569975    4.406960531
    1.678797997    9.103390947    9.012353103    4.402349571
    1.685976628    9.090182768    8.999124435    4.397731657
    1.693155259    9.076962734    8.985884313    4.393106898
    1.700333890    9.063731181    8.972633076    4.388475403
    1.707512521    9.050488444    8.959371059    4.383837281
    1.714691152    9.037234857    8.946098599    4.379192641
    1.721869783    9.023970749    8.932816027    4.374541590
    1.729048414    9.010696450    8.919523675    4.369884236
    1.736227045    8.997412288    8.906221873    4.365220686
    1.743405676    8.984118588    8.892910947    4.360551047
    1.750584307    8.970815673    8.879591222    4.355875425
    1.757762938    8.957503864    8.866263023    4.351193925
    1.764941569    8.944183482    8.852926670    4.346506655
    1.772120200    8.930854845    8.839582483    4.341813718
    1.779298831    8.917518268    8.826230780    4.337115219
    1.786477462    8.904174066    8.812871876    4.332411263
    1.793656093    8.890822550    8.799506086    4.327701953
    1.800834725    8.877464030    8.786133719    4.322987393
    1.808013356    8.864098816    8.772755087    4.318267686
    1.815191987    8.850727213    8.759370498    4.313542935
    1.822370618    8.837349526    8.745980256    4.308813241
    1.829549249    8.823966057    8.732584666    4.304078706
    1.836727880    8.810577106    8.719184030    4.299339431
    1.843906511    8.797182974    8.705778647    4.294595518
    1.851085142    8.783783955    8.692368816    4.289847066
    1.858263773    8.770380345    8.678954833    4.285094176
    1.865442404    8.756972436    8.665536991    4.280336947
    1.872621035    8.743560520    8.652115582    4.275575478
    1.879799666    8.730144885    8.638690897    4.270809867
    1.886978297    8.716725818    8.625263223    4.266040213
    1.894156928    8.703303605    8.611832847    4.261266614
    1.901335559    8.689878528    8.598400052    4.256489166
    1.908514190    8.676450868    8.584965120    4.251707966
    1.915692821    8.663020904    8.571528332    4.246923111
    1.922871452    8.649588914    8.558089965    4.242134696
    1.930050083    8.636155173    8.544650296    4.237342816
    1.937228715    8.622719953    8.531209599    4.232547567
    1.944407346    8.609283527    8.517768145    4.227749043
    1.951585977    8.595846164    8.504326204    4.222947338
    1.958764608    8.582408130    8.490884046    4.218142545
    1.965943239    8.568969692    8.477441935    4.213334758
    1.973121870    8.555531113    8.464000136    4.208524068
    1.980300501    8.542092655    8.450558911    4.203710568
    1.987479132    8.528654576    8.437118521    4.198894349
    1.994657763    8.515217135    8.423679223    4.194075502
    2.001836394    8.501780587    8.410241273    4.189254119
    2.009015025    8.488345186    8.396804926    4.184430289
    2.016193656    8.474911184    8.383370433    4.179604101
    2.023372287    8.461478830    8.369938046    4.174775645
    2.030550918    8.448048373    8.356508012    4.169945010
    2.037729549    8.434620058    8.343080577    4.165112283
    2.044908180    8.421194130    8.329655987    4.160277553
    2.052086811    8.407770830    8.316234482    4.155440906
    2.059265442    8.394350399    8.302816304    4.150602429
    2.066444073    8.380933075    8.289401691    4.145762209
    2.073622705    8.367519094    8.275990880    4.140920331
    2.080801336    8.354108690    8.262584104    4.136076880
    2.087979967    8.340702097    8.249181597    4.131231941
    2.095158598    8.327299544    8.235783589    4.126385599
    2.102337229    8.313901260    8.222390309    4.121537937
    2.109515860    8.300507473    8.209001983    4.116689038
    2.116694491    8.287118406    8.195618837    4.111838985
    2.123873122    8.273734283    8.182241093    4.106987860
    2.131051753    8.260355325    8.168868972    4.102135746
    2.138230384    8.246981750    8.155502693    4.097282723
    2.145409015    8.233613777    8.142142474    4.092428872
    2.152587646    8.220251621    8.128788529    4.087574273
    2.159766277    8.206895494    8.115441072    4.082719007
    2.166944908    8.193545610    8.102100314    4.077863152
    2.174123539    8.180202177    8.088766466    4.073006788
    2.181302170    8.166865403    8.075439733    4.068149993
    2.188480801    8.153535496    8.062120323    4.063292843
    2.195659432    8.140212657    8.048808439    4.058435418
    2.202838063    8.126897092    8.035504284    4.053577793
    2.210016694    8.113588998    8.022208056    4.048720045
    2.217195326    8.100288577    8.008919955    4.043862250
    2.224373957    8.086996023    7.995640177    4.039004482
    2.231552588    8.073711533    7.982368917    4.034146818
    2.238731219    8.060435300    7.969106367    4.029289331
    2.245909850    8.047167514    7.955852718    4.024432095
    2.253088481    8.033908367    7.942608160    4.019575183
    2.260267112    8.020658045    7.929372879    4.014718668
    2.267445743    8.007416734    7.916147061    4.009862623
    2.274624374    7.994184620    7.902930890    4.005007120
    2.281803005    7.980961884    7.889724548    4.000152229
    2.288981636    7.967748707    7.876528214    3.995298022
    2.296160267    7.954545268    7.863342068    3.990444569
    2.303338898    7.941351745    7.850166284    3.985591940
    2.310517529    7.928168312    7.837001039    3.980740204
    2.317696160    7.914995144    7.823846505    3.975889431
    2.324874791    7.901832412    7.810702854    3.971039688
    2.332053422    7.888680287    7.797570254    3.966191044
    2.339232053    7.875538938    7.784448873    3.961343566
    2.346410684    7.862408531    7.771338879    3.956497321
    2.353589316    7.849289231    7.758240433    3.951652376
    2.360767947    7.836181201    7.745153700    3.946808796
    2.367946578    7.823084604    7.732078841    3.941966646
    2.375125209    7.809999600    7.719016013    3.937125993
    2.382303840    7.796926346    7.705965375    3.932286901
    2.389482471    7.783865000    7.692927082    3.927449433
    2.396661102    7.770815717    7.679901288    3.922613653
    2.403839733    7.757778649    7.666888147    3.917779624
    2.411018364    7.744753950    7.653887808    3.912947410
    2.418196995    7.731741768    7.640900420    3.908117071
    2.425375626    7.718742252    7.627926131    3.903288669
    2.432554257    7.705755550    7.614965087    3.898462267
    2.439732888    7.692781806    7.602017432    3.893637924
    2.446911519    7.679821164    7.589083308    3.888815700
    2.454090150    7.666873766    7.576162856    3.883995656
    2.461268781    7.653939753    7.563256216    3.879177851
    2.468447412    7.641019263    7.550363525    3.874362343
    2.475626043    7.628112434    7.537484919    3.869549191
    2.482804674    7.615219402    7.524620533    3.864738453
    2.489983306    7.602340300    7.511770500    3.859930186
    2.497161937    7.589475261    7.498934951    3.855124446
    2.504340568    7.576624416    7.486114016    3.850321292
    2.511519199    7.563787896    7.473307823    3.845520778
    2.518697830    7.550965827    7.460516499    3.840722959
    2.525876461    7.538158337    7.447740169    3.835927892
    2.533055092    7.525365550    7.434978957    3.831135631
    2.540233723    7.512587590    7.422232985    3.826346230
