# energy grid [eV]     epsr_x  epsr_y  epsr_z
#
    0.200000000    9.789665782   10.600998926    4.873694874
    0.207178631    9.791666896   10.603009815    4.874470320
    0.214357262    9.793740003   10.605092862    4.875273690
    0.221535893    9.795885259   10.607248199    4.876105047
    0.228714524    9.798102822   10.609475967    4.876964456
    0.235893155    9.800392862   10.611776310    4.877851987
    0.243071786    9.802755550   10.614149380    4.878767709
    0.250250417    9.805191069   10.616595332    4.879711697
    0.257429048    9.807699603   10.619114328    4.880684028
    0.264607679    9.810281349   10.621706536    4.881684780
    0.271786311    9.812936506   10.624372128    4.882714038
    0.278964942    9.815665283   10.627111286    4.883771885
    0.286143573    9.818467896   10.629924194    4.884858412
    0.293322204    9.821344568   10.632811045    4.885973710
    0.300500835    9.824295531   10.635772037    4.887117875
    0.307679466    9.827321024   10.638807375    4.888291005
    0.314858097    9.830421295   10.641917273    4.889493204
    0.322036728    9.833596599   10.645101948    4.890724577
    0.329215359    9.836847202   10.648361626    4.891985234
    0.336393990    9.840173378   10.651696543    4.893275290
    0.343572621    9.843575410   10.655106937    4.894594862
    0.350751252    9.847053592   10.658593060    4.895944072
    0.357929883    9.850608227   10.662155168    4.897323048
    0.365108514    9.854239628   10.665793526    4.898731920
    0.372287145    9.857948119   10.669508409    4.900170824
    0.379465776    9.861734038   10.673300099    4.901639901
    0.386644407    9.865597729   10.677168889    4.903139298
    0.393823038    9.869539554   10.681115081    4.904669165
    0.401001669    9.873559884   10.685138987    4.906229660
    0.408180301    9.877659105   10.689240929    4.907820945
    0.415358932    9.881837615   10.693421239    4.909443190
    0.422537563    9.886095829   10.697680263    4.911096570
    0.429716194    9.890434174   10.702018356    4.912781267
    0.436894825    9.894853096   10.706435887    4.914497472
    0.444073456    9.899353055   10.710933236    4.916245380
    0.451252087    9.903934531   10.715510799    4.918025198
    0.458430718    9.908598020   10.720168984    4.919837137
    0.465609349    9.913344039   10.724908215    4.921681421
    0.472787980    9.918173126   10.729728931    4.923558280
    0.479966611    9.923085840   10.734631588    4.925467957
    0.487145242    9.928082763   10.739616659    4.927410703
    0.494323873    9.933164502   10.744684636    4.929386781
    0.501502504    9.938331690   10.749836031    4.931396467
    0.508681135    9.943584987   10.755071375    4.933440049
    0.515859766    9.948925084   10.760391222    4.935517828
    0.523038397    9.954352702   10.765796150    4.937630121
    0.530217028    9.959868597   10.771286761    4.939777259
    0.537395659    9.965473562   10.776863686    4.941959590
    0.544574290    9.971168427   10.782527582    4.944177483
    0.551752922    9.976954065   10.788279138    4.946431322
    0.558931553    9.982831395   10.794119076    4.948721514
    0.566110184    9.988801383   10.800048154    4.951048491
    0.573288815    9.994865049   10.806067167    4.953412705
    0.580467446   10.001023470   10.812176954    4.955814638
    0.587646077   10.007277786   10.818378398    4.958254801
    0.594824708   10.013629203   10.824672429    4.960733734
    0.602003339   10.020079003   10.831060033    4.963252015
    0.609181970   10.026628545   10.837542253    4.965810257
    0.616360601   10.033279282   10.844120196    4.968409116
    0.623539232   10.040032758   10.850795037    4.971049293
    0.630717863   10.046890630   10.857568030    4.973731539
    0.637896494   10.053854667   10.864440511    4.976456659
    0.645075125   10.060926773   10.871413911    4.979225523
    0.652253756   10.068108993   10.878489762    4.982039066
    0.659432387   10.075403537   10.885669712    4.984898298
    0.666611018   10.082812791   10.892955536    4.987804316
    0.673789649   10.090339341   10.900349149    4.990758310
    0.680968280   10.097986000   10.907852628    4.993761574
    0.688146912   10.105755833   10.915468227    4.996815524
    0.695325543   10.113652190   10.923198403    4.999921709
    0.702504174   10.121678742   10.931045840    5.003081829
    0.709682805   10.129839531   10.939013480    5.006297758
    0.716861436   10.138139012   10.947104560    5.009571568
    0.724040067   10.146582123   10.955322656    5.012905555
    0.731218698   10.155174348   10.963671727    5.016302274
    0.738397329   10.163921807   10.972156180    5.019764580
    0.745575960   10.172831355   10.980780938    5.023295674
    0.752754591   10.181910701   10.989551525    5.026899160
    0.759933222   10.191168555   10.998474165    5.030579115
    0.767111853   10.200614803   11.007555910    5.034340170
    0.774290484   10.210260721   11.016804784    5.038187611
    0.781469115   10.220119237   11.026229970    5.042127505
    0.788647746   10.230205256   11.035842037    5.046166850
    0.795826377   10.240536063   11.045653219    5.050313769
    0.803005008   10.251131826   11.055677771    5.054577743
    0.810183639   10.262016237   11.065932414    5.058969918
    0.817362270   10.273217325   11.076436904    5.063503483
    0.824540902   10.284768499   11.087214763    5.068194168
    0.831719533   10.296709912   11.098294231    5.073060885
    0.838898164   10.309090243   11.109709511    5.078126568
    0.846076795   10.321969070   11.121502433    5.083419292
    0.853255426   10.335420050   11.133724670    5.088973777
    0.860434057   10.349535246   11.146440771    5.094833427
    0.867612688   10.364431080   11.159732316    5.101053138
    0.874791319   10.380256608   11.173703707    5.107703204
    0.881969950   10.397205152   11.188490296    5.114874803
    0.889148581   10.415530712   11.204269863    5.122687743
    0.896327212   10.435571041   11.221278744    5.131301347
    0.903505843   10.457779148   11.239833860    5.140929317
    0.910684474   10.482762489   11.260360111    5.151858224
    0.917863105   10.511316457   11.283413798    5.164463309
    0.925041736   10.544387633   11.309656921    5.179191145
    0.932220367   10.582699722   11.339595673    5.196383152
    0.939398998   10.624970010   11.372333530    5.215434115
    0.946577629   10.660619881   11.400475049    5.231352975
    0.953756260   10.646288596   11.393706242    5.223681930
    0.960934891   10.493139994   11.289920469    5.150507692
    0.968113523   10.263480692   11.132677644    5.041226758
    0.975292154   10.169490837   11.070316878    4.995946577
    0.982470785   10.182489799   11.082787334    5.001135490
    0.989649416   10.223759597   11.115056204    5.019654012
    0.996828047   10.265977307   11.148021867    5.038611061
    1.004006678   10.303506982   11.177744454    5.055347558
    1.011185309   10.336196315   11.204117816    5.069791634
    1.018363940   10.364941408   11.227768777    5.082366065
    1.025542571   10.390649476   11.249331940    5.093498872
    1.032721202   10.414045967   11.269314847    5.103532319
    1.039899833   10.435677810   11.288100244    5.112724450
    1.047078464   10.455952287   11.305973268    5.121267422
    1.054257095   10.475173943   11.323147239    5.129304927
    1.061435726   10.493572880   11.339783454    5.136945537
    1.068614357   10.511325185   11.356005462    5.144272342
    1.075792988   10.528567411   11.371909191    5.151349784
    1.082971619   10.545406844   11.387570129    5.158228503
    1.090150250   10.561928843   11.403048456    5.164948796
    1.097328881   10.578202131   11.418392740    5.171543119
    1.104507513   10.594282661   11.433642650    5.178037906
    1.111686144   10.610216475   11.448830949    5.184454923
    1.118864775   10.626041841   11.463984992    5.190812273
    1.126043406   10.641790869   11.479127860    5.197125161
    1.133222037   10.657490747   11.494279223    5.203406478
    1.140400668   10.673164700   11.509456017    5.209667253
    1.147579299   10.688832733   11.524672962    5.215917005
    1.154757930   10.704512224   11.539942982    5.222164024
    1.161936561   10.720218386   11.555277530    5.228415586
    1.169115192   10.735964649   11.570686859    5.234678140
    1.176293823   10.751762960   11.586180238    5.240957447
    1.183472454   10.767624029   11.601766127    5.247258697
    1.190651085   10.783557541   11.617452326    5.253586611
    1.197829716   10.799572316   11.633246100    5.259945518
    1.205008347   10.815676456   11.649154284    5.266339427
    1.212186978   10.831877465   11.665183372    5.272772081
    1.219365609   10.848182351   11.681339600    5.279247011
    1.226544240   10.864597711   11.697629013    5.285767577
    1.233722871   10.881129814   11.714057534    5.292337010
    1.240901503   10.897784668   11.730631017    5.298958442
    1.248080134   10.914568079   11.747355310    5.305634944
    1.255258765   10.931485715   11.764236305    5.312369551
    1.262437396   10.948543152   11.781279996    5.319165294
    1.269616027   10.965745934   11.798492533    5.326025228
    1.276794658   10.983099618   11.815880280    5.332952459
    1.283973289   11.000609833   11.833449880    5.339950179
    1.291151920   11.018282327   11.851208322    5.347021690
    1.298330551   11.036123032   11.869163013    5.354170445
    1.305509182   11.054138125   11.887321872    5.361400080
    1.312687813   11.072334099   11.905693422    5.368714463
    1.319866444   11.090717846   11.924286905    5.376117738
    1.327045075   11.109296752   11.943112422    5.383614381
    1.334223706   11.128078811   11.962181089    5.391209274
    1.341402337   11.147072754   11.981505235    5.398907778
    1.348580968   11.166288221   12.001098632    5.406715832
    1.355759599   11.185735955   12.020976790    5.414640076
    1.362938230   11.205428056   12.041157311    5.422687989
    1.370116861   11.225378294   12.061660339    5.430868082
    1.377295492   11.245602511   12.082509129    5.439190123
    1.384474124   11.266119134   12.103730770    5.447665434
    1.391652755   11.286949849   12.125357124    5.456307277
    1.398831386   11.308120481   12.147426057    5.465131349
    1.406010017   11.329662175   12.169983056    5.474156453
    1.413188648   11.351612980   12.193083414    5.483405378
    1.420367279   11.374020029   12.216795183    5.492906113
    1.427545910   11.396942538   12.241203245    5.502693510
    1.434724541   11.420456010   12.266414960    5.512811592
    1.441903172   11.444658156   12.292568090    5.523316800
    1.449081803   11.469677226   12.319841906    5.534282541
    1.456260434   11.495683539   12.348472509    5.545805466
    1.463439065   11.522904461   12.378772718    5.558013622
    1.470617696   11.551639993   12.411152905    5.571074978
    1.477796327   11.582263127   12.446122443    5.585197946
    1.484974958   11.615137641   12.484185067    5.600588180
    1.492153589   11.650181420   12.525277993    5.617217354
    1.499332220   11.685006326   12.566377710    5.633836586
    1.506510851   11.708178899   12.592820622    5.644400315
    1.513689482   11.687519929   12.563233261    5.631857243
    1.520868114   11.614186311   12.466329845    5.591550418
    1.528046745   11.574637677   12.413636812    5.569419005
    1.535225376   11.590260769   12.432888168    5.576876534
    1.542404007   11.625464010   12.478469949    5.595112759
    1.549582638   11.663537517   12.529174798    5.615366717
    1.556761269   11.700503262   12.580307766    5.635672088
    1.563939900   11.735961185   12.631923114    5.656008411
    1.571118531   11.770288339   12.685216663    5.676814527
    1.578297162   11.803945274   12.741474411    5.698567025
    1.585475793   11.837271647   12.800970736    5.721388881
    1.592654424   11.870203281   12.859031779    5.743695063
    1.599833055   11.901303132   12.891848369    5.757317309
    1.607011686   11.926073247   12.831883713    5.739052675
    1.614190317   11.943430738   12.660980420    5.682664224
    1.621368948   11.966212731   12.561558219    5.650846571
    1.628547579   11.997748452   12.578688081    5.659081388
    1.635726210   12.033102361   12.637804471    5.681723926
    1.642904841   12.070144771   12.704223050    5.706829545
    1.650083472   12.108597895   12.770064085    5.731671806
    1.657262104   12.148412950   12.834663014    5.756070757
    1.664440735   12.188134809   12.897207616    5.780115399
    1.671619366   12.220585770   12.949966996    5.802687308
    1.678797997   12.227471481   12.967903268    5.818789318
    1.685976628   12.202484638   12.921707856    5.818467546
    1.693155259   12.175296614   12.834543070    5.802963883
    1.700333890   12.180275096   12.802706615    5.801489475
    1.707512521   12.213168113   12.835399750    5.818898711
    1.714691152   12.254141763   12.885794951    5.841654911
    1.721869783   12.294677928   12.929192351    5.861667420
    1.729048414   12.333677098   12.965470005    5.879927580
    1.736227045   12.372900413   13.008041701    5.903320612
    1.743405676   12.412478618   13.055727905    5.931518560
    1.750584307   12.452167523   13.104305199    5.962828176
    1.757762938   12.492078907   13.152728003    5.997304478
    1.764941569   12.532293562   13.200977146    6.035697581
    1.772120200   12.572143049   13.248053439    6.078270679
    1.779298831   12.608364894   13.288653066    6.121908717
    1.786477462   12.634817058   13.312263092    6.151874108
    1.793656093   12.654471867   13.321567029    6.122852240
    1.800834725   12.672305517   13.321148984    5.962207883
    1.808013356   12.693316515   13.324042359    5.771369573
    1.815191987   12.727204779   13.353986489    5.716392820
    1.822370618   12.768315297   13.399353608    5.743274593
    1.829549249   12.811278326   13.448554844    5.788892267
    1.836727880   12.854599338   13.498377765    5.833854145
    1.843906511   12.898131727   13.548522998    5.874616722
    1.851085142   12.941948929   13.598992228    5.911476987
    1.858263773   12.985704344   13.648015491    5.945420008
    1.865442404   13.027309747   13.686876997    5.977400401
    1.872621035   13.061645253   13.694777788    6.008218281
    1.879799666   13.090609707   13.678934358    6.038555119
    1.886978297   13.127610601   13.692589709    6.068890688
    1.894156928   13.172270104   13.734594209    6.098829385
    1.901335559   13.218254161   13.782088359    6.125364582
    1.908514190   13.261428844   13.822881469    6.143135344
    1.915692821   13.304199344   13.861225139    6.158726086
    1.922871452   13.350335721   13.906269071    6.179816492
    1.930050083   13.394389222   13.952324871    6.188213269
    1.937228715   13.432486307   13.994450981    6.171637139
    1.944407346   13.475459531   14.039992746    6.168926564
    1.951585977   13.527974975   14.092426690    6.196262198
    1.958764608   13.585460108   14.148625485    6.236768206
    1.965943239   13.644958436   14.206310142    6.280413730
    1.973121870   13.702489295   14.261006369    6.318294080
    1.980300501   13.745209021   14.297206850    6.325152310
    1.987479132   13.754163720   14.291922425    6.264016096
    1.994657763   13.759069746   14.281134293    6.192596253
    2.001836394   13.801041926   14.314620495    6.190682268
    2.009015025   13.865432994   14.374519970    6.229313639
    2.016193656   13.937255005   14.442386773    6.278094737
    2.023372287   14.012278963   14.512177336    6.324827566
    2.030550918   14.089116065   14.579176014    6.353935247
    2.037729549   14.163930233   14.632977871    6.334138531
    2.044908180   14.224964608   14.666917222    6.278478478
    2.052086811   14.236264209   14.667181878    6.254912338
    2.059265442   14.170848797   14.609128473    6.252708882
    2.066444073   14.135424191   14.579076408    6.267073288
    2.073622705   14.181938076   14.619824548    6.299165031
    2.080801336   14.262755936   14.689366130    6.336517548
    2.087979967   14.351181889   14.764318233    6.373278191
    2.095158598   14.440692972   14.838681786    6.408379890
    2.102337229   14.530465041   14.910453211    6.442039703
    2.109515860   14.619817800   14.974775275    6.474602726
    2.116694491   14.707468826   15.023977040    6.506328242
    2.123873122   14.799380789   15.071104786    6.538004749
    2.131051753   14.903636698   15.135322292    6.570545453
    2.138230384   15.018992824   15.210861989    6.604054583
    2.145409015   15.138627533   15.289906302    6.638015912
    2.152587646   15.235208858   15.363850087    6.669613056
    2.159766277   15.221123632   15.412540587    6.689321238
    2.166944908   15.012567613   15.425111568    6.687641473
    2.174123539   14.829302812   15.450721917    6.688591012
    2.181302170   14.838127020   15.507189681    6.709813217
    2.188480801   14.907175718   15.542326911    6.733447687
    2.195659432   14.953776447   15.528555366    6.750602127
    2.202838063   15.018255343   15.521944501    6.774608640
    2.210016694   15.124267914   15.567952693    6.808922518
    2.217195326   15.253672808   15.652370692    6.848273883
    2.224373957   15.388660708   15.748543239    6.889696474
    2.231552588   15.518623513   15.843717315    6.932652623
    2.238731219   15.622652537   15.925012482    6.977232762
    2.245909850   15.678281881   15.980181231    7.023540937
    2.253088481   15.739335907   16.037944316    7.072017160
    2.260267112   15.838486437   16.115549529    7.118254809
    2.267445743   15.899989233   16.172795269    7.142088184
    2.274624374   15.857471454   16.179297142    7.117379884
    2.281803005   15.829533353   16.199240181    7.093355590
    2.288981636   15.922099303   16.280634704    7.126090645
    2.296160267   16.077823224   16.393486074    7.190667109
    2.303338898   16.245069033   16.511441189    7.258044569
    2.310517529   16.380225963   16.607151318    7.290771194
    2.317696160   16.401664426   16.626743749    7.218197111
    2.324874791   16.282932853   16.566461623    7.069074112
    2.332053422   16.163885872   16.542658221    7.009129496
    2.339232053   16.184882001   16.611845838    7.043101440
    2.346410684   16.320040649   16.729857814    7.110703628
    2.353589316   16.482709662   16.842850853    7.177761577
    2.360767947   16.631489802   16.902607425    7.227687543
    2.367946578   16.748641869   16.878819745    7.248341780
    2.375125209   16.842459900   16.854479139    7.248656417
    2.382303840   16.971073908   16.916836741    7.274144583
    2.389482471   17.138189047   17.035543665    7.328728825
    2.396661102   17.301074466   17.169378711    7.392507955
    2.403839733   17.396013730   17.301109802    7.455478134
    2.411018364   17.404893352   17.427537935    7.515581902
    2.418196995   17.471109367   17.559192531    7.578123411
    2.425375626   17.612462398   17.687010657    7.638891618
    2.432554257   17.711703885   17.769142734    7.677530096
    2.439732888   17.734114914   17.783545353    7.682916746
    2.446911519   17.777773846   17.765529773    7.681646217
    2.454090150   17.804022697   17.721670392    7.685992958
    2.461268781   17.794409000   17.733824483    7.712531211
    2.468447412   17.882817478   17.819699106    7.767245247
    2.475626043   18.065219700   17.934497049    7.837403517
    2.482804674   18.274857276   18.064651843    7.917680281
    2.489983306   18.464488709   18.180012504    7.988749535
    2.497161937   18.619523729   18.287182304    8.008312763
    2.504340568   18.749338950   18.400082520    7.958443568
    2.511519199   18.904806978   18.497795227    7.922064605
    2.518697830   19.075542644   18.570463063    7.907190760
    2.525876461   19.204607303   18.637131615    7.894712740
    2.533055092   19.318043863   18.750088326    7.925611322
    2.540233723   19.336905467   18.910504438    7.997021522
