# energy grid [eV]     epsr_x  epsr_y  epsr_z
#
    0.200000000   16.111619198   16.069648885    2.375285036
    0.207178631   16.115462363   16.073419322    2.375476215
    0.214357262   16.119443517   16.077325136    2.375674309
    0.221535893   16.123562923   16.081366585    2.375879338
    0.228714524   16.127820851   16.085543935    2.376091321
    0.235893155   16.132217584   16.089857463    2.376310280
    0.243071786   16.136753412   16.094307456    2.376536236
    0.250250417   16.141428637   16.098894211    2.376769212
    0.257429048   16.146243568   16.103618034    2.377009229
    0.264607679   16.151198528   16.108479241    2.377256314
    0.271786311   16.156293848   16.113478160    2.377510490
    0.278964942   16.161529870   16.118615128    2.377771783
    0.286143573   16.166906945   16.123890494    2.378040221
    0.293322204   16.172425436   16.129304615    2.378315832
    0.300500835   16.178085716   16.134857862    2.378598645
    0.307679466   16.183888170   16.140550614    2.378888689
    0.314858097   16.189833192   16.146383264    2.379185996
    0.322036728   16.195921189   16.152356214    2.379490598
    0.329215359   16.202152578   16.158469879    2.379802529
    0.336393990   16.208527787   16.164724684    2.380121823
    0.343572621   16.215047256   16.171121069    2.380448516
    0.350751252   16.221711438   16.177659482    2.380782646
    0.357929883   16.228520795   16.184340387    2.381124250
    0.365108514   16.235475804   16.191164258    2.381473368
    0.372287145   16.242576952   16.198131583    2.381830043
    0.379465776   16.249824739   16.205242863    2.382194316
    0.386644407   16.257219678   16.212498611    2.382566232
    0.393823038   16.264762295   16.219899356    2.382945836
    0.401001669   16.272453128   16.227445638    2.383333176
    0.408180301   16.280292730   16.235138014    2.383728302
    0.415358932   16.288281665   16.242977054    2.384131263
    0.422537563   16.296420512   16.250963342    2.384542114
    0.429716194   16.304709865   16.259097480    2.384960908
    0.436894825   16.313150332   16.267380083    2.385387702
    0.444073456   16.321742534   16.275811783    2.385822555
    0.451252087   16.330487108   16.284393229    2.386265528
    0.458430718   16.339384707   16.293125086    2.386716685
    0.465609349   16.348435998   16.302008037    2.387176090
    0.472787980   16.357641665   16.311042783    2.387643812
    0.479966611   16.367002409   16.320230045    2.388119922
    0.487145242   16.376518945   16.329570559    2.388604493
    0.494323873   16.386192008   16.339065085    2.389097601
    0.501502504   16.396022350   16.348714402    2.389599326
    0.508681135   16.406010739   16.358519309    2.390109751
    0.515859766   16.416157965   16.368480629    2.390628961
    0.523038397   16.426464835   16.378599207    2.391157046
    0.530217028   16.436932175   16.388875910    2.391694099
    0.537395659   16.447560832   16.399311634    2.392240216
    0.544574290   16.458351676   16.409907295    2.392795500
    0.551752922   16.469305595   16.420663840    2.393360056
    0.558931553   16.480423502   16.431582242    2.393933993
    0.566110184   16.491706331   16.442663504    2.394517428
    0.573288815   16.503155043   16.453908660    2.395110480
    0.580467446   16.514770619   16.465318775    2.395713275
    0.587646077   16.526554070   16.476894948    2.396325946
    0.594824708   16.538506433   16.488638315    2.396948630
    0.602003339   16.550628770   16.500550047    2.397581472
    0.609181970   16.562922175   16.512631357    2.398224625
    0.616360601   16.575387770   16.524883498    2.398878247
    0.623539232   16.588026711   16.537307767    2.399542506
    0.630717863   16.600840185   16.549905510    2.400217580
    0.637896494   16.613829413   16.562678122    2.400903653
    0.645075125   16.626995656   16.575627050    2.401600923
    0.652253756   16.640340208   16.588753800    2.402309596
    0.659432387   16.653864406   16.602059936    2.403029892
    0.666611018   16.667569631   16.615547090    2.403762041
    0.673789649   16.681457304   16.629216961    2.404506290
    0.680968280   16.695528897   16.643071327    2.405262898
    0.688146912   16.709785932   16.657112043    2.406032143
    0.695325543   16.724229982   16.671341056    2.406814319
    0.702504174   16.738862679   16.685760406    2.407609739
    0.709682805   16.753685714   16.700372235    2.408418739
    0.716861436   16.768700845   16.715178803    2.409241677
    0.724040067   16.783909896   16.730182487    2.410078936
    0.731218698   16.799314769   16.745385805    2.410930928
    0.738397329   16.814917444   16.760791420    2.411798097
    0.745575960   16.830719990   16.776402159    2.412680918
    0.752754591   16.846724569   16.792221033    2.413579909
    0.759933222   16.862933446   16.808251250    2.414495627
    0.767111853   16.879348996   16.824496245    2.415428677
    0.774290484   16.895973717   16.840959701    2.416379719
    0.781469115   16.912810242   16.857645580    2.417349472
    0.788647746   16.929861349   16.874558162    2.418338724
    0.795826377   16.947129982   16.891702082    2.419348339
    0.803005008   16.964619262   16.909082376    2.420379270
    0.810183639   16.982332514   16.926704545    2.421432569
    0.817362270   17.000273287   16.944574614    2.422509405
    0.824540902   17.018445385   16.962699213    2.423611082
    0.831719533   17.036852896   16.981085676    2.424739057
    0.838898164   17.055500235   16.999742150    2.425894969
    0.846076795   17.074392186   17.018677735    2.427080673
    0.853255426   17.093533961   17.037902652    2.428298273
    0.860434057   17.112931265   17.057428452    2.429550178
    0.867612688   17.132590377   17.077268266    2.430839155
    0.874791319   17.152518248   17.097437133    2.432168412
    0.881969950   17.172722629   17.117952396    2.433541689
    0.889148581   17.193212216   17.138834216    2.434963383
    0.896327212   17.213996851   17.160106233    2.436438711
    0.903505843   17.235087766   17.181796419    2.437973916
    0.910684474   17.256497902   17.203938201    2.439576548
    0.917863105   17.278242330   17.226571964    2.441255835
    0.925041736   17.300338800   17.249747056    2.443023195
    0.932220367   17.322808487   17.273524551    2.444892929
    0.939398998   17.345677006   17.297981031    2.446883194
    0.946577629   17.368975801   17.323213885    2.449017370
    0.953756260   17.392744068   17.349348684    2.451325970
    0.960934891   17.417031396   17.376549405    2.453849302
    0.968113523   17.441901243   17.405031917    2.456640991
    0.975292154   17.467434927   17.435079278    2.459771902
    0.982470785   17.493733788   17.467048754    2.463331654
    0.989649416   17.520909195   17.501326416    2.467415293
    0.996828047   17.549018160   17.538049611    2.472044883
    1.004006678   17.577776763   17.575883718    2.476826469
    1.011185309   17.605469651   17.607380504    2.479651326
    1.018363940   17.626488387   17.608506614    2.473767420
    1.025542571   17.636502056   17.560602664    2.453912242
    1.032721202   17.650904826   17.528760172    2.438209794
    1.039899833   17.678422712   17.549638002    2.436817244
    1.047078464   17.712387088   17.594366504    2.441556685
    1.054257095   17.748924535   17.645903934    2.447546832
    1.061435726   17.787058188   17.699822538    2.453516386
    1.068614357   17.825738222   17.753268276    2.459131787
    1.075792988   17.859930774   17.794403668    2.463628697
    1.082971619   17.872744650   17.783563411    2.464355941
    1.090150250   17.848177749   17.683122164    2.458794639
    1.097328881   17.831172103   17.598578537    2.454255016
    1.104507513   17.853190870   17.603685576    2.455854826
    1.111686144   17.893425343   17.649292587    2.460254657
    1.118864775   17.938213472   17.702932996    2.465259024
    1.126043406   17.984155458   17.756116879    2.470320453
    1.133222037   18.031123312   17.807876395    2.475410700
    1.140400668   18.079809665   17.859006200    2.480628139
    1.147579299   18.130985300   17.910485232    2.486095806
    1.154757930   18.184710264   17.962511694    2.491913022
    1.161936561   18.237574723   18.011773811    2.498027772
    1.169115192   18.273633190   18.042605409    2.503812767
    1.176293823   18.257730052   18.020481696    2.507754526
    1.183472454   18.210441623   17.965104890    2.511016716
    1.190651085   18.220281046   17.962543054    2.517954735
    1.197829716   18.278860921   18.005652514    2.527945980
    1.205008347   18.345362696   18.061228166    2.537167768
    1.212186978   18.374962944   18.110600515    2.536004546
    1.219365609   18.298473322   18.127591078    2.507854422
    1.226544240   18.152458117   18.089523559    2.469050800
    1.233722871   18.094141794   18.058866381    2.457458863
    1.240901503   18.129109356   18.080573607    2.466023936
    1.248080134   18.195162408   18.125699464    2.480841637
    1.255258765   18.264970702   18.174750095    2.497211733
    1.262437396   18.331859950   18.222520915    2.513726205
    1.269616027   18.392658282   18.268028442    2.527166917
    1.276794658   18.437141367   18.310434004    2.524804812
    1.283973289   18.444922953   18.347969109    2.481886255
    1.291151920   18.434924372   18.382893214    2.419986473
    1.298330551   18.457154899   18.420621475    2.397363438
    1.305509182   18.502940066   18.460440507    2.403446720
    1.312687813   18.554298181   18.500633857    2.416822737
    1.319866444   18.605353761   18.540710490    2.430370515
    1.327045075   18.655097581   18.580664239    2.442736807
    1.334223706   18.703721585   18.620601169    2.454016546
    1.341402337   18.751627490   18.660641612    2.464577167
    1.348580968   18.799164276   18.700893385    2.474735944
    1.355759599   18.846419785   18.741415979    2.484478629
    1.362938230   18.892582313   18.782089354    2.492589263
    1.370116861   18.934654859   18.822345320    2.494902737
    1.377295492   18.971157808   18.861953840    2.489309333
    1.384474124   19.011126541   18.902923884    2.487925060
    1.391652755   19.058230200   18.946112066    2.495581312
    1.398831386   19.108727626   18.990639895    2.507028484
    1.406010017   19.159725524   19.035026102    2.518029260
    1.413188648   19.206451554   19.074656193    2.521437490
    1.420367279   19.240133387   19.100551957    2.504364608
    1.427545910   19.267570557   19.119926960    2.477391557
    1.434724541   19.306550123   19.152922784    2.470503725
    1.441903172   19.342344811   19.192092843    2.477083636
    1.449081803   19.350807969   19.223957593    2.483734128
    1.456260434   19.355100550   19.254725411    2.490740162
    1.463439065   19.389614496   19.295867045    2.502820727
    1.470617696   19.441167047   19.342864757    2.518386095
    1.477796327   19.496528086   19.391245242    2.535708305
    1.484974958   19.551743855   19.439684505    2.552942242
    1.492153589   19.605767278   19.487687843    2.562482755
    1.499332220   19.657343460   19.534234023    2.539332179
    1.506510851   19.705443280   19.578420372    2.460398808
    1.513689482   19.753977229   19.623308465    2.391890749
    1.520868114   19.805625071   19.670991167    2.378624546
    1.528046745   19.858825630   19.720179366    2.389727871
    1.535225376   19.912588439   19.770055028    2.405057128
    1.542404007   19.966727031   19.820455854    2.419227923
    1.549582638   20.021300877   19.871426836    2.431430236
    1.556761269   20.076425699   19.923068129    2.441893014
    1.563939900   20.132230502   19.975501664    2.450995822
    1.571118531   20.188853634   20.028870333    2.459075600
    1.578297162   20.246449368   20.083347231    2.466402096
    1.585475793   20.305198456   20.139149968    2.473190472
    1.592654424   20.365321119   20.196558695    2.479618946
    1.599833055   20.427090037   20.255933145    2.485843789
    1.607011686   20.490831469   20.317706106    2.492007500
    1.614190317   20.556864029   20.382258897    2.498226431
    1.621368948   20.625170478   20.449298564    2.504500875
    1.628547579   20.694006618   20.515261212    2.510324401
    1.635726210   20.755118962   20.564427945    2.513338632
    1.642904841   20.788422683   20.559031209    2.507834152
    1.650083472   20.799521958   20.508680877    2.495280358
    1.657262104   20.841120533   20.509969829    2.490332548
    1.664440735   20.914879747   20.564805360    2.493281646
    1.671619366   21.001360828   20.636351374    2.498543855
    1.678797997   21.091718024   20.710064370    2.503941195
    1.685976628   21.176079970   20.781720060    2.508981302
    1.693155259   21.221737514   20.846920650    2.513565109
    1.700333890   21.166775390   20.898080968    2.517617693
    1.707512521   21.066875214   20.942725000    2.521329925
    1.714691152   21.066239961   20.999655428    2.525077375
    1.721869783   21.137092957   21.065553788    2.528841127
    1.729048414   21.226259452   21.133787140    2.532535924
    1.736227045   21.316080372   21.202232507    2.536148040
    1.743405676   21.403078118   21.270553890    2.539689904
    1.750584307   21.487299526   21.338844800    2.543177909
    1.757762938   21.569442296   21.407266105    2.546627082
    1.764941569   21.650189795   21.475965209    2.550050389
    1.772120200   21.730092202   21.545064029    2.553459032
    1.779298831   21.809573485   21.614662259    2.556862900
    1.786477462   21.888960294   21.684842852    2.560270972
    1.793656093   21.968508718   21.755676840    2.563691655
    1.800834725   22.048424846   21.827227092    2.567133072
    1.808013356   22.128879873   21.899551203    2.570603324
    1.815191987   22.210021162   21.972703783    2.574110737
    1.822370618   22.291980557   22.046738372    2.577664127
    1.829549249   22.374880912   22.121709168    2.581273088
    1.836727880   22.458841571   22.197672741    2.584948343
    1.843906511   22.543983384   22.274689890    2.588702172
    1.851085142   22.630433752   22.352827815    2.592548973
    1.858263773   22.718332185   22.432162815    2.596505994
    1.865442404   22.807836785   22.512783689    2.600594297
    1.872621035   22.899131815   22.594795931    2.604839983
    1.879799666   22.992435136   22.678325957    2.609275490
    1.886978297   23.087998781   22.763521403    2.613939929
    1.894156928   23.186073591   22.850530237    2.618873906
    1.901335559   23.286719868   22.939388630    2.624090248
    1.908514190   23.389031884   23.029560949    2.629452403
    1.915692821   23.489024463   23.118685203    2.634341771
    1.922871452   23.581572340   23.203723944    2.637965255
    1.930050083   23.678175609   23.291507346    2.642161300
    1.937228715   23.791307236   23.389407730    2.648917744
    1.944407346   23.916533692   23.494598816    2.657501434
    1.951585977   24.049574914   23.603698534    2.666961600
    1.958764608   24.185702765   23.710548621    2.675287356
    1.965943239   24.307715603   23.793702763    2.675309455
    1.973121870   24.379311792   23.815476629    2.654375282
    1.980300501   24.400231022   23.816332388    2.625723990
    1.987479132   24.375600196   23.877075869    2.615748009
    1.994657763   24.312165392   23.971822562    2.615509724
    2.001836394   24.298552416   24.075441503    2.617526473
    2.009015025   24.389798352   24.191254893    2.624153959
    2.016193656   24.539304350   24.315044559    2.633507613
    2.023372287   24.703330529   24.442074137    2.643308024
    2.030550918   24.869275580   24.571590273    2.652988498
    2.037729549   25.036132244   24.704390619    2.662636123
    2.044908180   25.205583197   24.841538534    2.672463267
    2.052086811   25.378776947   24.983273694    2.682537333
    2.059265442   25.551834620   25.125539886    2.692156950
    2.066444073   25.701618704   25.247891408    2.697738311
    2.073622705   25.765479475   25.296248876    2.689806583
    2.080801336   25.744187328   25.271085736    2.668388661
    2.087979967   25.804950869   25.316759918    2.658638968
    2.095158598   25.957590630   25.449839955    2.663603460
    2.102337229   26.106506636   25.608946242    2.673284612
    2.109515860   26.219478173   25.761843288    2.683504726
    2.116694491   26.319133203   25.877865432    2.693445660
    2.123873122   26.342714407   25.906655063    2.702687821
    2.131051753   26.354789159   25.921887533    2.711838466
    2.138230384   26.458904399   26.026622298    2.721627300
    2.145409015   26.582302903   26.178985001    2.731589062
    2.152587646   26.725838058   26.345473174    2.742334627
    2.159766277   26.910969408   26.518188626    2.753878248
    2.166944908   27.093283134   26.687320231    2.763672472
    2.174123539   27.253641343   26.849918843    2.770666632
    2.181302170   27.428726609   27.014362385    2.777062759
    2.188480801   27.605433440   27.168198263    2.771757644
    2.195659432   27.737200283   27.295457593    2.740357765
    2.202838063   27.855721506   27.432051040    2.708546582
    2.210016694   28.029896068   27.604847132    2.704578721
    2.217195326   28.243715341   27.798523932    2.717186133
    2.224373957   28.470729795   28.001566579    2.734097925
    2.231552588   28.703053569   28.211661251    2.751611118
    2.238731219   28.940154856   28.429664153    2.769130256
    2.245909850   29.182951413   28.656832545    2.786349429
    2.253088481   29.430888370   28.892405353    2.801143928
    2.260267112   29.679174538   29.130087564    2.806918235
    2.267445743   29.922851778   29.362445611    2.800471298
    2.274624374   30.155156871   29.581394207    2.797730088
    2.281803005   30.384089847   29.797417716    2.807840542
    2.288981636   30.641840908   30.040715464    2.825335967
    2.296160267   30.879878443   30.214104314    2.839776093
    2.303338898   31.035168683   30.196527436    2.839356664
    2.310517529   31.174694889   30.092201426    2.815590964
    2.317696160   31.396979808   30.113864370    2.789973731
    2.324874791   31.732552982   30.374669529    2.794335484
    2.332053422   32.115388876   30.719253658    2.813019205
    2.339232053   32.449106121   30.905120404    2.822153564
    2.346410684   32.630906107   30.672071343    2.813770985
    2.353589316   32.713483769   30.250103036    2.805638969
    2.360767947   32.936040017   30.227734882    2.814616473
    2.367946578   33.260686164   30.523708329    2.832897040
    2.375125209   33.409734259   30.879425661    2.838481386
    2.382303840   33.436730420   31.210403421    2.833735343
    2.389482471   33.660444573   31.543291947    2.837205100
    2.396661102   33.917509850   31.863805211    2.824363727
    2.403839733   33.961584086   32.177852180    2.784309996
    2.411018364   34.058347114   32.535853310    2.764549906
    2.418196995   34.489485729   32.933648416    2.779913577
    2.425375626   35.037622575   33.338073117    2.802214992
    2.432554257   35.504516487   33.729687050    2.807144965
    2.439732888   35.967396120   34.141754074    2.789012221
    2.446911519   36.484573418   34.587506489    2.753595760
    2.454090150   36.904486748   34.985829355    2.739458979
    2.461268781   36.659990899   35.109527124    2.750981052
    2.468447412   35.579052437   34.855792690    2.768436753
    2.475626043   35.075060297   34.725573396    2.788877168
    2.482804674   35.492906079   34.901842148    2.810929844
    2.489983306   36.247627053   35.321174545    2.835862745
    2.497161937   37.044653883   35.850937142    2.861183477
    2.504340568   37.813348291   36.326786353    2.878765161
    2.511519199   38.499089499   36.582761879    2.878743607
    2.518697830   39.138498910   36.724466235    2.871625054
    2.525876461   39.802314076   37.066386253    2.876537764
    2.533055092   40.403229975   37.557787213    2.886811255
    2.540233723   40.973491775   38.100081141    2.900649126
