# energy grid [eV]     epsr_x  epsr_y  epsr_z
#
    0.200000000    8.051669189    8.734939801   11.491851058
    0.207178631    8.053071931    8.736478292   11.493991325
    0.214357262    8.054524767    8.738071748   11.496208028
    0.221535893    8.056027763    8.739720243   11.498501267
    0.228714524    8.057580988    8.741423856   11.500871148
    0.235893155    8.059184511    8.743182667   11.503317779
    0.243071786    8.060838408    8.744996760   11.505841273
    0.250250417    8.062542753    8.746866219   11.508441744
    0.257429048    8.064297624    8.748791133   11.511119313
    0.264607679    8.066103102    8.750771595   11.513874103
    0.271786311    8.067959269    8.752807696   11.516706240
    0.278964942    8.069866211    8.754899535   11.519615854
    0.286143573    8.071824015    8.757047211   11.522603081
    0.293322204    8.073832771    8.759250826   11.525668058
    0.300500835    8.075892573    8.761510484   11.528810925
    0.307679466    8.078003514    8.763826294   11.532031829
    0.314858097    8.080165691    8.766198366   11.535330919
    0.322036728    8.082379206    8.768626814   11.538708348
    0.329215359    8.084644160    8.771111753   11.542164271
    0.336393990    8.086960657    8.773653303   11.545698850
    0.343572621    8.089328806    8.776251586   11.549312248
    0.350751252    8.091748716    8.778906727   11.553004635
    0.357929883    8.094220500    8.781618852   11.556776181
    0.365108514    8.096744272    8.784388093   11.560627063
    0.372287145    8.099320149    8.787214584   11.564557461
    0.379465776    8.101948253    8.790098460   11.568567559
    0.386644407    8.104628705    8.793039862   11.572657543
    0.393823038    8.107361631    8.796038932   11.576827607
    0.401001669    8.110147158    8.799095815   11.581077946
    0.408180301    8.112985418    8.802210659   11.585408758
    0.415358932    8.115876544    8.805383617   11.589820250
    0.422537563    8.118820670    8.808614843   11.594312627
    0.429716194    8.121817937    8.811904494   11.598886104
    0.436894825    8.124868484    8.815252732   11.603540894
    0.444073456    8.127972457    8.818659720   11.608277220
    0.451252087    8.131130002    8.822125626   11.613095305
    0.458430718    8.134341268    8.825650620   11.617995379
    0.465609349    8.137606407    8.829234875   11.622977674
    0.472787980    8.140925576    8.832878567   11.628042428
    0.479966611    8.144298931    8.836581878   11.633189883
    0.487145242    8.147726633    8.840344990   11.638420284
    0.494323873    8.151208847    8.844168090   11.643733882
    0.501502504    8.154745738    8.848051368   11.649130931
    0.508681135    8.158337477    8.851995016   11.654611692
    0.515859766    8.161984234    8.855999232   11.660176427
    0.523038397    8.165686187    8.860064216   11.665825406
    0.530217028    8.169443512    8.864190170   11.671558900
    0.537395659    8.173256392    8.868377303   11.677377187
    0.544574290    8.177125010    8.872625824   11.683280549
    0.551752922    8.181049554    8.876935948   11.689269274
    0.558931553    8.185030215    8.881307892   11.695343651
    0.566110184    8.189067186    8.885741877   11.701503978
    0.573288815    8.193160663    8.890238127   11.707750555
    0.580467446    8.197310847    8.894796872   11.714083688
    0.587646077    8.201517940    8.899418344   11.720503687
    0.594824708    8.205782149    8.904102778   11.727010868
    0.602003339    8.210103684    8.908850414   11.733605552
    0.609181970    8.214482756    8.913661495   11.740288062
    0.616360601    8.218919582    8.918536269   11.747058731
    0.623539232    8.223414381    8.923474987   11.753917894
    0.630717863    8.227967376    8.928477903   11.760865890
    0.637896494    8.232578792    8.933545277   11.767903066
    0.645075125    8.237248861    8.938677371   11.775029773
    0.652253756    8.241977813    8.943874453   11.782246367
    0.659432387    8.246765887    8.949136794   11.789553209
    0.666611018    8.251613321    8.954464668   11.796950667
    0.673789649    8.256520359    8.959858356   11.804439112
    0.680968280    8.261487248    8.965318140   11.812018923
    0.688146912    8.266514239    8.970844308   11.819690483
    0.695325543    8.271601587    8.976437152   11.827454180
    0.702504174    8.276749548    8.982096969   11.835310409
    0.709682805    8.281958386    8.987824060   11.843259570
    0.716861436    8.287228364    8.993618728   11.851302069
    0.724040067    8.292559754    8.999481285   11.859438318
    0.731218698    8.297952827    9.005412044   11.867668734
    0.738397329    8.303407861    9.011411323   11.875993741
    0.745575960    8.308925137    9.017479447   11.884413769
    0.752754591    8.314504939    9.023616742   11.892929251
    0.759933222    8.320147557    9.029823543   11.901540631
    0.767111853    8.325853283    9.036100185   11.910248356
    0.774290484    8.331622415    9.042447012   11.919052880
    0.781469115    8.337455253    9.048864371   11.927954663
    0.788647746    8.343352104    9.055352613   11.936954171
    0.795826377    8.349313275    9.061912097   11.946051879
    0.803005008    8.355339083    9.068543183   11.955248264
    0.810183639    8.361429843    9.075246240   11.964543815
    0.817362270    8.367585880    9.082021640   11.973939022
    0.824540902    8.373807520    9.088869760   11.983434386
    0.831719533    8.380095094    9.095790985   11.993030414
    0.838898164    8.386448938    9.102785701   12.002727618
    0.846076795    8.392869393    9.109854304   12.012526518
    0.853255426    8.399356804    9.116997192   12.022427642
    0.860434057    8.405911521    9.124214770   12.032431523
    0.867612688    8.412533898    9.131507450   12.042538704
    0.874791319    8.419224294    9.138875647   12.052749733
    0.881969950    8.425983073    9.146319783   12.063065167
    0.889148581    8.432810606    9.153840287   12.073485568
    0.896327212    8.439707265    9.161437593   12.084011509
    0.903505843    8.446673429    9.169112140   12.094643567
    0.910684474    8.453709483    9.176864374   12.105382330
    0.917863105    8.460815816    9.184694748   12.116228391
    0.925041736    8.467992823    9.192603721   12.127182353
    0.932220367    8.475240903    9.200591757   12.138244827
    0.939398998    8.482560460    9.208659327   12.149416430
    0.946577629    8.489951907    9.216806910   12.160697789
    0.953756260    8.497415658    9.225034989   12.172089538
    0.960934891    8.504952134    9.233344056   12.183592323
    0.968113523    8.512561764    9.241734609   12.195206793
    0.975292154    8.520244980    9.250207152   12.206933610
    0.982470785    8.528002220    9.258762198   12.218773443
    0.989649416    8.535833929    9.267400265   12.230726969
    0.996828047    8.543740556    9.276121878   12.242794877
    1.004006678    8.551722559    9.284927573   12.254977862
    1.011185309    8.559780399    9.293817888   12.267276629
    1.018363940    8.567914545    9.302793373   12.279691893
    1.025542571    8.576125472    9.311854582   12.292224378
    1.032721202    8.584413660    9.321002080   12.304874818
    1.039899833    8.592779596    9.330236438   12.317643956
    1.047078464    8.601223776    9.339558235   12.330532546
    1.054257095    8.609746698    9.348968058   12.343541351
    1.061435726    8.618348871    9.358466502   12.356671143
    1.068614357    8.627030807    9.368054172   12.369922708
    1.075792988    8.635793029    9.377731679   12.383296837
    1.082971619    8.644636062    9.387499644   12.396794336
    1.090150250    8.653560442    9.397358697   12.410416020
    1.097328881    8.662566711    9.407309474   12.424162715
    1.104507513    8.671655417    9.417352625   12.438035258
    1.111686144    8.680827117    9.427488804   12.452034497
    1.118864775    8.690082375    9.437718676   12.466161290
    1.126043406    8.699421761    9.448042918   12.480416509
    1.133222037    8.708845856    9.458462212   12.494801036
    1.140400668    8.718355245    9.468977253   12.509315765
    1.147579299    8.727950523    9.479588743   12.523961603
    1.154757930    8.737632293    9.490297398   12.538739466
    1.161936561    8.747401166    9.501103940   12.553650286
    1.169115192    8.757257760    9.512009104   12.568695006
    1.176293823    8.767202703    9.523013633   12.583874580
    1.183472454    8.777236630    9.534118284   12.599189978
    1.190651085    8.787360186    9.545323821   12.614642181
    1.197829716    8.797574025    9.556631022   12.630232183
    1.205008347    8.807878807    9.568040674   12.645960993
    1.212186978    8.818275204    9.579553578   12.661829631
    1.219365609    8.828763896    9.591170543   12.677839134
    1.226544240    8.839345573    9.602892394   12.693990551
    1.233722871    8.850020933    9.614719964   12.710284946
    1.240901503    8.860790684    9.626654100   12.726723397
    1.248080134    8.871655546    9.638695662   12.743306997
    1.255258765    8.882616245    9.650845519   12.760036853
    1.262437396    8.893673519    9.663104546   12.776914088
    1.269616027    8.904828115    9.675473612   12.793939833
    1.276794658    8.916080791    9.687953588   12.811115234
    1.283973289    8.927432318    9.700545472   12.828441478
    1.291151920    8.938883479    9.713250277   12.845919763
    1.298330551    8.950435063    9.726068916   12.863551285
    1.305509182    8.962087870    9.739002325   12.881337257
    1.312687813    8.973842713    9.752051475   12.899278914
    1.319866444    8.985700416    9.765217358   12.917377508
    1.327045075    8.997661814    9.778500984   12.935634310
    1.334223706    9.009727755    9.791903377   12.954050608
    1.341402337    9.021899099    9.805425579   12.972627709
    1.348580968    9.034176717    9.819068643   12.991366937
    1.355759599    9.046561493    9.832833644   13.010269636
    1.362938230    9.059054323    9.846721667   13.029337168
    1.370116861    9.071656118    9.860733819   13.048570916
    1.377295492    9.084367799    9.874871220   13.067972279
    1.384474124    9.097190302    9.889135009   13.087542680
    1.391652755    9.110124576    9.903526342   13.107283560
    1.398831386    9.123171584    9.918046394   13.127196380
    1.406010017    9.136332301    9.932696357   13.147282624
    1.413188648    9.149607718    9.947477442   13.167543795
    1.420367279    9.162998832    9.962390879   13.187981414
    1.427545910    9.176506659    9.977437918   13.208597027
    1.434724541    9.190132249    9.992619826   13.229392214
    1.441903172    9.203876662   10.007937895   13.250368575
    1.449081803    9.217740956   10.023393433   13.271527722
    1.456260434    9.231726207   10.038987770   13.292871293
    1.463439065    9.245833512   10.054722259   13.314400951
    1.470617696    9.260063983   10.070598272   13.336118385
    1.477796327    9.274418750   10.086617207   13.358025309
    1.484974958    9.288898961   10.102780481   13.380123462
    1.492153589    9.303505779   10.119089535   13.402414610
    1.499332220    9.318240387   10.135545835   13.424900544
    1.506510851    9.333103984   10.152150870   13.447583083
    1.513689482    9.348097788   10.168906154   13.470464073
    1.520868114    9.363223034   10.185813225   13.493545387
    1.528046745    9.378480979   10.202873648   13.516828927
    1.535225376    9.393872895   10.220089013   13.540316625
    1.542404007    9.409400079   10.237460937   13.564010440
    1.549582638    9.425063842   10.254991066   13.587912364
    1.556761269    9.440865520   10.272681070   13.612024416
    1.563939900    9.456806468   10.290532651   13.636348650
    1.571118531    9.472888063   10.308547540   13.660887150
    1.578297162    9.489111701   10.326727494   13.685642031
    1.585475793    9.505478802   10.345074305   13.710615443
    1.592654424    9.521990810   10.363589793   13.735809568
    1.599833055    9.538649189   10.382275811   13.761226626
    1.607011686    9.555455428   10.401134245   13.786868867
    1.614190317    9.572411039   10.420167011   13.812738579
    1.621368948    9.589517558   10.439376063   13.838838088
    1.628547579    9.606776548   10.458763388   13.865169755
    1.635726210    9.624189594   10.478331008   13.891735979
    1.642904841    9.641758310   10.498080981   13.918539199
    1.650083472    9.659484335   10.518015404   13.945581892
    1.657262104    9.677369333   10.538136410   13.972866576
    1.664440735    9.695414999   10.558446173   14.000395811
    1.671619366    9.713623053   10.578946905   14.028172197
    1.678797997    9.731995246   10.599640859   14.056198378
    1.685976628    9.750533357   10.620530331   14.084477043
    1.693155259    9.769239194   10.641617659   14.113010923
    1.700333890    9.788114598   10.662905224   14.141802797
    1.707512521    9.807161439   10.684395454   14.170855488
    1.714691152    9.826381619   10.706090821   14.200171870
    1.721869783    9.845777073   10.727993845   14.229754863
    1.729048414    9.865349769   10.750107094   14.259607435
    1.736227045    9.885101705   10.772433186   14.289732605
    1.743405676    9.905034918   10.794974790   14.320133446
    1.750584307    9.925151489   10.817734625   14.350813093
    1.757762938    9.945453528   10.840715468   14.381774730
    1.764941569    9.965943179   10.863920146   14.413021588
    1.772120200    9.986622624   10.887351544   14.444556959
    1.779298831   10.007494085   10.911012606   14.476384193
    1.786477462   10.028559826   10.934906332   14.508506701
    1.793656093   10.049822149   10.959035786   14.540927953
    1.800834725   10.071283399   10.983404093   14.573651482
    1.808013356   10.092945955   11.008014437   14.606680879
    1.815191987   10.114812228   11.032870064   14.640019787
    1.822370618   10.136884673   11.057974285   14.673671917
    1.829549249   10.159165869   11.083330521   14.707641115
    1.836727880   10.181658422   11.108942255   14.741931279
    1.843906511   10.204364923   11.134813010   14.776546324
    1.851085142   10.227288019   11.160946389   14.811490248
    1.858263773   10.250430421   11.187346080   14.846767131
    1.865442404   10.273794895   11.214015852   14.882381137
    1.872621035   10.297384262   11.240959556   14.918336508
    1.879799666   10.321201396   11.268181128   14.954637566
    1.886978297   10.345249228   11.295684592   14.991288717
    1.894156928   10.369530745   11.323474061   15.028294452
    1.901335559   10.394048991   11.351553737   15.065659348
    1.908514190   10.418807074   11.379927922   15.103388071
    1.915692821   10.443808158   11.408601012   15.141485381
    1.922871452   10.469055475   11.437577504   15.179956130
    1.930050083   10.494552319   11.466862001   15.218805266
    1.937228715   10.520302051   11.496459211   15.258037837
    1.944407346   10.546308101   11.526373953   15.297658994
    1.951585977   10.572573969   11.556611157   15.337673988
    1.958764608   10.599103226   11.587175866   15.378088180
    1.965943239   10.625899518   11.618073236   15.418907038
    1.973121870   10.652966567   11.649308573   15.460136149
    1.980300501   10.680308171   11.680887324   15.501781220
    1.987479132   10.707928206   11.712815002   15.543848067
    1.994657763   10.735830629   11.745097245   15.586342626
    2.001836394   10.764019500   11.777739977   15.629270971
    2.009015025   10.792498959   11.810749268   15.672639302
    2.016193656   10.821273216   11.844131214   15.716453949
    2.023372287   10.850346560   11.877892073   15.760721370
    2.030550918   10.879723420   11.912038287   15.805448185
    2.037729549   10.909408363   11.946576476   15.850641182
    2.044908180   10.939405990   11.981513437   15.896307264
    2.052086811   10.969720995   12.016856145   15.942453481
    2.059265442   11.000358194   12.052611760   15.989087053
    2.066444073   11.031322515   12.088787634   16.036215363
    2.073622705   11.062619009   12.125391330   16.083845971
    2.080801336   11.094252845   12.162430625   16.131986609
    2.087979967   11.126229308   12.199913492   16.180645188
    2.095158598   11.158553802   12.237848126   16.229829796
    2.102337229   11.191231860   12.276242943   16.279548700
    2.109515860   11.224269142   12.315106582   16.329810341
    2.116694491   11.257671473   12.354447977   16.380623439
    2.123873122   11.291444826   12.394276394   16.431997004
    2.131051753   11.325595292   12.434601285   16.483940147
    2.138230384   11.360129111   12.475432350   16.536462171
    2.145409015   11.395052686   12.516779597   16.589572640
    2.152587646   11.430372583   12.558653348   16.643281371
    2.159766277   11.466095536   12.601064246   16.697598431
    2.166944908   11.502228453   12.644023258   16.752534150
    2.174123539   11.538778423   12.687541696   16.808099121
    2.181302170   11.575752717   12.731631227   16.864304217
    2.188480801   11.613158801   12.776303892   16.921160597
    2.195659432   11.651004339   12.821572116   16.978679717
    2.202838063   11.689297202   12.867448732   17.036873340
    2.210016694   11.728045476   12.913946992   17.095753551
    2.217195326   11.767257469   12.961080591   17.155332765
    2.224373957   11.806941718   13.008863685   17.215623743
    2.231552588   11.847107000   13.057310909   17.276639602
    2.238731219   11.887762342   13.106437394   17.338393830
    2.245909850   11.928917020   13.156258776   17.400900291
    2.253088481   11.970580575   13.206791224   17.464173247
    2.260267112   12.012762840   13.258051608   17.528227411
    2.267445743   12.055473970   13.310057438   17.593077949
    2.274624374   12.098724387   13.362826725   17.658740441
    2.281803005   12.142524741   13.416378113   17.725230902
    2.288981636   12.186885873   13.470730931   17.792565803
    2.296160267   12.231819082   13.525905287   17.860762153
    2.303338898   12.277336709   13.581922274   17.929837740
    2.310517529   12.323451081   13.638803669   17.999810811
    2.317696160   12.370174416   13.696571928   18.070700013
    2.324874791   12.417519438   13.755250439   18.142524644
    2.332053422   12.465499570   13.814863748   18.215304693
    2.339232053   12.514128786   13.875437496   18.289060836
    2.346410684   12.563421290   13.936998133   18.363814426
    2.353589316   12.613391751   13.999573211   18.439587547
    2.360767947   12.664055388   14.063191519   18.516403055
    2.367946578   12.715427959   14.127883117   18.594284607
    2.375125209   12.767525778   14.193679393   18.673256700
    2.382303840   12.820365811   14.260613143   18.753344775
    2.389482471   12.873965655   14.328718647   18.834575203
    2.396661102   12.928343468   14.398031723   18.916975229
    2.403839733   12.983518076   14.468589748   19.000572984
    2.411018364   13.039508983   14.540431601   19.085397725
    2.418196995   13.096336359   14.613597745   19.171480517
    2.425375626   13.154021362   14.688131716   19.258853491
    2.432554257   13.212586346   14.764081115   19.347549673
    2.439732888   13.272054169   14.841493639   19.437603368
    2.446911519   13.332448475   14.920418532   19.529050569
    2.454090150   13.393793971   15.000908181   19.621928745
    2.461268781   13.456116449   15.083018056   19.716276874
    2.468447412   13.519442825   15.166806717   19.812135702
    2.475626043   13.583801196   15.252335962   19.909547843
    2.482804674   13.649220908   15.339671061   20.008557860
    2.489983306   13.715732631   15.428880999   20.109212397
    2.497161937   13.783368433   15.520038746   20.211560300
    2.504340568   13.852161852   15.613221522   20.315652771
    2.511519199   13.922148035   15.708511244   20.421543517
    2.518697830   13.993363971   15.805995244   20.529288919
    2.525876461   14.065848359   15.905766155   20.638948100
    2.533055092   14.139641805   16.007922253   20.750583489
    2.540233723   14.214787221   16.112568364   20.864261478
