# energy grid [eV]     ieps_x  ieps_y  ieps_z
#
    0.200000000    4.699696475    4.988698671    7.151754134
    0.207178631    4.698903242    4.987836878    7.150460902
    0.214357262    4.698082410    4.986945119    7.149122661
    0.221535893    4.697234019    4.986023436    7.147739474
    0.228714524    4.696358108    4.985071874    7.146311404
    0.235893155    4.695454719    4.984090480    7.144838516
    0.243071786    4.694523893    4.983079300    7.143320877
    0.250250417    4.693565673    4.982038385    7.141758556
    0.257429048    4.692580105    4.980967784    7.140151625
    0.264607679    4.691567233    4.979867548    7.138500155
    0.271786311    4.690527106    4.978737732    7.136804223
    0.278964942    4.689459772    4.977578390    7.135063905
    0.286143573    4.688365280    4.976389577    7.133279280
    0.293322204    4.687243680    4.975171351    7.131450429
    0.300500835    4.686095025    4.973923771    7.129577435
    0.307679466    4.684919368    4.972646896    7.127660382
    0.314858097    4.683716762    4.971340787    7.125699357
    0.322036728    4.682487265    4.970005507    7.123694449
    0.329215359    4.681230932    4.968641121    7.121645747
    0.336393990    4.679947821    4.967247693    7.119553345
    0.343572621    4.678637991    4.965825289    7.117417335
    0.350751252    4.677301503    4.964373978    7.115237814
    0.357929883    4.675938418    4.962893829    7.113014881
    0.365108514    4.674548797    4.961384912    7.110748633
    0.372287145    4.673132706    4.959847299    7.108439173
    0.379465776    4.671690208    4.958281063    7.106086605
    0.386644407    4.670221370    4.956686278    7.103691032
    0.393823038    4.668726258    4.955063018    7.101252562
    0.401001669    4.667204940    4.953411362    7.098771303
    0.408180301    4.665657486    4.951731387    7.096247366
    0.415358932    4.664083966    4.950023172    7.093680863
    0.422537563    4.662484452    4.948286797    7.091071907
    0.429716194    4.660859015    4.946522344    7.088420614
    0.436894825    4.659207729    4.944729895    7.085727102
    0.444073456    4.657530669    4.942909534    7.082991489
    0.451252087    4.655827911    4.941061347    7.080213895
    0.458430718    4.654099530    4.939185419    7.077394444
    0.465609349    4.652345606    4.937281838    7.074533258
    0.472787980    4.650566215    4.935350692    7.071630464
    0.479966611    4.648761439    4.933392071    7.068686188
    0.487145242    4.646931358    4.931406065    7.065700560
    0.494323873    4.645076053    4.929392767    7.062673710
    0.501502504    4.643195607    4.927352269    7.059605769
    0.508681135    4.641290104    4.925284665    7.056496872
    0.515859766    4.639359629    4.923190050    7.053347153
    0.523038397    4.637404266    4.921068520    7.050156750
    0.530217028    4.635424104    4.918920173    7.046925799
    0.537395659    4.633419228    4.916745106    7.043654441
    0.544574290    4.631389728    4.914543418    7.040342817
    0.551752922    4.629335693    4.912315211    7.036991070
    0.558931553    4.627257213    4.910060584    7.033599343
    0.566110184    4.625154379    4.907779641    7.030167783
    0.573288815    4.623027283    4.905472484    7.026696535
    0.580467446    4.620876018    4.903139218    7.023185749
    0.587646077    4.618700679    4.900779947    7.019635575
    0.594824708    4.616501359    4.898394777    7.016046162
    0.602003339    4.614278154    4.895983816    7.012417665
    0.609181970    4.612031160    4.893547172    7.008750237
    0.616360601    4.609760475    4.891084952    7.005044033
    0.623539232    4.607466196    4.888597267    7.001299209
    0.630717863    4.605148423    4.886084228    6.997515924
    0.637896494    4.602807254    4.883545945    6.993694337
    0.645075125    4.600442791    4.880982530    6.989834607
    0.652253756    4.598055134    4.878394098    6.985936897
    0.659432387    4.595644385    4.875780762    6.982001370
    0.666611018    4.593210647    4.873142636    6.978028189
    0.673789649    4.590754023    4.870479836    6.974017521
    0.680968280    4.588274618    4.867792479    6.969969530
    0.688146912    4.585772535    4.865080682    6.965884386
    0.695325543    4.583247882    4.862344561    6.961762257
    0.702504174    4.580700764    4.859584237    6.957603313
    0.709682805    4.578131288    4.856799828    6.953407725
    0.716861436    4.575539561    4.853991455    6.949175664
    0.724040067    4.572925693    4.851159238    6.944907306
    0.731218698    4.570289791    4.848303298    6.940602823
    0.738397329    4.567631966    4.845423759    6.936262391
    0.745575960    4.564952328    4.842520742    6.931886187
    0.752754591    4.562250987    4.839594372    6.927474388
    0.759933222    4.559528055    4.836644772    6.923027172
    0.767111853    4.556783645    4.833672068    6.918544719
    0.774290484    4.554017868    4.830676385    6.914027209
    0.781469115    4.551230839    4.827657848    6.909474824
    0.788647746    4.548422670    4.824616585    6.904887745
    0.795826377    4.545593477    4.821552723    6.900266157
    0.803005008    4.542743374    4.818466389    6.895610242
    0.810183639    4.539872477    4.815357712    6.890920186
    0.817362270    4.536980901    4.812226821    6.886196175
    0.824540902    4.534068764    4.809073846    6.881438395
    0.831719533    4.531136181    4.805898916    6.876647035
    0.838898164    4.528183272    4.802702161    6.871822281
    0.846076795    4.525210152    4.799483714    6.866964323
    0.853255426    4.522216942    4.796243705    6.862073351
    0.860434057    4.519203760    4.792982265    6.857149556
    0.867612688    4.516170725    4.789699529    6.852193128
    0.874791319    4.513117957    4.786395628    6.847204260
    0.881969950    4.510045577    4.783070696    6.842183145
    0.889148581    4.506953704    4.779724866    6.837129976
    0.896327212    4.503842460    4.776358273    6.832044947
    0.903505843    4.500711966    4.772971050    6.826928252
    0.910684474    4.497562345    4.769563334    6.821780088
    0.917863105    4.494393718    4.766135259    6.816600650
    0.925041736    4.491206207    4.762686960    6.811390135
    0.932220367    4.487999936    4.759218575    6.806148740
    0.939398998    4.484775028    4.755730238    6.800876663
    0.946577629    4.481531606    4.752222087    6.795574101
    0.953756260    4.478269794    4.748694259    6.790241254
    0.960934891    4.474989717    4.745146890    6.784878321
    0.968113523    4.471691499    4.741580119    6.779485503
    0.975292154    4.468375264    4.737994082    6.774062998
    0.982470785    4.465041137    4.734388919    6.768611008
    0.989649416    4.461689244    4.730764767    6.763129735
    0.996828047    4.458319711    4.727121765    6.757619379
    1.004006678    4.454932663    4.723460052    6.752080143
    1.011185309    4.451528225    4.719779766    6.746512230
    1.018363940    4.448106525    4.716081046    6.740915842
    1.025542571    4.444667689    4.712364033    6.735291182
    1.032721202    4.441211842    4.708628865    6.729638454
    1.039899833    4.437739113    4.704875683    6.723957861
    1.047078464    4.434249628    4.701104626    6.718249609
    1.054257095    4.430743514    4.697315833    6.712513901
    1.061435726    4.427220898    4.693509446    6.706750942
    1.068614357    4.423681909    4.689685604    6.700960937
    1.075792988    4.420126673    4.685844448    6.695144091
    1.082971619    4.416555318    4.681986118    6.689300611
    1.090150250    4.412967973    4.678110754    6.683430701
    1.097328881    4.409364764    4.674218498    6.677534568
    1.104507513    4.405745821    4.670309490    6.671612418
    1.111686144    4.402111271    4.666383870    6.665664456
    1.118864775    4.398461242    4.662441780    6.659690890
    1.126043406    4.394795863    4.658483359    6.653691926
    1.133222037    4.391115262    4.654508750    6.647667771
    1.140400668    4.387419568    4.650518092    6.641618632
    1.147579299    4.383708909    4.646511527    6.635544714
    1.154757930    4.379983413    4.642489196    6.629446227
    1.161936561    4.376243209    4.638451238    6.623323375
    1.169115192    4.372488425    4.634397796    6.617176368
    1.176293823    4.368719190    4.630329009    6.611005411
    1.183472454    4.364935633    4.626245018    6.604810712
    1.190651085    4.361137882    4.622145964    6.598592478
    1.197829716    4.357326065    4.618031988    6.592350917
    1.205008347    4.353500311    4.613903229    6.586086235
    1.212186978    4.349660748    4.609759829    6.579798639
    1.219365609    4.345807505    4.605601928    6.573488337
    1.226544240    4.341940709    4.601429664    6.567155536
    1.233722871    4.338060490    4.597243180    6.560800442
    1.240901503    4.334166975    4.593042614    6.554423262
    1.248080134    4.330260292    4.588828107    6.548024203
    1.255258765    4.326340569    4.584599797    6.541603472
    1.262437396    4.322407934    4.580357825    6.535161275
    1.269616027    4.318462516    4.576102330    6.528697819
    1.276794658    4.314504440    4.571833450    6.522213309
    1.283973289    4.310533836    4.567551326    6.515707951
    1.291151920    4.306550830    4.563256095    6.509181952
    1.298330551    4.302555550    4.558947896    6.502635517
    1.305509182    4.298548122    4.554626867    6.496068851
    1.312687813    4.294528674    4.550293147    6.489482160
    1.319866444    4.290497333    4.545946874    6.482875649
    1.327045075    4.286454224    4.541588185    6.476249521
    1.334223706    4.282399475    4.537217218    6.469603983
    1.341402337    4.278333211    4.532834109    6.462939237
    1.348580968    4.274255559    4.528438996    6.456255488
    1.355759599    4.270166645    4.524032016    6.449552939
    1.362938230    4.266066594    4.519613304    6.442831793
    1.370116861    4.261955531    4.515182998    6.436092255
    1.377295492    4.257833582    4.510741232    6.429334525
    1.384474124    4.253700872    4.506288143    6.422558807
    1.391652755    4.249557525    4.501823865    6.415765302
    1.398831386    4.245403665    4.497348534    6.408954213
    1.406010017    4.241239418    4.492862283    6.402125740
    1.413188648    4.237064907    4.488365249    6.395280083
    1.420367279    4.232880256    4.483857563    6.388417445
    1.427545910    4.228685587    4.479339361    6.381538023
    1.434724541    4.224481025    4.474810774    6.374642019
    1.441903172    4.220266692    4.470271937    6.367729631
    1.449081803    4.216042711    4.465722982    6.360801059
    1.456260434    4.211809204    4.461164041    6.353856499
    1.463439065    4.207566293    4.456595246    6.346896151
    1.470617696    4.203314099    4.452016728    6.339920212
    1.477796327    4.199052745    4.447428618    6.332928878
    1.484974958    4.194782350    4.442831047    6.325922345
    1.492153589    4.190503036    4.438224146    6.318900811
    1.499332220    4.186214923    4.433608044    6.311864470
    1.506510851    4.181918132    4.428982871    6.304813517
    1.513689482    4.177612781    4.424348756    6.297748147
    1.520868114    4.173298991    4.419705828    6.290668553
    1.528046745    4.168976879    4.415054214    6.283574929
    1.535225376    4.164646566    4.410394043    6.276467467
    1.542404007    4.160308168    4.405725442    6.269346360
    1.549582638    4.155961805    4.401048538    6.262211800
    1.556761269    4.151607594    4.396363458    6.255063977
    1.563939900    4.147245651    4.391670327    6.247903082
    1.571118531    4.142876093    4.386969272    6.240729304
    1.578297162    4.138499038    4.382260417    6.233542834
    1.585475793    4.134114600    4.377543887    6.226343860
    1.592654424    4.129722896    4.372819807    6.219132569
    1.599833055    4.125324041    4.368088299    6.211909150
    1.607011686    4.120918149    4.363349488    6.204673790
    1.614190317    4.116505335    4.358603497    6.197426673
    1.621368948    4.112085712    4.353850447    6.190167987
    1.628547579    4.107659396    4.349090460    6.182897916
    1.635726210    4.103226497    4.344323658    6.175616644
    1.642904841    4.098787130    4.339550162    6.168324355
    1.650083472    4.094341407    4.334770092    6.161021231
    1.657262104    4.089889439    4.329983567    6.153707456
    1.664440735    4.085431337    4.325190708    6.146383211
    1.671619366    4.080967213    4.320391633    6.139048675
    1.678797997    4.076497178    4.315586460    6.131704031
    1.685976628    4.072021340    4.310775307    6.124349457
    1.693155259    4.067539811    4.305958292    6.116985132
    1.700333890    4.063052698    4.301135531    6.109611234
    1.707512521    4.058560111    4.296307140    6.102227941
    1.714691152    4.054062158    4.291473236    6.094835428
    1.721869783    4.049558947    4.286633933    6.087433873
    1.729048414    4.045050584    4.281789346    6.080023450
    1.736227045    4.040537178    4.276939589    6.072604334
    1.743405676    4.036018833    4.272084775    6.065176699
    1.750584307    4.031495657    4.267225018    6.057740717
    1.757762938    4.026967754    4.262360430    6.050296560
    1.764941569    4.022435229    4.257491123    6.042844401
    1.772120200    4.017898187    4.252617209    6.035384409
    1.779298831    4.013356732    4.247738798    6.027916755
    1.786477462    4.008810966    4.242856000    6.020441608
    1.793656093    4.004260994    4.237968925    6.012959136
    1.800834725    3.999706917    4.233077683    6.005469507
    1.808013356    3.995148837    4.228182381    5.997972888
    1.815191987    3.990586857    4.223283128    5.990469445
    1.822370618    3.986021076    4.218380031    5.982959342
    1.829549249    3.981451595    4.213473198    5.975442745
    1.836727880    3.976878515    4.208562734    5.967919817
    1.843906511    3.972301934    4.203648745    5.960390721
    1.851085142    3.967721951    4.198731336    5.952855619
    1.858263773    3.963138666    4.193810613    5.945314673
    1.865442404    3.958552175    4.188886678    5.937768042
    1.872621035    3.953962576    4.183959635    5.930215886
    1.879799666    3.949369967    4.179029588    5.922658365
    1.886978297    3.944774443    4.174096638    5.915095636
    1.894156928    3.940176099    4.169160887    5.907527856
    1.901335559    3.935575033    4.164222437    5.899955182
    1.908514190    3.930971337    4.159281387    5.892377768
    1.915692821    3.926365107    4.154337837    5.884795771
    1.922871452    3.921756436    4.149391888    5.877209343
    1.930050083    3.917145418    4.144443637    5.869618638
    1.937228715    3.912532144    4.139493184    5.862023808
    1.944407346    3.907916708    4.134540624    5.854425005
    1.951585977    3.903299200    4.129586057    5.846822378
    1.958764608    3.898679712    4.124629577    5.839216077
    1.965943239    3.894058335    4.119671281    5.831606252
    1.973121870    3.889435157    4.114711263    5.823993049
    1.980300501    3.884810270    4.109749619    5.816376617
    1.987479132    3.880183761    4.104786443    5.808757102
    1.994657763    3.875555719    4.099821828    5.801134649
    2.001836394    3.870926232    4.094855866    5.793509402
    2.009015025    3.866295388    4.089888651    5.785881506
    2.016193656    3.861663272    4.084920274    5.778251103
    2.023372287    3.857029972    4.079950825    5.770618335
    2.030550918    3.852395573    4.074980395    5.762983343
    2.037729549    3.847760160    4.070009075    5.755346268
    2.044908180    3.843123817    4.065036953    5.747707249
    2.052086811    3.838486630    4.060064119    5.740066425
    2.059265442    3.833848681    4.055090660    5.732423934
    2.066444073    3.829210053    4.050116663    5.724779911
    2.073622705    3.824570829    4.045142217    5.717134494
    2.080801336    3.819931091    4.040167406    5.709487818
    2.087979967    3.815290920    4.035192317    5.701840016
    2.095158598    3.810650397    4.030217035    5.694191222
    2.102337229    3.806009603    4.025241645    5.686541569
    2.109515860    3.801368616    4.020266230    5.678891189
    2.116694491    3.796727517    4.015290874    5.671240211
    2.123873122    3.792086384    4.010315660    5.663588767
    2.131051753    3.787445295    4.005340669    5.655936986
    2.138230384    3.782804328    4.000365984    5.648284995
    2.145409015    3.778163559    3.995391685    5.640632922
    2.152587646    3.773523066    3.990417853    5.632980893
    2.159766277    3.768882924    3.985444568    5.625329035
    2.166944908    3.764243209    3.980471909    5.617677472
    2.174123539    3.759603996    3.975499955    5.610026328
    2.181302170    3.754965358    3.970528783    5.602375726
    2.188480801    3.750327371    3.965558472    5.594725788
    2.195659432    3.745690107    3.960589098    5.587076636
    2.202838063    3.741053639    3.955620738    5.579428391
    2.210016694    3.736418039    3.950653467    5.571781171
    2.217195326    3.731783379    3.945687360    5.564135096
    2.224373957    3.727149730    3.940722493    5.556490284
    2.231552588    3.722517162    3.935758939    5.548846852
    2.238731219    3.717885747    3.930796772    5.541204916
    2.245909850    3.713255553    3.925836064    5.533564591
    2.253088481    3.708626649    3.920876888    5.525925993
    2.260267112    3.703999105    3.915919316    5.518289234
    2.267445743    3.699372987    3.910963419    5.510654428
    2.274624374    3.694748364    3.906009267    5.503021687
    2.281803005    3.690125302    3.901056931    5.495391121
    2.288981636    3.685503868    3.896106480    5.487762842
    2.296160267    3.680884128    3.891157983    5.480136958
    2.303338898    3.676266147    3.886211508    5.472513579
    2.310517529    3.671649989    3.881267123    5.464892812
    2.317696160    3.667035720    3.876324896    5.457274764
    2.324874791    3.662423403    3.871384893    5.449659541
    2.332053422    3.657813102    3.866447180    5.442047249
    2.339232053    3.653204878    3.861511822    5.434437992
    2.346410684    3.648598795    3.856578886    5.426831874
    2.353589316    3.643994914    3.851648434    5.419228997
    2.360767947    3.639393296    3.846720532    5.411629464
    2.367946578    3.634794002    3.841795242    5.404033375
    2.375125209    3.630197093    3.836872628    5.396440832
    2.382303840    3.625602628    3.831952751    5.388851934
    2.389482471    3.621010666    3.827035674    5.381266778
    2.396661102    3.616421266    3.822121457    5.373685464
    2.403839733    3.611834486    3.817210162    5.366108089
    2.411018364    3.607250384    3.812301848    5.358534748
    2.418196995    3.602669016    3.807396574    5.350965537
    2.425375626    3.598090441    3.802494401    5.343400551
    2.432554257    3.593514713    3.797595387    5.335839884
    2.439732888    3.588941889    3.792699589    5.328283628
    2.446911519    3.584372024    3.787807065    5.320731876
    2.454090150    3.579805173    3.782917872    5.313184720
    2.461268781    3.575241389    3.778032066    5.305642250
    2.468447412    3.570680726    3.773149704    5.298104556
    2.475626043    3.566123239    3.768270841    5.290571728
    2.482804674    3.561568978    3.763395531    5.283043852
    2.489983306    3.557017998    3.758523829    5.275521018
    2.497161937    3.552470349    3.753655788    5.268003311
    2.504340568    3.547926083    3.748791463    5.260490818
    2.511519199    3.543385251    3.743930906    5.252983624
    2.518697830    3.538847903    3.739074169    5.245481813
    2.525876461    3.534314089    3.734221304    5.237985470
    2.533055092    3.529783858    3.729372362    5.230494676
    2.540233723    3.525257260    3.724527395    5.223009514
