# energy grid [eV]     epsr_x  epsr_y  epsr_z
#
    0.200000000    7.150594593   10.997773854   12.354722831
    0.207178631    7.151731173   10.999931375   12.357180211
    0.214357262    7.152908301   11.002166036   12.359725429
    0.221535893    7.154126028   11.004477947   12.362358610
    0.228714524    7.155384402   11.006867224   12.365079883
    0.235893155    7.156683479   11.009333987   12.367889381
    0.243071786    7.158023312   11.011878360   12.370787243
    0.250250417    7.159403958   11.014500469   12.373773609
    0.257429048    7.160825475   11.017200446   12.376848629
    0.264607679    7.162287922   11.019978426   12.380012452
    0.271786311    7.163791363   11.022834550   12.383265235
    0.278964942    7.165335859   11.025768960   12.386607139
    0.286143573    7.166921476   11.028781804   12.390038327
    0.293322204    7.168548282   11.031873235   12.393558970
    0.300500835    7.170216345   11.035043407   12.397169243
    0.307679466    7.171925736   11.038292482   12.400869323
    0.314858097    7.173676527   11.041620623   12.404659394
    0.322036728    7.175468793   11.045027998   12.408539645
    0.329215359    7.177302610   11.048514782   12.412510268
    0.336393990    7.179178056   11.052081149   12.416571461
    0.343572621    7.181095211   11.055727283   12.420723426
    0.350751252    7.183054157   11.059453367   12.424966370
    0.357929883    7.185054976   11.063259592   12.429300506
    0.365108514    7.187097756   11.067146152   12.433726049
    0.372287145    7.189182582   11.071113246   12.438243223
    0.379465776    7.191309545   11.075161076   12.442852252
    0.386644407    7.193478736   11.079289850   12.447553369
    0.393823038    7.195690247   11.083499779   12.452346809
    0.401001669    7.197944174   11.087791081   12.457232816
    0.408180301    7.200240613   11.092163975   12.462211634
    0.415358932    7.202579665   11.096618687   12.467283515
    0.422537563    7.204961429   11.101155447   12.472448716
    0.429716194    7.207386009   11.105774489   12.477707498
    0.436894825    7.209853509   11.110476054   12.483060129
    0.444073456    7.212364037   11.115260384   12.488506880
    0.451252087    7.214917701   11.120127728   12.494048029
    0.458430718    7.217514613   11.125078339   12.499683857
    0.465609349    7.220154885   11.130112476   12.505414654
    0.472787980    7.222838632   11.135230402   12.511240713
    0.479966611    7.225565972   11.140432385   12.517162331
    0.487145242    7.228337023   11.145718696   12.523179813
    0.494323873    7.231151908   11.151089614   12.529293468
    0.501502504    7.234010749   11.156545422   12.535503612
    0.508681135    7.236913672   11.162086407   12.541810565
    0.515859766    7.239860805   11.167712862   12.548214653
    0.523038397    7.242852278   11.173425084   12.554716208
    0.530217028    7.245888222   11.179223377   12.561315568
    0.537395659    7.248968772   11.185108049   12.568013076
    0.544574290    7.252094065   11.191079413   12.574809081
    0.551752922    7.255264238   11.197137788   12.581703938
    0.558931553    7.258479433   11.203283498   12.588698008
    0.566110184    7.261739793   11.209516873   12.595791658
    0.573288815    7.265045463   11.215838246   12.602985260
    0.580467446    7.268396592   11.222247960   12.610279194
    0.587646077    7.271793328   11.228746358   12.617673845
    0.594824708    7.275235825   11.235333794   12.625169603
    0.602003339    7.278724237   11.242010624   12.632766866
    0.609181970    7.282258721   11.248777211   12.640466038
    0.616360601    7.285839437   11.255633923   12.648267529
    0.623539232    7.289466546   11.262581135   12.656171755
    0.630717863    7.293140213   11.269619226   12.664179139
    0.637896494    7.296860605   11.276748584   12.672290110
    0.645075125    7.300627890   11.283969601   12.680505106
    0.652253756    7.304442240   11.291282673   12.688824567
    0.659432387    7.308303830   11.298688207   12.697248944
    0.666611018    7.312212836   11.306186611   12.705778692
    0.673789649    7.316169437   11.313778303   12.714414276
    0.680968280    7.320173816   11.321463706   12.723156165
    0.688146912    7.324226157   11.329243250   12.732004835
    0.695325543    7.328326646   11.337117369   12.740960771
    0.702504174    7.332475475   11.345086506   12.750024465
    0.709682805    7.336672834   11.353151111   12.759196414
    0.716861436    7.340918919   11.361311638   12.768477125
    0.724040067    7.345213929   11.369568550   12.777867110
    0.731218698    7.349558062   11.377922316   12.787366890
    0.738397329    7.353951524   11.386373412   12.796976994
    0.745575960    7.358394520   11.394922321   12.806697956
    0.752754591    7.362887259   11.403569532   12.816530321
    0.759933222    7.367429952   11.412315543   12.826474640
    0.767111853    7.372022816   11.421160858   12.836531473
    0.774290484    7.376666066   11.430105988   12.846701385
    0.781469115    7.381359925   11.439151452   12.856984952
    0.788647746    7.386104615   11.448297777   12.867382759
    0.795826377    7.390900363   11.457545496   12.877895395
    0.803005008    7.395747399   11.466895151   12.888523462
    0.810183639    7.400645955   11.476347291   12.899267568
    0.817362270    7.405596267   11.485902474   12.910128330
    0.824540902    7.410598575   11.495561263   12.921106373
    0.831719533    7.415653119   11.505324233   12.932202331
    0.838898164    7.420760146   11.515191964   12.943416849
    0.846076795    7.425919904   11.525165045   12.954750578
    0.853255426    7.431132644   11.535244074   12.966204179
    0.860434057    7.436398623   11.545429658   12.977778323
    0.867612688    7.441718097   11.555722410   12.989473690
    0.874791319    7.447091330   11.566122955   13.001290968
    0.881969950    7.452518586   11.576631923   13.013230858
    0.889148581    7.458000134   11.587249956   13.025294066
    0.896327212    7.463536245   11.597977704   13.037481311
    0.903505843    7.469127197   11.608815825   13.049793321
    0.910684474    7.474773267   11.619764988   13.062230835
    0.917863105    7.480474740   11.630825870   13.074794599
    0.925041736    7.486231900   11.641999159   13.087485374
    0.932220367    7.492045039   11.653285550   13.100303927
    0.939398998    7.497914451   11.664685751   13.113251039
    0.946577629    7.503840433   11.676200476   13.126327500
    0.953756260    7.509823286   11.687830454   13.139534110
    0.960934891    7.515863317   11.699576418   13.152871681
    0.968113523    7.521960834   11.711439118   13.166341038
    0.975292154    7.528116151   11.723419308   13.179943013
    0.982470785    7.534329585   11.735517758   13.193678454
    0.989649416    7.540601457   11.747735244   13.207548217
    0.996828047    7.546932093   11.760072557   13.221553172
    1.004006678    7.553321822   11.772530497   13.235694200
    1.011185309    7.559770979   11.785109874   13.249972195
    1.018363940    7.566279900   11.797811512   13.264388061
    1.025542571    7.572848930   11.810636245   13.278942716
    1.032721202    7.579478414   11.823584918   13.293637092
    1.039899833    7.586168703   11.836658390   13.308472131
    1.047078464    7.592920153   11.849857529   13.323448789
    1.054257095    7.599733125   11.863183219   13.338568037
    1.061435726    7.606607983   11.876636353   13.353830856
    1.068614357    7.613545096   11.890217838   13.369238243
    1.075792988    7.620544839   11.903928595   13.384791208
    1.082971619    7.627607591   11.917769554   13.400490774
    1.090150250    7.634733734   11.931741663   13.416337981
    1.097328881    7.641923659   11.945845881   13.432333879
    1.104507513    7.649177757   11.960083179   13.448479536
    1.111686144    7.656496429   11.974454545   13.464776035
    1.118864775    7.663880078   11.988960978   13.481224470
    1.126043406    7.671329111   12.003603494   13.497825955
    1.133222037    7.678843945   12.018383121   13.514581616
    1.140400668    7.686424997   12.033300903   13.531492596
    1.147579299    7.694072693   12.048357899   13.548560055
    1.154757930    7.701787462   12.063555182   13.565785168
    1.161936561    7.709569741   12.078893841   13.583169125
    1.169115192    7.717419971   12.094374981   13.600713136
    1.176293823    7.725338598   12.109999722   13.618418425
    1.183472454    7.733326076   12.125769201   13.636286235
    1.190651085    7.741382863   12.141684571   13.654317825
    1.197829716    7.749509423   12.157747001   13.672514473
    1.205008347    7.757706226   12.173957679   13.690877474
    1.212186978    7.765973750   12.190317808   13.709408143
    1.219365609    7.774312477   12.206828609   13.728107812
    1.226544240    7.782722896   12.223491320   13.746977832
    1.233722871    7.791205502   12.240307193   13.766019573
    1.240901503    7.799760796   12.257277493   13.785234426
    1.248080134    7.808389288   12.274403517   13.804623800
    1.255258765    7.817091491   12.291686607   13.824189128
    1.262437396    7.825867928   12.309128095   13.843931859
    1.269616027    7.834719126   12.326729323   13.863853464
    1.276794658    7.843645622   12.344491659   13.883955437
    1.283973289    7.852647957   12.362416494   13.904239292
    1.291151920    7.861726681   12.380505243   13.924706565
    1.298330551    7.870882350   12.398759338   13.945358814
    1.305509182    7.880115529   12.417180237   13.966197621
    1.312687813    7.889426789   12.435769418   13.987224590
    1.319866444    7.898816709   12.454528380   14.008441350
    1.327045075    7.908285875   12.473458646   14.029849551
    1.334223706    7.917834883   12.492561762   14.051450870
    1.341402337    7.927464335   12.511839298   14.073247007
    1.348580968    7.937174840   12.531292846   14.095239689
    1.355759599    7.946967019   12.550924024   14.117430667
    1.362938230    7.956841497   12.570734474   14.139821718
    1.370116861    7.966798911   12.590725865   14.162414647
    1.377295492    7.976839904   12.610899888   14.185211284
    1.384474124    7.986965128   12.631258264   14.208213489
    1.391652755    7.997175246   12.651802739   14.231423147
    1.398831386    8.007470928   12.672535086   14.254842175
    1.406010017    8.017852853   12.693457107   14.278472515
    1.413188648    8.028321711   12.714570630   14.302316143
    1.420367279    8.038878200   12.735877515   14.326375062
    1.427545910    8.049523027   12.757379649   14.350651306
    1.434724541    8.060256908   12.779078947   14.375146935
    1.441903172    8.071080565   12.800977353   14.399864031
    1.449081803    8.081994722   12.823076836   14.424804686
    1.456260434    8.093000135   12.845379412   14.449971087
    1.463439065    8.104097594   12.867887150   14.475365515
    1.470617696    8.115287864   12.890602124   14.500990193
    1.477796327    8.126571712   12.913526434   14.526847352
    1.484974958    8.137949925   12.936662220   14.552939282
    1.492153589    8.149423303   12.960011661   14.579268320
    1.499332220    8.160992660   12.983576972   14.605836838
    1.506510851    8.172658819   13.007360405   14.632647250
    1.513689482    8.184422616   13.031364247   14.659702006
    1.520868114    8.196284900   13.055590827   14.687003597
    1.528046745    8.208246531   13.080042509   14.714554553
    1.535225376    8.220308381   13.104721698   14.742357444
    1.542404007    8.232471335   13.129630841   14.770414884
    1.549582638    8.244736290   13.154772423   14.798729526
    1.556761269    8.257104158   13.180148974   14.827304071
    1.563939900    8.269575862   13.205763065   14.856141259
    1.571118531    8.282152341   13.231617314   14.885243880
    1.578297162    8.294834543   13.257714381   14.914614766
    1.585475793    8.307623436   13.284056972   14.944256799
    1.592654424    8.320519998   13.310647843   14.974172908
    1.599833055    8.333525224   13.337489794   15.004366071
    1.607011686    8.346640120   13.364585678   15.034839315
    1.614190317    8.359865713   13.391938395   15.065595721
    1.621368948    8.373203039   13.419550894   15.096638418
    1.628547579    8.386653154   13.447426172   15.127970589
    1.635726210    8.400217127   13.475567263   15.159595462
    1.642904841    8.413896047   13.503977283   15.191516334
    1.650083472    8.427691015   13.532659461   15.223736582
    1.657262104    8.441603153   13.561617029   15.256259617
    1.664440735    8.455633596   13.590853247   15.289088899
    1.671619366    8.469783500   13.620371451   15.322227956
    1.678797997    8.484054038   13.650175046   15.355680378
    1.685976628    8.498446399   13.680267501   15.389449822
    1.693155259    8.512961793   13.710652351   15.423540010
    1.700333890    8.527601449   13.741333195   15.457954730
    1.707512521    8.542366614   13.772313702   15.492697836
    1.714691152    8.557258555   13.803597607   15.527773254
    1.721869783    8.572278559   13.835188719   15.563184980
    1.729048414    8.587427935   13.867090912   15.598937079
    1.736227045    8.602708010   13.899308138   15.635033689
    1.743405676    8.618120136   13.931844436   15.671479041
    1.750584307    8.633665684   13.964703926   15.708277444
    1.757762938    8.649346049   13.997890788   15.745433270
    1.764941569    8.665162644   14.031409277   15.782950964
    1.772120200    8.681116907   14.065263701   15.820835039
    1.779298831    8.697210296   14.099458467   15.859090100
    1.786477462    8.713444313   14.133998222   15.897720945
    1.793656093    8.729820478   14.168887653   15.936732428
    1.800834725    8.746340324   14.204131421   15.976129413
    1.808013356    8.763005410   14.239734304   16.015916873
    1.815191987    8.779817326   14.275701200   16.056099893
    1.822370618    8.796777689   14.312037117   16.096683665
    1.829549249    8.813888145   14.348747168   16.137673483
    1.836727880    8.831150367   14.385836571   16.179074745
    1.843906511    8.848566056   14.423310654   16.220892959
    1.851085142    8.866136944   14.461174859   16.263133739
    1.858263773    8.883864794   14.499434740   16.305802815
    1.865442404    8.901751397   14.538095970   16.348906033
    1.872621035    8.919798576   14.577164345   16.392449356
    1.879799666    8.938008185   14.616645782   16.436438869
    1.886978297    8.956382116   14.656546334   16.480880786
    1.894156928    8.974922301   14.696872187   16.525781451
    1.901335559    8.993630696   14.737629658   16.571147338
    1.908514190    9.012509291   14.778825205   16.616985054
    1.915692821    9.031560111   14.820465428   16.663301341
    1.922871452    9.050785206   14.862557077   16.710103074
    1.930050083    9.070186667   14.905107053   16.757397276
    1.937228715    9.089766680   14.948122425   16.805191187
    1.944407346    9.109527462   14.991610420   16.853492195
    1.951585977    9.129471218   15.035578426   16.902307786
    1.958764608    9.149600204   15.080034007   16.951645620
    1.965943239    9.169916727   15.124984902   17.001513536
    1.973121870    9.190423143   15.170439036   17.051919555
    1.980300501    9.211121852   15.216404521   17.102871878
    1.987479132    9.232015303   15.262889667   17.154378892
    1.994657763    9.253105993   15.309902982   17.206449175
    2.001836394    9.274396467   15.357453182   17.259091503
    2.009015025    9.295889320   15.405549199   17.312314853
    2.016193656    9.317587201   15.454200184   17.366128413
    2.023372287    9.339492811   15.503415518   17.420541586
    2.030550918    9.361608906   15.553204817   17.475563998
    2.037729549    9.383938298   15.603577942   17.531205503
    2.044908180    9.406483858   15.654545004   17.587476194
    2.052086811    9.429248514   15.706116377   17.644386407
    2.059265442    9.452235258   15.758302699   17.701946731
    2.066444073    9.475447143   15.811114875   17.760168012
    2.073622705    9.498887285   15.864564070   17.819061369
    2.080801336    9.522558868   15.918661771   17.878638196
    2.087979967    9.546465153   15.973419922   17.938910179
    2.095158598    9.570609469   16.028850701   17.999889298
    2.102337229    9.594995210   16.084966525   18.061587839
    2.109515860    9.619625846   16.141780182   18.124018405
    2.116694491    9.644504928   16.199304831   18.187193927
    2.123873122    9.669636084   16.257553990   18.251127677
    2.131051753    9.695023023   16.316541564   18.315833281
    2.138230384    9.720669549   16.376281926   18.381324725
    2.145409015    9.746579550   16.436789862   18.447616376
    2.152587646    9.772757001   16.498080516   18.514722991
    2.159766277    9.799205967   16.560169482   18.582659732
    2.166944908    9.825930615   16.623072834   18.651442183
    2.174123539    9.852935209   16.686807133   18.721086363
    2.181302170    9.880224119   16.751389442   18.791608744
    2.188480801    9.907801818   16.816837344   18.863026259
    2.195659432    9.935672891   16.883168955   18.935356303
    2.202838063    9.963842028   16.950402913   19.008616688
    2.210016694    9.992314035   17.018558427   19.082825701
    2.217195326   10.021093872   17.087655526   19.158002630
    2.224373957   10.050186631   17.157714922   19.234167416
    2.231552588   10.079597504   17.228757762   19.311340086
    2.238731219   10.109331815   17.300805895   19.389541285
    2.245909850   10.139395039   17.373881945   19.468792401
    2.253088481   10.169792798   17.448009316   19.549115521
    2.260267112   10.200530855   17.523212202   19.630533425
    2.267445743   10.231615132   17.599515621   19.713069620
    2.274624374   10.263051720   17.676945429   19.796748390
    2.281803005   10.294846801   17.755528269   19.881594665
    2.288981636   10.327006604   17.835291496   19.967633911
    2.296160267   10.359537885   17.916263902   20.054892761
    2.303338898   10.392447993   17.998476138   20.143399727
    2.310517529   10.425743905   18.081959374   20.233183820
    2.317696160   10.459432673   18.166745693   20.324274439
    2.324874791   10.493521673   18.252868099   20.416701900
    2.332053422   10.528018572   18.340361040   20.510497853
    2.339232053   10.562931295   18.429260390   20.605695118
    2.346410684   10.598268011   18.519603388   20.702327634
    2.353589316   10.634037145   18.611428726   20.800430577
    2.360767947   10.670247387   18.704776764   20.900040567
    2.367946578   10.706907736   18.799689771   21.001195721
    2.375125209   10.744027490   18.896211692   21.103935472
    2.382303840   10.781616189   18.994387978   21.208300694
    2.389482471   10.819683733   19.094265997   21.314333883
    2.396661102   10.858240542   19.195895196   21.422079284
    2.403839733   10.897297239   19.299326909   21.531582888
    2.411018364   10.936864866   19.404615850   21.642892500
    2.418196995   10.976954964   19.511819568   21.756057865
    2.425375626   11.017579334   19.620996891   21.871131024
    2.432554257   11.058750230   19.732209446   21.988166380
    2.439732888   11.100480414   19.845521924   22.107220335
    2.446911519   11.142783164   19.961002210   22.228351713
    2.454090150   11.185672294   20.078721561   22.351622281
    2.461268781   11.229162181   20.198754775   22.477096591
    2.468447412   11.273267789   20.321180402   22.604841882
    2.475626043   11.318004712   20.446081037   22.734928583
    2.482804674   11.363389204   20.573543574   22.867430512
    2.489983306   11.409438202   20.703659191   23.002424510
    2.497161937   11.456169398   20.836523891   23.139991009
    2.504340568   11.503601451   20.972240309   23.280216892
    2.511519199   11.551753859   21.110916733   23.423193323
    2.518697830   11.600646899   21.252666278   23.569013776
    2.525876461   11.650301852   21.397608719   23.717776791
    2.533055092   11.700741081   21.545871170   23.869586656
    2.540233723   11.751988100   21.697588597   24.024553884
