# energy grid [eV]     epsr_x  epsr_y  epsr_z
#
    0.200000000    9.513454688   11.185472567    5.832485471
    0.207178631    9.515412919   11.187562239    5.833458409
    0.214357262    9.517441411   11.189726735    5.834466222
    0.221535893    9.519540291   11.191966176    5.835508967
    0.228714524    9.521709694   11.194280687    5.836586709
    0.235893155    9.523949755   11.196670399    5.837699511
    0.243071786    9.526260616   11.199135444    5.838847440
    0.250250417    9.528642427   11.201675962    5.840030565
    0.257429048    9.531095336   11.204292095    5.841248957
    0.264607679    9.533619503   11.206983993    5.842502690
    0.271786311    9.536215087   11.209751807    5.843791840
    0.278964942    9.538882257   11.212595694    5.845116485
    0.286143573    9.541621182   11.215515818    5.846476706
    0.293322204    9.544432041   11.218512345    5.847872587
    0.300500835    9.547315015   11.221585446    5.849304211
    0.307679466    9.550270291   11.224735299    5.850771669
    0.314858097    9.553298061   11.227962086    5.852275050
    0.322036728    9.556398523   11.231265994    5.853814447
    0.329215359    9.559571879   11.234647214    5.855389957
    0.336393990    9.562818339   11.238105944    5.857001677
    0.343572621    9.566138115   11.241642387    5.858649709
    0.350751252    9.569531426   11.245256751    5.860334155
    0.357929883    9.572998499   11.248949248    5.862055123
    0.365108514    9.576539563   11.252720098    5.863812721
    0.372287145    9.580154855   11.256569525    5.865607062
    0.379465776    9.583844617   11.260497759    5.867438260
    0.386644407    9.587609096   11.264505036    5.869306432
    0.393823038    9.591448548   11.268591598    5.871211700
    0.401001669    9.595363232   11.272757692    5.873154187
    0.408180301    9.599353415   11.277003572    5.875134018
    0.415358932    9.603419368   11.281329498    5.877151325
    0.422537563    9.607561372   11.285735735    5.879206240
    0.429716194    9.611779711   11.290222556    5.881298898
    0.436894825    9.616074677   11.294790241    5.883429439
    0.444073456    9.620446570   11.299439073    5.885598005
    0.451252087    9.624895694   11.304169346    5.887804742
    0.458430718    9.629422362   11.308981359    5.890049800
    0.465609349    9.634026894   11.313875417    5.892333332
    0.472787980    9.638709615   11.318851833    5.894655493
    0.479966611    9.643470860   11.323910929    5.897016445
    0.487145242    9.648310970   11.329053032    5.899416350
    0.494323873    9.653230293   11.334278478    5.901855377
    0.501502504    9.658229187   11.339587609    5.904333696
    0.508681135    9.663308016   11.344980777    5.906851485
    0.515859766    9.668467152   11.350458343    5.909408921
    0.523038397    9.673706976   11.356020672    5.912006190
    0.530217028    9.679027877   11.361668143    5.914643480
    0.537395659    9.684430253   11.367401139    5.917320982
    0.544574290    9.689914510   11.373220056    5.920038894
    0.551752922    9.695481064   11.379125297    5.922797419
    0.558931553    9.701130340   11.385117274    5.925596762
    0.566110184    9.706862771   11.391196411    5.928437135
    0.573288815    9.712678801   11.397363141    5.931318755
    0.580467446    9.718578885   11.403617906    5.934241842
    0.587646077    9.724563485   11.409961161    5.937206626
    0.594824708    9.730633076   11.416393371    5.940213337
    0.602003339    9.736788144   11.422915012    5.943262215
    0.609181970    9.743029184   11.429526571    5.946353503
    0.616360601    9.749356704   11.436228550    5.949487452
    0.623539232    9.755771222   11.443021461    5.952664318
    0.630717863    9.762273271   11.449905829    5.955884364
    0.637896494    9.768863393   11.456882194    5.959147861
    0.645075125    9.775542145   11.463951109    5.962455084
    0.652253756    9.782310096   11.471113141    5.965806318
    0.659432387    9.789167830   11.478368872    5.969201854
    0.666611018    9.796115944   11.485718900    5.972641992
    0.673789649    9.803155050   11.493163839    5.976127037
    0.680968280    9.810285776   11.500704321    5.979657307
    0.688146912    9.817508763   11.508340994    5.983233125
    0.695325543    9.824824672   11.516074523    5.986854826
    0.702504174    9.832234178   11.523905596    5.990522751
    0.709682805    9.839737974   11.531834918    5.994237254
    0.716861436    9.847336773   11.539863214    5.997998699
    0.724040067    9.855031305   11.547991234    6.001807459
    0.731218698    9.862822322   11.556219748    6.005663920
    0.738397329    9.870710594   11.564549552    6.009568480
    0.745575960    9.878696916   11.572981465    6.013521549
    0.752754591    9.886782102   11.581516334    6.017523549
    0.759933222    9.894966992   11.590155033    6.021574919
    0.767111853    9.903252450   11.598898466    6.025676110
    0.774290484    9.911639367   11.607747567    6.029827589
    0.781469115    9.920128661   11.616703303    6.034029839
    0.788647746    9.928721278   11.625766675    6.038283362
    0.795826377    9.937418196   11.634938721    6.042588676
    0.803005008    9.946220422   11.644220519    6.046946319
    0.810183639    9.955129000   11.653613184    6.051356850
    0.817362270    9.964145009   11.663117879    6.055820850
    0.824540902    9.973269566   11.672735811    6.060338923
    0.831719533    9.982503826   11.682468236    6.064911698
    0.838898164    9.991848989   11.692316466    6.069539830
    0.846076795   10.001306302   11.702281865    6.074224003
    0.853255426   10.010877056   11.712365860    6.078964932
    0.860434057   10.020562597   11.722569942    6.083763363
    0.867612688   10.030364326   11.732895674    6.088620080
    0.874791319   10.040283702   11.743344689    6.093535902
    0.881969950   10.050322250   11.753918705    6.098511692
    0.889148581   10.060481561   11.764619524    6.103548356
    0.896327212   10.070763300   11.775449046    6.108646848
    0.903505843   10.081169214   11.786409268    6.113808175
    0.910684474   10.091701134   11.797502302    6.119033402
    0.917863105   10.102360985   11.808730380    6.124323656
    0.925041736   10.113150792   11.820095863    6.129680133
    0.932220367   10.124072693   11.831601259    6.135104103
    0.939398998   10.135128946   11.843249231    6.140596920
    0.946577629   10.146321939   11.855042617    6.146160029
    0.953756260   10.157654206   11.866984443    6.151794976
    0.960934891   10.169128440   11.879077947    6.157503419
    0.968113523   10.180747510   11.891326597    6.163287144
    0.975292154   10.192514478   11.903734121    6.169148073
    0.982470785   10.204432622   11.916304534    6.175088286
    0.989649416   10.216505458   11.929042168    6.181110040
    0.996828047   10.228736770   11.941951716    6.187215792
    1.004006678   10.241130641   11.955038273    6.193408221
    1.011185309   10.253691490   11.968307388    6.199690268
    1.018363940   10.266424115   11.981765125    6.206065163
    1.025542571   10.279333742   11.995418129    6.212536478
    1.032721202   10.292426085   12.009273714    6.219108169
    1.039899833   10.305707417   12.023339957    6.225784649
    1.047078464   10.319184648   12.037625813    6.232570854
    1.054257095   10.332865424   12.052141258    6.239472338
    1.061435726   10.346758246   12.066897452    6.246495386
    1.068614357   10.360872610   12.081906939    6.253647147
    1.075792988   10.375219176   12.097183901    6.260935805
    1.082971619   10.389809982   12.112744457    6.268370794
    1.090150250   10.404658701   12.128607039    6.275963061
    1.097328881   10.419780963   12.144792868    6.283725411
    1.104507513   10.435194763   12.161326550    6.291672942
    1.111686144   10.450920974   12.178236837    6.299823617
    1.118864775   10.466984007   12.195557617    6.308199013
    1.126043406   10.483412674   12.213329198    6.316825312
    1.133222037   10.500241312   12.231600025    6.325734647
    1.140400668   10.517511292   12.250428962    6.334966927
    1.147579299   10.535273047   12.269888405    6.344572355
    1.154757930   10.553588842   12.290068561    6.354614942
    1.161936561   10.572536593   12.311083372    6.365177443
    1.169115192   10.592215141   12.333078740    6.376368280
    1.176293823   10.612751427   12.356243762    6.388331063
    1.183472454   10.634309720   12.380825168    6.401256826
    1.190651085   10.657101239   12.407142167    6.415396245
    1.197829716   10.681385015   12.435586500    6.431057452
    1.205008347   10.707420943   12.466543080    6.448528656
    1.212186978   10.735217024   12.499970185    6.467680586
    1.219365609   10.763453083   12.533619003    6.486291961
    1.226544240   10.785685104   12.556761873    6.494162654
    1.233722871   10.785046102   12.541436267    6.464895050
    1.240901503   10.762180935   12.488559037    6.399107289
    1.248080134   10.762298663   12.472579808    6.366270931
    1.255258765   10.790878519   12.502283914    6.374196094
    1.262437396   10.830977105   12.549344258    6.395757263
    1.269616027   10.876094749   12.602559801    6.419692817
    1.276794658   10.925704254   12.660460682    6.443652972
    1.283973289   10.980914065   12.724231787    6.467701623
    1.291151920   11.042249279   12.794559714    6.492183076
    1.298330551   11.104975979   12.866162843    6.516218119
    1.305509182   11.142240770   12.908581427    6.533592705
    1.312687813   11.064326380   12.819827343    6.523005742
    1.319866444   10.784495465   12.501288115    6.463830711
    1.327045075   10.538163508   12.220803598    6.412482144
    1.334223706   10.493661489   12.169895759    6.409306137
    1.341402337   10.540036112   12.222385259    6.427821635
    1.348580968   10.602881150   12.293664826    6.450281650
    1.355759599   10.662088497   12.360893547    6.471923232
    1.362938230   10.714519364   12.420535333    6.492039893
    1.370116861   10.760906901   12.473461621    6.510850506
    1.377295492   10.802553451   12.521195981    6.528711178
    1.384474124   10.840605532   12.565091238    6.545943773
    1.391652755   10.875954029   12.606218192    6.562814163
    1.398831386   10.909271303   12.645410713    6.579543586
    1.406010017   10.941065881   12.683331700    6.596324788
    1.413188648   10.971728639   12.720530656    6.613337037
    1.420367279   11.001567643   12.757490188    6.630759742
    1.427545910   11.030833933   12.794664846    6.648785846
    1.434724541   11.059741055   12.832516674    6.667636551
    1.441903172   11.088480740   12.871551847    6.687579162
    1.449081803   11.117236627   12.912362608    6.708950075
    1.456260434   11.146197399   12.955677956    6.732184604
    1.463439065   11.175569761   13.002421983    6.757852612
    1.470617696   11.205588346   13.053758701    6.786685996
    1.477796327   11.236507025   13.111022247    6.819532364
    1.484974958   11.268506621   13.175115445    6.856964631
    1.492153589   11.301257836   13.243704957    6.897463416
    1.499332220   11.332155833   13.299920836    6.930095789
    1.506510851   11.350942871   13.277952216    6.912226387
    1.513689482   11.339451887   13.061400759    6.768450942
    1.520868114   11.317468771   12.776643496    6.580652481
    1.528046745   11.325990226   12.685730532    6.518615826
    1.535225376   11.354802297   12.723115045    6.539898626
    1.542404007   11.388736555   12.791532547    6.581519123
    1.549582638   11.422957930   12.859783113    6.623306571
    1.556761269   11.456575347   12.921856667    6.661420998
    1.563939900   11.489667236   12.977939053    6.696039629
    1.571118531   11.522458858   13.029341885    6.728025331
    1.578297162   11.555003205   13.077293241    6.757941287
    1.585475793   11.586660750   13.122570218    6.785095048
    1.592654424   11.615391277   13.165277784    6.806350565
    1.599833055   11.641316259   13.206142624    6.822177255
    1.607011686   11.670516110   13.247887804    6.843096638
    1.614190317   11.703991158   13.291471153    6.871040638
    1.621368948   11.739669368   13.336811943    6.902769349
    1.628547579   11.776824152   13.384274686    6.937359847
    1.635726210   11.815346647   13.434066794    6.974972550
    1.642904841   11.854460415   13.484210751    7.014574807
    1.650083472   11.889802476   13.523566659    7.048380998
    1.657262104   11.907152158   13.516753559    7.047038769
    1.664440735   11.892609280   13.433945901    6.959575551
    1.671619366   11.875325634   13.353715259    6.816707265
    1.678797997   11.889092689   13.346602238    6.749856540
    1.685976628   11.924727100   13.384888466    6.762249123
    1.693155259   11.966595235   13.434380222    6.799046340
    1.700333890   12.009200091   13.483507375    6.837879022
    1.707512521   12.051546975   13.530065062    6.873777318
    1.714691152   12.093796555   13.574197178    6.906430589
    1.721869783   12.136237336   13.616460140    6.936455311
    1.729048414   12.178646933   13.657356052    6.964431215
    1.736227045   12.218626048   13.697169131    6.990431104
    1.743405676   12.247545227   13.735753460    7.013276503
    1.750584307   12.256374624   13.772875229    7.031623607
    1.757762938   12.267990792   13.810002027    7.049869490
    1.764941569   12.300438603   13.848310238    7.071485013
    1.772120200   12.342937627   13.887386860    7.094662721
    1.779298831   12.387924780   13.926996036    7.118161450
    1.786477462   12.433433777   13.967222098    7.141749040
    1.793656093   12.479294377   14.008273704    7.165518211
    1.800834725   12.525772686   14.050415090    7.189643192
    1.808013356   12.573200816   14.093917877    7.214303190
    1.815191987   12.621752131   14.138875229    7.239578268
    1.822370618   12.670794392   14.184417642    7.265057413
    1.829549249   12.716846003   14.226185350    7.288584121
    1.836727880   12.752697107   14.255219377    7.305733367
    1.843906511   12.783920788   14.278236751    7.320053241
    1.851085142   12.824046380   14.311360179    7.340406262
    1.858263773   12.857350208   14.333463497    7.358829509
    1.865442404   12.865089359   14.319735053    7.365478817
    1.872621035   12.878781235   14.313367826    7.375487174
    1.879799666   12.922465046   14.347114746    7.400613488
    1.886978297   12.980577918   14.399625810    7.433489831
    1.894156928   13.042856871   14.456739018    7.469388562
    1.901335559   13.106919496   14.514984680    7.507461923
    1.908514190   13.172882484   14.574168506    7.548050980
    1.915692821   13.241301598   14.634299898    7.591296304
    1.922871452   13.311854826   14.692844834    7.634873932
    1.930050083   13.380303870   14.737597569    7.667115787
    1.937228715   13.435581688   14.741044699    7.661254665
    1.944407346   13.479980265   14.717090306    7.629126084
    1.951585977   13.523684129   14.732125772    7.627094960
    1.958764608   13.513357330   14.774031250    7.619729303
    1.965943239   13.416265239   14.810715681    7.563037020
    1.973121870   13.360254949   14.843428520    7.512121924
    1.980300501   13.393112846   14.884851203    7.506875631
    1.987479132   13.468663005   14.942376016    7.543349055
    1.994657763   13.555364563   15.008357922    7.596720780
    2.001836394   13.642566102   15.077325495    7.653118146
    2.009015025   13.728601474   15.148386619    7.709552532
    2.016193656   13.814212098   15.222207826    7.766459375
    2.023372287   13.900604339   15.299610706    7.824800445
    2.030550918   13.988912311   15.380133724    7.884346865
    2.037729549   14.079781143   15.458620814    7.940488238
    2.044908180   14.173342685   15.526916623    7.985928556
    2.052086811   14.270554604   15.597357314    8.032911863
    2.059265442   14.365711117   15.666994522    8.082516841
    2.066444073   14.431199349   15.657570806    8.074499784
    2.073622705   14.442715171   15.502956125    7.957929539
    2.080801336   14.465046584   15.382250234    7.868250348
    2.087979967   14.510609005   15.382240283    7.870217594
    2.095158598   14.506303427   15.399661072    7.882129412
    2.102337229   14.481527844   15.436126979    7.900878266
    2.109515860   14.527767227   15.486067674    7.915893263
    2.116694491   14.636094598   15.495248079    7.872893863
    2.123873122   14.770185956   15.512088551    7.844128393
    2.131051753   14.910278841   15.580691471    7.893972632
    2.138230384   15.016045790   15.652117501    7.966897885
    2.145409015   15.040040163   15.693904896    7.996758167
    2.152587646   14.977226500   15.729862755    7.928100387
    2.159766277   14.935243725   15.791305216    7.837388663
    2.166944908   15.024517574   15.879999694    7.846149783
    2.174123539   15.178621160   15.978197883    7.912645502
    2.181302170   15.306973874   16.074077892    7.977606928
    2.188480801   15.357430485   16.160112228    8.013321110
    2.195659432   15.423151057   16.240485996    8.043875421
    2.202838063   15.584197198   16.331148315    8.097859870
    2.210016694   15.808186065   16.440243147    8.171955994
    2.217195326   16.040713595   16.550546198    8.251031722
    2.224373957   16.177681450   16.614756476    8.314945077
    2.231552588   15.990655672   16.554055452    8.327429804
    2.238731219   15.333539479   16.392279981    8.260591407
    2.245909850   14.733475413   16.303752622    8.188207939
    2.253088481   14.648451225   16.349399759    8.182642687
    2.260267112   14.825920708   16.437914674    8.225883076
    2.267445743   15.054784133   16.484295966    8.290936566
    2.274624374   15.275910213   16.499575738    8.360297830
    2.281803005   15.485773761   16.562095159    8.431625383
    2.288981636   15.666912865   16.635430245    8.481325801
    2.296160267   15.797793601   16.667133392    8.478672799
    2.303338898   15.916946114   16.703922107    8.460118736
    2.310517529   16.056961694   16.784011794    8.476408150
    2.317696160   16.171018549   16.875588445    8.489115416
    2.324874791   16.243990032   16.957312163    8.483171806
    2.332053422   16.322904829   17.030644201    8.514992625
    2.339232053   16.421536190   17.102614147    8.580835464
    2.346410684   16.564931710   17.192273428    8.657655447
    2.353589316   16.735855098   17.294421453    8.736800444
    2.360767947   16.913027005   17.400125008    8.815149611
    2.367946578   17.086169385   17.505649956    8.885624757
    2.375125209   17.244961302   17.606823559    8.925656192
    2.382303840   17.393213842   17.698671105    8.911287251
    2.389482471   17.550787400   17.779282364    8.883481012
    2.396661102   17.722994668   17.849666985    8.902582098
    2.403839733   17.904396566   17.892376130    8.961805674
    2.411018364   18.095713760   17.932083213    9.035977396
    2.418196995   18.305827541   18.019338749    9.118344394
    2.425375626   18.532717859   18.137199509    9.205347428
    2.432554257   18.771201848   18.265408117    9.295333593
    2.439732888   19.004276698   18.394727713    9.386030917
    2.446911519   19.168036815   18.509970602    9.467145455
    2.454090150   19.159896144   18.586232924    9.520505628
    2.461268781   19.116858606   18.643496121    9.565206972
    2.468447412   19.245613506   18.696522127    9.617967752
    2.475626043   19.449882201   18.712035937    9.634000576
    2.482804674   19.651374447   18.753476153    9.617074482
    2.489983306   19.866122804   18.842763580    9.626040874
    2.497161937   20.073562636   18.917228482    9.655969724
    2.504340568   20.283946270   18.954874079    9.691648859
    2.511519199   20.577552396   19.015827636    9.770483324
    2.518697830   20.893669848   19.135010190    9.882927574
    2.525876461   21.068458785   19.265887693    9.945881599
    2.533055092   20.995736994   19.362898705    9.863395600
    2.540233723   20.978163759   19.456761227    9.730903352
