# energy grid [eV]     ieps_x  ieps_y  ieps_z
#
    0.200000000    8.675269646    7.046793246    8.616136806
    0.207178631    8.673430134    7.045477697    8.614315021
    0.214357262    8.671526741    7.044116393    8.612429969
    0.221535893    8.669559571    7.042709397    8.610481752
    0.228714524    8.667528726    7.041256777    8.608470472
    0.235893155    8.665434316    7.039758602    8.606396236
    0.243071786    8.663276450    7.038214943    8.604259153
    0.250250417    8.661055244    7.036625875    8.602059338
    0.257429048    8.658770814    7.034991472    8.599796905
    0.264607679    8.656423282    7.033311812    8.597471975
    0.271786311    8.654012772    7.031586975    8.595084670
    0.278964942    8.651539410    7.029817043    8.592635115
    0.286143573    8.649003328    7.028002100    8.590123440
    0.293322204    8.646404658    7.026142231    8.587549777
    0.300500835    8.643743537    7.024237524    8.584914260
    0.307679466    8.641020106    7.022288070    8.582217027
    0.314858097    8.638234506    7.020293961    8.579458221
    0.322036728    8.635386884    7.018255290    8.576637984
    0.329215359    8.632477389    7.016172153    8.573756465
    0.336393990    8.629506173    7.014044649    8.570813814
    0.343572621    8.626473390    7.011872877    8.567810183
    0.350751252    8.623379200    7.009656940    8.564745730
    0.357929883    8.620223762    7.007396940    8.561620613
    0.365108514    8.617007241    7.005092985    8.558434995
    0.372287145    8.613729804    7.002745180    8.555189039
    0.379465776    8.610391620    7.000353637    8.551882915
    0.386644407    8.606992862    6.997918467    8.548516793
    0.393823038    8.603533706    6.995439782    8.545090846
    0.401001669    8.600014330    6.992917698    8.541605251
    0.408180301    8.596434915    6.990352333    8.538060187
    0.415358932    8.592795646    6.987743804    8.534455835
    0.422537563    8.589096708    6.985092234    8.530792381
    0.429716194    8.585338292    6.982397743    8.527070012
    0.436894825    8.581520589    6.979660458    8.523288916
    0.444073456    8.577643795    6.976880503    8.519449289
    0.451252087    8.573708107    6.974058006    8.515551324
    0.458430718    8.569713725    6.971193098    8.511595219
    0.465609349    8.565660851    6.968285910    8.507581175
    0.472787980    8.561549693    6.965336574    8.503509395
    0.479966611    8.557380456    6.962345225    8.499380085
    0.487145242    8.553153353    6.959312001    8.495193452
    0.494323873    8.548868595    6.956237038    8.490949708
    0.501502504    8.544526399    6.953120477    8.486649065
    0.508681135    8.540126981    6.949962460    8.482291738
    0.515859766    8.535670563    6.946763128    8.477877946
    0.523038397    8.531157368    6.943522628    8.473407909
    0.530217028    8.526587619    6.940241105    8.468881849
    0.537395659    8.521961545    6.936918707    8.464299990
    0.544574290    8.517279376    6.933555583    8.459662561
    0.551752922    8.512541343    6.930151884    8.454969791
    0.558931553    8.507747681    6.926707764    8.450221911
    0.566110184    8.502898626    6.923223375    8.445419155
    0.573288815    8.497994417    6.919698873    8.440561759
    0.580467446    8.493035295    6.916134415    8.435649961
    0.587646077    8.488021503    6.912530160    8.430684001
    0.594824708    8.482953285    6.908886267    8.425664123
    0.602003339    8.477830890    6.905202897    8.420590569
    0.609181970    8.472654565    6.901480213    8.415463587
    0.616360601    8.467424563    6.897718380    8.410283424
    0.623539232    8.462141137    6.893917562    8.405050332
    0.630717863    8.456804541    6.890077926    8.399764562
    0.637896494    8.451415034    6.886199640    8.394426369
    0.645075125    8.445972873    6.882282874    8.389036009
    0.652253756    8.440478320    6.878327797    8.383593740
    0.659432387    8.434931637    6.874334583    8.378099821
    0.666611018    8.429333089    6.870303405    8.372554513
    0.673789649    8.423682941    6.866234436    8.366958081
    0.680968280    8.417981463    6.862127852    8.361310789
    0.688146912    8.412228924    6.857983831    8.355612904
    0.695325543    8.406425594    6.853802549    8.349864693
    0.702504174    8.400571748    6.849584187    8.344066428
    0.709682805    8.394667659    6.845328925    8.338218379
    0.716861436    8.388713603    6.841036944    8.332320820
    0.724040067    8.382709859    6.836708427    8.326374025
    0.731218698    8.376656706    6.832343556    8.320378270
    0.738397329    8.370554425    6.827942518    8.314333834
    0.745575960    8.364403297    6.823505498    8.308240994
    0.752754591    8.358203606    6.819032682    8.302100032
    0.759933222    8.351955637    6.814524259    8.295911229
    0.767111853    8.345659677    6.809980416    8.289674869
    0.774290484    8.339316014    6.805401345    8.283391236
    0.781469115    8.332924935    6.800787235    8.277060616
    0.788647746    8.326486733    6.796138278    8.270683295
    0.795826377    8.320001697    6.791454668    8.264259563
    0.803005008    8.313470121    6.786736597    8.257789708
    0.810183639    8.306892299    6.781984259    8.251274022
    0.817362270    8.300268525    6.777197850    8.244712796
    0.824540902    8.293599096    6.772377566    8.238106322
    0.831719533    8.286884309    6.767523604    8.231454895
    0.838898164    8.280124462    6.762636162    8.224758810
    0.846076795    8.273319855    6.757715437    8.218018363
    0.853255426    8.266470787    6.752761630    8.211233850
    0.860434057    8.259577561    6.747774939    8.204405570
    0.867612688    8.252640477    6.742755567    8.197533822
    0.874791319    8.245659840    6.737703714    8.190618904
    0.881969950    8.238635952    6.732619581    8.183661118
    0.889148581    8.231569119    6.727503373    8.176660766
    0.896327212    8.224459647    6.722355293    8.169618148
    0.903505843    8.217307841    6.717175544    8.162533569
    0.910684474    8.210114008    6.711964331    8.155407331
    0.917863105    8.202878457    6.706721860    8.148239740
    0.925041736    8.195601496    6.701448335    8.141031101
    0.932220367    8.188283433    6.696143965    8.133781718
    0.939398998    8.180924579    6.690808955    8.126491899
    0.946577629    8.173525244    6.685443513    8.119161950
    0.953756260    8.166085739    6.680047846    8.111792180
    0.960934891    8.158606374    6.674622165    8.104382895
    0.968113523    8.151087463    6.669166676    8.096934404
    0.975292154    8.143529317    6.663681590    8.089447018
    0.982470785    8.135932250    6.658167117    8.081921044
    0.989649416    8.128296574    6.652623466    8.074356792
    0.996828047    8.120622603    6.647050848    8.066754574
    1.004006678    8.112910651    6.641449475    8.059114700
    1.011185309    8.105161033    6.635819557    8.051437480
    1.018363940    8.097374063    6.630161306    8.043723226
    1.025542571    8.089550056    6.624474934    8.035972250
    1.032721202    8.081689328    6.618760653    8.028184863
    1.039899833    8.073792193    6.613018677    8.020361377
    1.047078464    8.065858967    6.607249217    8.012502105
    1.054257095    8.057889966    6.601452487    8.004607358
    1.061435726    8.049885506    6.595628701    7.996677450
    1.068614357    8.041845904    6.589778071    7.988712694
    1.075792988    8.033771474    6.583900811    7.980713401
    1.082971619    8.025662533    6.577997137    7.972679884
    1.090150250    8.017519398    6.572067260    7.964612457
    1.097328881    8.009342385    6.566111397    7.956511433
    1.104507513    8.001131810    6.560129761    7.948377124
    1.111686144    7.992887989    6.554122566    7.940209843
    1.118864775    7.984611237    6.548090028    7.932009903
    1.126043406    7.976301873    6.542032361    7.923777616
    1.133222037    7.967960210    6.535949780    7.915513295
    1.140400668    7.959586565    6.529842499    7.907217253
    1.147579299    7.951181254    6.523710734    7.898889802
    1.154757930    7.942744592    6.517554699    7.890531254
    1.161936561    7.934276894    6.511374610    7.882141921
    1.169115192    7.925778475    6.505170680    7.873722114
    1.176293823    7.917249650    6.498943126    7.865272145
    1.183472454    7.908690733    6.492692162    7.856792325
    1.190651085    7.900102038    6.486418002    7.848282965
    1.197829716    7.891483880    6.480120861    7.839744375
    1.205008347    7.882836572    6.473800954    7.831176866
    1.212186978    7.874160426    6.467458495    7.822580748
    1.219365609    7.865455756    6.461093700    7.813956329
    1.226544240    7.856722873    6.454706781    7.805303920
    1.233722871    7.847962090    6.448297953    7.796623828
    1.240901503    7.839173718    6.441867430    7.787916361
    1.248080134    7.830358068    6.435415426    7.779181828
    1.255258765    7.821515450    6.428942155    7.770420536
    1.262437396    7.812646175    6.422447829    7.761632791
    1.269616027    7.803750551    6.415932662    7.752818899
    1.276794658    7.794828887    6.409396867    7.743979166
    1.283973289    7.785881491    6.402840657    7.735113897
    1.291151920    7.776908672    6.396264244    7.726223397
    1.298330551    7.767910736    6.389667840    7.717307969
    1.305509182    7.758887989    6.383051657    7.708367917
    1.312687813    7.749840738    6.376415907    7.699403542
    1.319866444    7.740769286    6.369760802    7.690415148
    1.327045075    7.731673939    6.363086551    7.681403035
    1.334223706    7.722555000    6.356393365    7.672367504
    1.341402337    7.713412772    6.349681456    7.663308854
    1.348580968    7.704247558    6.342951033    7.654227385
    1.355759599    7.695059657    6.336202305    7.645123394
    1.362938230    7.685849372    6.329435482    7.635997181
    1.370116861    7.676617002    6.322650772    7.626849040
    1.377295492    7.667362845    6.315848384    7.617679269
    1.384474124    7.658087201    6.309028527    7.608488162
    1.391652755    7.648790366    6.302191406    7.599276013
    1.398831386    7.639472636    6.295337230    7.590043117
    1.406010017    7.630134308    6.288466205    7.580789765
    1.413188648    7.620775676    6.281578538    7.571516250
    1.420367279    7.611397034    6.274674434    7.562222862
    1.427545910    7.601998675    6.267754098    7.552909891
    1.434724541    7.592580889    6.260817735    7.543577626
    1.441903172    7.583143970    6.253865549    7.534226356
    1.449081803    7.573688206    6.246897745    7.524856367
    1.456260434    7.564213886    6.239914525    7.515467945
    1.463439065    7.554721299    6.232916092    7.506061376
    1.470617696    7.545210731    6.225902648    7.496636943
    1.477796327    7.535682469    6.218874395    7.487194931
    1.484974958    7.526136797    6.211831533    7.477735620
    1.492153589    7.516574000    6.204774264    7.468259293
    1.499332220    7.506994360    6.197702786    7.458766228
    1.506510851    7.497398158    6.190617300    7.449256706
    1.513689482    7.487785677    6.183518004    7.439731005
    1.520868114    7.478157195    6.176405096    7.430189400
    1.528046745    7.468512991    6.169278773    7.420632168
    1.535225376    7.458853342    6.162139233    7.411059584
    1.542404007    7.449178525    6.154986671    7.401471921
    1.549582638    7.439488815    6.147821283    7.391869451
    1.556761269    7.429784485    6.140643264    7.382252447
    1.563939900    7.420065809    6.133452808    7.372621177
    1.571118531    7.410333058    6.126250109    7.362975912
    1.578297162    7.400586502    6.119035359    7.353316919
    1.585475793    7.390826412    6.111808751    7.343644464
    1.592654424    7.381053055    6.104570477    7.333958814
    1.599833055    7.371266698    6.097320726    7.324260232
    1.607011686    7.361467607    6.090059690    7.314548982
    1.614190317    7.351656046    6.082787558    7.304825325
    1.621368948    7.341832278    6.075504518    7.295089524
    1.628547579    7.331996566    6.068210758    7.285341836
    1.635726210    7.322149171    6.060906466    7.275582520
    1.642904841    7.312290351    6.053591828    7.265811833
    1.650083472    7.302420365    6.046267029    7.256030031
    1.657262104    7.292539470    6.038932256    7.246237369
    1.664440735    7.282647922    6.031587691    7.236434100
    1.671619366    7.272745976    6.024233520    7.226620476
    1.678797997    7.262833883    6.016869923    7.216796747
    1.685976628    7.252911897    6.009497084    7.206963163
    1.693155259    7.242980267    6.002115183    7.197119973
    1.700333890    7.233039244    5.994724401    7.187267422
    1.707512521    7.223089074    5.987324918    7.177405758
    1.714691152    7.213130005    5.979916911    7.167535223
    1.721869783    7.203162281    5.972500560    7.157656062
    1.729048414    7.193186147    5.965076041    7.147768515
    1.736227045    7.183201846    5.957643531    7.137872823
    1.743405676    7.173209618    5.950203206    7.127969225
    1.750584307    7.163209704    5.942755239    7.118057959
    1.757762938    7.153202342    5.935299806    7.108139261
    1.764941569    7.143187769    5.927837079    7.098213367
    1.772120200    7.133166222    5.920367230    7.088280509
    1.779298831    7.123137934    5.912890431    7.078340920
    1.786477462    7.113103140    5.905406853    7.068394832
    1.793656093    7.103062070    5.897916665    7.058442474
    1.800834725    7.093014955    5.890420036    7.048484074
    1.808013356    7.082962024    5.882917134    7.038519859
    1.815191987    7.072903506    5.875408126    7.028550054
    1.822370618    7.062839625    5.867893180    7.018574885
    1.829549249    7.052770607    5.860372460    7.008594574
    1.836727880    7.042696676    5.852846130    6.998609341
    1.843906511    7.032618054    5.845314355    6.988619408
    1.851085142    7.022534961    5.837777298    6.978624994
    1.858263773    7.012447617    5.830235120    6.968626315
    1.865442404    7.002356239    5.822687983    6.958623587
    1.872621035    6.992261045    5.815136047    6.948617025
    1.879799666    6.982162249    5.807579472    6.938606843
    1.886978297    6.972060066    5.800018415    6.928593252
    1.894156928    6.961954707    5.792453035    6.918576463
    1.901335559    6.951846383    5.784883487    6.908556684
    1.908514190    6.941735305    5.777309929    6.898534124
    1.915692821    6.931621680    5.769732515    6.888508988
    1.922871452    6.921505715    5.762151399    6.878481483
    1.930050083    6.911387615    5.754566735    6.868451810
    1.937228715    6.901267584    5.746978673    6.858420173
    1.944407346    6.891145825    5.739387367    6.848386772
    1.951585977    6.881022540    5.731792966    6.838351806
    1.958764608    6.870897927    5.724195620    6.828315474
    1.965943239    6.860772185    5.716595478    6.818277971
    1.973121870    6.850645511    5.708992687    6.808239494
    1.980300501    6.840518100    5.701387394    6.798200237
    1.987479132    6.830390148    5.693779746    6.788160390
    1.994657763    6.820261845    5.686169886    6.778120147
    2.001836394    6.810133384    5.678557961    6.768079695
    2.009015025    6.800004955    5.670944112    6.758039225
    2.016193656    6.789876746    5.663328482    6.747998921
    2.023372287    6.779748945    5.655711212    6.737958971
    2.030550918    6.769621736    5.648092444    6.727919557
    2.037729549    6.759495305    5.640472316    6.717880864
    2.044908180    6.749369834    5.632850967    6.707843072
    2.052086811    6.739245504    5.625228536    6.697806361
    2.059265442    6.729122497    5.617605158    6.687770910
    2.066444073    6.719000991    5.609980971    6.677736897
    2.073622705    6.708881163    5.602356108    6.667704496
    2.080801336    6.698763189    5.594730705    6.657673883
    2.087979967    6.688647243    5.587104894    6.647645231
    2.095158598    6.678533500    5.579478809    6.637618711
    2.102337229    6.668422131    5.571852579    6.627594495
    2.109515860    6.658313307    5.564226336    6.617572750
    2.116694491    6.648207196    5.556600210    6.607553645
    2.123873122    6.638103966    5.548974328    6.597537347
    2.131051753    6.628003784    5.541348820    6.587524020
    2.138230384    6.617906815    5.533723812    6.577513827
    2.145409015    6.607813223    5.526099429    6.567506932
    2.152587646    6.597723169    5.518475797    6.557503496
    2.159766277    6.587636815    5.510853041    6.547503677
    2.166944908    6.577554320    5.503231283    6.537507634
    2.174123539    6.567475843    5.495610645    6.527515524
    2.181302170    6.557401541    5.487991250    6.517527504
    2.188480801    6.547331569    5.480373218    6.507543726
    2.195659432    6.537266081    5.472756669    6.497564345
    2.202838063    6.527205231    5.465141721    6.487589511
    2.210016694    6.517149170    5.457528492    6.477619376
    2.217195326    6.507098048    5.449917100    6.467654088
    2.224373957    6.497052014    5.442307660    6.457693795
    2.231552588    6.487011216    5.434700288    6.447738644
    2.238731219    6.476975800    5.427095098    6.437788779
    2.245909850    6.466945911    5.419492204    6.427844345
    2.253088481    6.456921693    5.411891717    6.417905485
    2.260267112    6.446903288    5.404293751    6.407972338
    2.267445743    6.436890838    5.396698415    6.398045046
    2.274624374    6.426884482    5.389105819    6.388123748
    2.281803005    6.416884359    5.381516073    6.378208579
    2.288981636    6.406890605    5.373929285    6.368299678
    2.296160267    6.396903358    5.366345562    6.358397179
    2.303338898    6.386922751    5.358765011    6.348501214
    2.310517529    6.376948919    5.351187737    6.338611918
    2.317696160    6.366981992    5.343613844    6.328729421
    2.324874791    6.357022103    5.336043437    6.318853852
    2.332053422    6.347069381    5.328476619    6.308985342
    2.339232053    6.337123954    5.320913492    6.299124016
    2.346410684    6.327185949    5.313354156    6.289270001
    2.353589316    6.317255493    5.305798713    6.279423423
    2.360767947    6.307332710    5.298247262    6.269584404
    2.367946578    6.297417723    5.290699902    6.259753068
    2.375125209    6.287510655    5.283156730    6.249929536
    2.382303840    6.277611627    5.275617844    6.240113927
    2.389482471    6.267720758    5.268083339    6.230306362
    2.396661102    6.257838167    5.260553312    6.220506957
    2.403839733    6.247963972    5.253027856    6.210715829
    2.411018364    6.238098289    5.245507065    6.200933094
    2.418196995    6.228241233    5.237991032    6.191158865
    2.425375626    6.218392917    5.230479850    6.181393256
    2.432554257    6.208553454    5.222973608    6.171636379
    2.439732888    6.198722956    5.215472398    6.161888343
    2.446911519    6.188901532    5.207976309    6.152149259
    2.454090150    6.179089293    5.200485430    6.142419235
    2.461268781    6.169286346    5.192999849    6.132698379
    2.468447412    6.159492798    5.185519652    6.122986795
    2.475626043    6.149708754    5.178044927    6.113284589
    2.482804674    6.139934319    5.170575758    6.103591866
    2.489983306    6.130169596    5.163112230    6.093908727
    2.497161937    6.120414689    5.155654427    6.084235274
    2.504340568    6.110669696    5.148202432    6.074571607
    2.511519199    6.100934720    5.140756328    6.064917827
    2.518697830    6.091209858    5.133316196    6.055274030
    2.525876461    6.081495209    5.125882117    6.045640315
    2.533055092    6.071790869    5.118454170    6.036016776
    2.540233723    6.062096934    5.111032434    6.026403510
