# energy grid [eV]     epsr_x  epsr_y  epsr_z
#
    0.200000000    5.595966299    8.138023215    9.813291811
    0.207178631    5.596937306    8.139640533    9.814985070
    0.214357262    5.597943141    8.141316012    9.816739033
    0.221535893    5.598983866    8.143049772    9.818553806
    0.228714524    5.600059546    8.144841940    9.820429500
    0.235893155    5.601170247    8.146692646    9.822366231
    0.243071786    5.602316040    8.148602026    9.824364118
    0.250250417    5.603496996    8.150570219    9.826423285
    0.257429048    5.604713188    8.152597370    9.828543859
    0.264607679    5.605964694    8.154683630    9.830725974
    0.271786311    5.607251593    8.156829155    9.832969766
    0.278964942    5.608573964    8.159034104    9.835275378
    0.286143573    5.609931894    8.161298644    9.837642956
    0.293322204    5.611325467    8.163622946    9.840072652
    0.300500835    5.612754773    8.166007186    9.842564622
    0.307679466    5.614219903    8.168451548    9.845119027
    0.314858097    5.615720951    8.170956219    9.847736034
    0.322036728    5.617258014    8.173521393    9.850415815
    0.329215359    5.618831192    8.176147270    9.853158546
    0.336393990    5.620440586    8.178834057    9.855964411
    0.343572621    5.622086302    8.181581965    9.858833597
    0.350751252    5.623768447    8.184391214    9.861766298
    0.357929883    5.625487131    8.187262027    9.864762715
    0.365108514    5.627242468    8.190194638    9.867823053
    0.372287145    5.629034574    8.193189285    9.870947524
    0.379465776    5.630863568    8.196246214    9.874136346
    0.386644407    5.632729573    8.199365678    9.877389744
    0.393823038    5.634632713    8.202547936    9.880707951
    0.401001669    5.636573118    8.205793259    9.884091204
    0.408180301    5.638550918    8.209101920    9.887539750
    0.415358932    5.640566249    8.212474204    9.891053841
    0.422537563    5.642619248    8.215910404    9.894633738
    0.429716194    5.644710057    8.219410820    9.898279711
    0.436894825    5.646838821    8.222975763    9.901992034
    0.444073456    5.649005687    8.226605550    9.905770994
    0.451252087    5.651210809    8.230300511    9.909616884
    0.458430718    5.653454341    8.234060984    9.913530008
    0.465609349    5.655736443    8.237887316    9.917510676
    0.472787980    5.658057278    8.241779868    9.921559212
    0.479966611    5.660417012    8.245739008    9.925675947
    0.487145242    5.662815817    8.249765118    9.929861223
    0.494323873    5.665253868    8.253858591    9.934115394
    0.501502504    5.667731344    8.258019831    9.938438824
    0.508681135    5.670248429    8.262249257    9.942831891
    0.515859766    5.672805310    8.266547300    9.947294983
    0.523038397    5.675402180    8.270914405    9.951828502
    0.530217028    5.678039237    8.275351030    9.956432864
    0.537395659    5.680716683    8.279857652    9.961108499
    0.544574290    5.683434724    8.284434760    9.965855851
    0.551752922    5.686193573    8.289082861    9.970675381
    0.558931553    5.688993448    8.293802481    9.975567566
    0.566110184    5.691834571    8.298594160    9.980532899
    0.573288815    5.694717172    8.303458463    9.985571894
    0.580467446    5.697641484    8.308395971    9.990685082
    0.587646077    5.700607750    8.313407286    9.995873014
    0.594824708    5.703616215    8.318493036   10.001136264
    0.602003339    5.706667134    8.323653870   10.006475428
    0.609181970    5.709760767    8.328890463   10.011891126
    0.616360601    5.712897382    8.334203516   10.017384004
    0.623539232    5.716077255    8.339593759   10.022954733
    0.630717863    5.719300667    8.345061950   10.028604016
    0.637896494    5.722567912    8.350608882   10.034332585
    0.645075125    5.725879287    8.356235378   10.040141203
    0.652253756    5.729235103    8.361942301   10.046030671
    0.659432387    5.732635677    8.367730549   10.052001826
    0.666611018    5.736081337    8.373601064   10.058055544
    0.673789649    5.739572423    8.379554828   10.064192745
    0.680968280    5.743109283    8.385592876   10.070414395
    0.688146912    5.746692279    8.391716287   10.076721508
    0.695325543    5.750321786    8.397926200   10.083115153
    0.702504174    5.753998190    8.404223810   10.089596455
    0.709682805    5.757721892    8.410610375   10.096166603
    0.716861436    5.761493308    8.417087222   10.102826850
    0.724040067    5.765312869    8.423655752   10.109578526
    0.731218698    5.769181026    8.430317447   10.116423035
    0.738397329    5.773098245    8.437073874   10.123361870
    0.745575960    5.777065013    8.443926697   10.130396618
    0.752754591    5.781081837    8.450877681   10.137528967
    0.759933222    5.785149250    8.457928707   10.144760717
    0.767111853    5.789267807    8.465081777   10.152093789
    0.774290484    5.793438090    8.472339030   10.159530242
    0.781469115    5.797660711    8.479702754   10.167072280
    0.788647746    5.801936313    8.487175400   10.174722271
    0.795826377    5.806265575    8.494759602   10.182482765
    0.803005008    5.810649212    8.502458194   10.190356508
    0.810183639    5.815087984    8.510274233   10.198346472
    0.817362270    5.819582696    8.518211023   10.206455874
    0.824540902    5.824134201    8.526272146   10.214688207
    0.831719533    5.828743413    8.534461490   10.223047272
    0.838898164    5.833411308    8.542783293   10.231537218
    0.846076795    5.838138931    8.551242180   10.240162582
    0.853255426    5.842927407    8.559843218   10.248928341
    0.860434057    5.847777950    8.568591970   10.257839970
    0.867612688    5.852691873    8.577494564   10.266903511
    0.874791319    5.857670605    8.586557773   10.276125650
    0.881969950    5.862715702    8.595789106   10.285513812
    0.889148581    5.867828869    8.605196918   10.295076269
    0.896327212    5.873011979    8.614790538   10.304822272
    0.903505843    5.878267103    8.624580424   10.314762204
    0.910684474    5.883596536    8.634578348   10.324907765
    0.917863105    5.889002837    8.644797612   10.335272195
    0.925041736    5.894488874    8.655253322   10.345870541
    0.932220367    5.900057878    8.665962707   10.356719986
    0.939398998    5.905713509    8.676945521   10.367840249
    0.946577629    5.911459941    8.688224531   10.379254076
    0.953756260    5.917301961    8.699826124   10.390987853
    0.960934891    5.923245096    8.711781071   10.403072372
    0.968113523    5.929295778    8.724125484   10.415543793
    0.975292154    5.935461545    8.736902034   10.428444874
    0.982470785    5.941751302    8.750161517   10.441826541
    0.989649416    5.948175664    8.763964880   10.455749930
    0.996828047    5.954747398    8.778385876   10.470289054
    1.004006678    5.961482011    8.793514572   10.485534338
    1.011185309    5.968398538    8.809462055   10.501597348
    1.018363940    5.975520605    8.826366797   10.518617197
    1.025542571    5.982877894    8.844403388   10.536769332
    1.032721202    5.990508169    8.863794645   10.556277714
    1.039899833    5.998460112    8.884828586   10.577431897
    1.047078464    6.006797332    8.907882367   10.600611109
    1.054257095    6.015604012    8.933456023   10.626318200
    1.061435726    6.024992702    8.962219086   10.655226542
    1.068614357    6.035114399    8.995070792   10.688240601
    1.075792988    6.046168753    9.033201112   10.726557343
    1.082971619    6.058402895    9.078083712   10.771659147
    1.090150250    6.072050133    9.131109544   10.824945168
    1.097328881    6.087012010    9.191686322   10.885819246
    1.104507513    6.101513736    9.249201476   10.943603964
    1.111686144    6.107309480    9.254362054   10.948706151
    1.118864775    6.082211181    9.074536155   10.767686582
    1.126043406    6.023608281    8.694115044   10.384841249
    1.133222037    5.990445972    8.465435561   10.154650556
    1.140400668    5.992830219    8.448900902   10.137884920
    1.147579299    6.007093512    8.503035231   10.192207329
    1.154757930    6.022771605    8.565284233   10.254682504
    1.161936561    6.037411240    8.620978580   10.310551507
    1.169115192    6.050759437    8.668600788   10.358287255
    1.176293823    6.063026438    8.709402015   10.399148146
    1.183472454    6.074465378    8.744889594   10.434650296
    1.190651085    6.085286149    8.776312131   10.466049505
    1.197829716    6.095648749    8.804619710   10.494301221
    1.205008347    6.105672760    8.830520568   10.520117556
    1.212186978    6.115447749    8.854543199   10.544029773
    1.219365609    6.125041510    8.877085639   10.566437861
    1.226544240    6.134506084    8.898451391   10.587646683
    1.233722871    6.143882034    8.918874971   10.607891675
    1.240901503    6.153201480    8.938540005   10.627357050
    1.248080134    6.162490264    8.957592122   10.646188773
    1.255258765    6.171769504    8.976148238   10.664503892
    1.262437396    6.181056738    8.994303309   10.682397336
    1.269616027    6.190366761    9.012135313   10.699946920
    1.276794658    6.199712258    9.029708958   10.717217081
    1.283973289    6.209104285    9.047078492   10.734261691
    1.291151920    6.218552636    9.064289836   10.751126212
    1.298330551    6.228066135    9.081382243   10.767849349
    1.305509182    6.237652869    9.098389583   10.784464350
    1.312687813    6.247320374    9.115341362   10.801000020
    1.319866444    6.257075793    9.132263535   10.817481532
    1.327045075    6.266926008    9.149179155   10.833931082
    1.334223706    6.276877756    9.166108911   10.850368414
    1.341402337    6.286937737    9.183071564   10.866811255
    1.348580968    6.297112708    9.200084316   10.883275680
    1.355759599    6.307409581    9.217163121   10.899776406
    1.362938230    6.317835517    9.234322957   10.916327062
    1.370116861    6.328398022    9.251578061   10.932940402
    1.377295492    6.339105059    9.268942146   10.949628516
    1.384474124    6.349965154    9.286428599   10.966402999
    1.391652755    6.360987535    9.304050674   10.983275128
    1.398831386    6.372182273    9.321821678   11.000256018
    1.406010017    6.383560461    9.339755163   11.017356782
    1.413188648    6.395134417    9.357865134   11.034588696
    1.420367279    6.406917928    9.376166265   11.051963372
    1.427545910    6.418926552    9.394674151   11.069492948
    1.434724541    6.431177980    9.413405594   11.087190301
    1.441903172    6.443692490    9.432378937   11.105069297
    1.449081803    6.456493507    9.451614475   11.123145084
    1.456260434    6.469608321    9.471134945   11.141434450
    1.463439065    6.483068986    9.490966145   11.159956262
    1.470617696    6.496913491    9.511137705   11.178732022
    1.477796327    6.511187279    9.531684080   11.197786569
    1.484974958    6.525945238    9.552645830   11.217148987
    1.492153589    6.541254357    9.574071300   11.236853807
    1.499332220    6.557197306    9.596018850   11.256942583
    1.506510851    6.573877303    9.618559852   11.277466041
    1.513689482    6.591424835    9.641782784   11.298486984
    1.520868114    6.610007036    9.665798867   11.320084331
    1.528046745    6.629840866    9.690749918   11.342358740
    1.535225376    6.651211715    9.716819381   11.365440500
    1.542404007    6.674499359    9.744247730   11.389500568
    1.549582638    6.700212682    9.773353504   11.414765524
    1.556761269    6.729029883    9.804559665   11.441535938
    1.563939900    6.761820309    9.838417363   11.470201260
    1.571118531    6.799541544    9.875587720   11.501218446
    1.578297162    6.842578709    9.916617314   11.534918802
    1.585475793    6.887800308    9.960847277   11.570600230
    1.592654424    6.917136497   10.001996540   11.602910251
    1.599833055    6.868267566   10.014942109   11.611597954
    1.607011686    6.670423189    9.952856383   11.564297785
    1.614190317    6.480563037    9.843307975   11.493771467
    1.621368948    6.439980408    9.801604678   11.475838792
    1.628547579    6.473057651    9.830127774   11.502697653
    1.635726210    6.519211670    9.870910737   11.537227341
    1.642904841    6.556750164    9.874106070   11.550583990
    1.650083472    6.580585002    9.821485156   11.532493065
    1.657262104    6.604434414    9.792601150   11.527364331
    1.664440735    6.633867351    9.815709435   11.551047419
    1.671619366    6.664090756    9.857322893   11.584976347
    1.678797997    6.692904650    9.900564273   11.619827194
    1.685976628    6.720118009    9.941495249   11.653476888
    1.693155259    6.746045284    9.979841488   11.685840300
    1.700333890    6.771055414   10.016082992   11.717254160
    1.707512521    6.795480669   10.050752008   11.748091094
    1.714691152    6.819613520   10.084294779   11.778688057
    1.721869783    6.843720237   10.117066227   11.809348545
    1.729048414    6.868048146   10.149350912   11.840355421
    1.736227045    6.892794967   10.181384284   11.871963003
    1.743405676    6.917926778   10.213365858   11.904295151
    1.750584307    6.942468536   10.245452054   11.936913261
    1.757762938    6.963143732   10.277725076   11.967976006
    1.764941569    6.978789814   10.310348923   11.997021920
    1.772120200    6.999414649   10.343860425   12.030632071
    1.779298831    7.028344816   10.378486007   12.071029664
    1.786477462    7.060510703   10.413669906   12.114170604
    1.793656093    7.087857453   10.446627400   12.149892045
    1.800834725    7.088656317   10.467678588   12.146569760
    1.808013356    7.036649699   10.464923509   12.065477596
    1.815191987    6.984589156   10.462487090   11.984292277
    1.822370618    6.985432046   10.484469415   11.981163117
    1.829549249    7.013095302   10.518970631   12.017602141
    1.836727880    7.046347580   10.556346518   12.062231582
    1.843906511    7.079193663   10.593902250   12.106166926
    1.851085142    7.110674324   10.631246453   12.147966005
    1.858263773    7.141015249   10.668541692   12.187943132
    1.865442404    7.170644250   10.706061046   12.226717028
    1.872621035    7.199976232   10.744091501   12.264886593
    1.879799666    7.229383830   10.782905950   12.302955307
    1.886978297    7.259198360   10.822678760   12.341197308
    1.894156928    7.289663749   10.863095626   12.379049198
    1.901335559    7.320698444   10.901902050   12.412846512
    1.908514190    7.351451663   10.932406348   12.431945827
    1.915692821    7.381937069   10.953115392   12.433854590
    1.922871452    7.415226240   10.982429668   12.447620389
    1.930050083    7.449231468   11.022351502   12.479156091
    1.937228715    7.470486549   11.055567321   12.512915857
    1.944407346    7.453037994   11.058350071   12.535741282
    1.951585977    7.413597053   11.043150550   12.551395903
    1.958764608    7.413538279   11.058505799   12.578235778
    1.965943239    7.445699997   11.098633892   12.614174381
    1.973121870    7.487651673   11.145592814   12.652526154
    1.980300501    7.531818602   11.193156241   12.691040754
    1.987479132    7.577064596   11.240105069   12.729353294
    1.994657763    7.623996755   11.286487397   12.767569180
    2.001836394    7.673610906   11.332591937   12.805881592
    2.009015025    7.726568470   11.378696273   12.844487947
    2.016193656    7.781236868   11.424960180   12.883580816
    2.023372287    7.826188848   11.471174103   12.923356489
    2.030550918    7.819469487   11.516066169   12.964026970
    2.037729549    7.703191119   11.557809367   13.005839075
    2.044908180    7.577360838   11.599936864   13.049114947
    2.052086811    7.562516204   11.646682370   13.094241660
    2.059265442    7.608065047   11.696467914   13.141598574
    2.066444073    7.666991040   11.747807169   13.191294139
    2.073622705    7.724097200   11.800107387   13.241960477
    2.080801336    7.772191690   11.852241016   13.286913379
    2.087979967    7.807412148   11.900752195   13.308385300
    2.095158598    7.836748686   11.941580045   13.288917576
    2.102337229    7.871659218   11.983586541   13.272555009
    2.109515860    7.917156227   12.036145945   13.303647465
    2.116694491    7.964810376   12.094534564   13.356442283
    2.123873122    8.001044383   12.153307969   13.399648663
    2.131051753    8.010790520   12.208120041   13.409163646
    2.138230384    8.016593839   12.261717814   13.412028361
    2.145409015    8.048842725   12.322717552   13.449119792
    2.152587646    8.096484469   12.390862114   13.507435326
    2.159766277    8.148274697   12.463495731   13.572064888
    2.166944908    8.201085049   12.540065141   13.638856710
    2.174123539    8.254672074   12.620847843   13.707354485
    2.181302170    8.309517247   12.705287653   13.776618991
    2.188480801    8.366221256   12.788158392   13.839999146
    2.195659432    8.425270621   12.852348786   13.876551323
    2.202838063    8.487455509   12.887682836   13.877131514
    2.210016694    8.554550710   12.923682329   13.892829719
    2.217195326    8.627155812   12.946753088   13.929373061
    2.224373957    8.703859222   12.974435784   13.978334527
    2.231552588    8.773498443   13.057081307   14.050182757
    2.238731219    8.790207602   13.160443691   14.112671445
    2.245909850    8.682388651   13.223478155   14.113970907
    2.253088481    8.546738286   13.220989926   14.068158890
    2.260267112    8.537084019   13.233621790   14.037282737
    2.267445743    8.608167789   13.304822370   14.034740728
    2.274624374    8.702017258   13.419108243   14.081983872
    2.281803005    8.790735329   13.505174771   14.125525757
    2.288981636    8.856338570   13.479655704   14.106543601
    2.296160267    8.909418331   13.387201150   14.075897913
    2.303338898    8.982041521   13.365564414   14.093026657
    2.310517529    9.081750246   13.470470807   14.160621940
    2.317696160    9.178694826   13.618669766   14.247038278
    2.324874791    9.201697645   13.692754830   14.324498329
    2.332053422    9.060522556   13.575710198   14.375304583
    2.339232053    8.903156314   13.425399706   14.421709352
    2.346410684    8.915734623   13.462356915   14.491780573
    2.353589316    9.023780563   13.599129628   14.573090585
    2.360767947    9.153332960   13.737393956   14.650614033
    2.367946578    9.268839633   13.861027656   14.720631852
    2.375125209    9.318475115   14.000700651   14.781104466
    2.382303840    9.261023117   14.150025107   14.817723237
    2.389482471    9.225909476   14.298056083   14.848993857
    2.396661102    9.291443082   14.437097520   14.880295213
    2.403839733    9.404981037   14.582681648   14.924672175
    2.411018364    9.538266033   14.757353519   15.002233172
    2.418196995    9.679099264   14.953249952   15.095397743
    2.425375626    9.817018359   15.154211348   15.184028803
    2.432554257    9.932410033   15.334937996   15.244430420
    2.439732888   10.014987534   15.498334146   15.275199962
    2.446911519   10.073370260   15.684461363   15.306616033
    2.454090150   10.143165076   15.887813100   15.354635326
    2.461268781   10.248110193   16.019952148   15.424247695
    2.468447412   10.246158140   15.836124897   15.467626202
    2.475626043    9.979504845   15.202949965   15.467555004
    2.482804674    9.715677253   14.681865066   15.487573083
    2.489983306    9.694395166   14.632159591   15.521140451
    2.497161937    9.784448918   14.784670673   15.543886342
    2.504340568    9.938212621   15.054104735   15.606699414
    2.511519199   10.106740851   15.342633263   15.703956813
    2.518697830   10.210582769   15.451293288   15.804233868
    2.525876461   10.238943780   15.207135315   15.896631481
    2.533055092   10.324736571   14.940637314   15.988839704
    2.540233723   10.486724177   14.986879586   16.069777116
