# energy grid [eV]     ieps_x  ieps_y  ieps_z
#
    0.200000000    9.924923588    9.901657164    1.040062362
    0.207178631    9.922741721    9.899511935    1.040053623
    0.214357262    9.920484115    9.897292214    1.040044579
    0.221535893    9.918150894    9.894998117    1.040035233
    0.228714524    9.915742185    9.892629768    1.040025583
    0.235893155    9.913258118    9.890187292    1.040015630
    0.243071786    9.910698829    9.887670820    1.040005375
    0.250250417    9.908064457    9.885080484    1.039994818
    0.257429048    9.905355145    9.882416423    1.039983960
    0.264607679    9.902571040    9.879678777    1.039972801
    0.271786311    9.899712292    9.876867691    1.039961341
    0.278964942    9.896779056    9.873983315    1.039949582
    0.286143573    9.893771491    9.871025800    1.039937523
    0.293322204    9.890689758    9.867995303    1.039925166
    0.300500835    9.887534025    9.864891983    1.039912510
    0.307679466    9.884304460    9.861716004    1.039899557
    0.314858097    9.881001238    9.858467532    1.039886307
    0.322036728    9.877624535    9.855146739    1.039872761
    0.329215359    9.874174533    9.851753799    1.039858919
    0.336393990    9.870651416    9.848288888    1.039844782
    0.343572621    9.867055373    9.844752189    1.039830350
    0.350751252    9.863386596    9.841143887    1.039815624
    0.357929883    9.859645281    9.837464168    1.039800606
    0.365108514    9.855831626    9.833713226    1.039785295
    0.372287145    9.851945834    9.829891255    1.039769692
    0.379465776    9.847988112    9.825998454    1.039753798
    0.386644407    9.843958668    9.822035024    1.039737613
    0.393823038    9.839857718    9.818001171    1.039721139
    0.401001669    9.835685476    9.813897103    1.039704377
    0.408180301    9.831442163    9.809723032    1.039687326
    0.415358932    9.827128002    9.805479174    1.039669987
    0.422537563    9.822743220    9.801165746    1.039652363
    0.429716194    9.818288048    9.796782969    1.039634452
    0.436894825    9.813762717    9.792331070    1.039616257
    0.444073456    9.809167465    9.787810275    1.039597777
    0.451252087    9.804502532    9.783220815    1.039579014
    0.458430718    9.799768160    9.778562924    1.039559968
    0.465609349    9.794964595    9.773836841    1.039540641
    0.472787980    9.790092087    9.769042803    1.039521034
    0.479966611    9.785150888    9.764181055    1.039501146
    0.487145242    9.780141253    9.759251844    1.039480979
    0.494323873    9.775063440    9.754255416    1.039460534
    0.501502504    9.769917711    9.749192025    1.039439812
    0.508681135    9.764704330    9.744061926    1.039418814
    0.515859766    9.759423564    9.738865375    1.039397540
    0.523038397    9.754075683    9.733602634    1.039375992
    0.530217028    9.748660961    9.728273965    1.039354170
    0.537395659    9.743179671    9.722879634    1.039332076
    0.544574290    9.737632094    9.717419909    1.039309710
    0.551752922    9.732018510    9.711895063    1.039287074
    0.558931553    9.726339203    9.706305369    1.039264168
    0.566110184    9.720594460    9.700651103    1.039240994
    0.573288815    9.714784569    9.694932544    1.039217552
    0.580467446    9.708909823    9.689149974    1.039193843
    0.587646077    9.702970516    9.683303677    1.039169869
    0.594824708    9.696966944    9.677393939    1.039145630
    0.602003339    9.690899407    9.671421049    1.039121128
    0.609181970    9.684768207    9.665385299    1.039096364
    0.616360601    9.678573647    9.659286983    1.039071338
    0.623539232    9.672316034    9.653126395    1.039046052
    0.630717863    9.665995677    9.646903835    1.039020507
    0.637896494    9.659612887    9.640619603    1.038994704
    0.645075125    9.653167978    9.634274002    1.038968644
    0.652253756    9.646661264    9.627867336    1.038942328
    0.659432387    9.640093065    9.621399912    1.038915757
    0.666611018    9.633463698    9.614872041    1.038888933
    0.673789649    9.626773487    9.608284032    1.038861856
    0.680968280    9.620022756    9.601636200    1.038834528
    0.688146912    9.613211829    9.594928859    1.038806949
    0.695325543    9.606341037    9.588162326    1.038779122
    0.702504174    9.599410708    9.581336921    1.038751047
    0.709682805    9.592421174    9.574452964    1.038722725
    0.716861436    9.585372769    9.567510779    1.038694157
    0.724040067    9.578265829    9.560510690    1.038665345
    0.731218698    9.571100691    9.553453023    1.038636291
    0.738397329    9.563877694    9.546338106    1.038606994
    0.745575960    9.556597178    9.539166270    1.038577457
    0.752754591    9.549259487    9.531937846    1.038547680
    0.759933222    9.541864965    9.524653167    1.038517665
    0.767111853    9.534413956    9.517312567    1.038487412
    0.774290484    9.526906809    9.509916383    1.038456925
    0.781469115    9.519343872    9.502464953    1.038426202
    0.788647746    9.511725495    9.494958616    1.038395246
    0.795826377    9.504052030    9.487397712    1.038364059
    0.803005008    9.496323831    9.479782585    1.038332640
    0.810183639    9.488541251    9.472113576    1.038300992
    0.817362270    9.480704646    9.464391031    1.038269116
    0.824540902    9.472814374    9.456615297    1.038237013
    0.831719533    9.464870792    9.448786720    1.038204685
    0.838898164    9.456874261    9.440905649    1.038172132
    0.846076795    9.448825141    9.432972433    1.038139355
    0.853255426    9.440723793    9.424987425    1.038106358
    0.860434057    9.432570581    9.416950975    1.038073140
    0.867612688    9.424365868    9.408863437    1.038039702
    0.874791319    9.416110020    9.400725165    1.038006047
    0.881969950    9.407803403    9.392536514    1.037972176
    0.889148581    9.399446383    9.384297840    1.037938089
    0.896327212    9.391039328    9.376009501    1.037903789
    0.903505843    9.382582608    9.367671854    1.037869276
    0.910684474    9.374076591    9.359285258    1.037834552
    0.917863105    9.365521648    9.350850073    1.037799618
    0.925041736    9.356918149    9.342366659    1.037764476
    0.932220367    9.348266468    9.333835378    1.037729126
    0.939398998    9.339566975    9.325256591    1.037693571
    0.946577629    9.330820046    9.316630661    1.037657812
    0.953756260    9.322026052    9.307957951    1.037621850
    0.960934891    9.313185369    9.299238826    1.037585686
    0.968113523    9.304298371    9.290473649    1.037549322
    0.975292154    9.295365434    9.281662786    1.037512759
    0.982470785    9.286386934    9.272806602    1.037475999
    0.989649416    9.277363247    9.263905464    1.037439042
    0.996828047    9.268294749    9.254959738    1.037401891
    1.004006678    9.259181819    9.245969790    1.037364547
    1.011185309    9.250024833    9.236935989    1.037327010
    1.018363940    9.240824169    9.227858702    1.037289283
    1.025542571    9.231580205    9.218738296    1.037251367
    1.032721202    9.222293319    9.209575141    1.037213264
    1.039899833    9.212963890    9.200369604    1.037174974
    1.047078464    9.203592297    9.191122055    1.037136499
    1.054257095    9.194178918    9.181832862    1.037097840
    1.061435726    9.184724131    9.172502395    1.037059000
    1.068614357    9.175228317    9.163131022    1.037019978
    1.075792988    9.165691854    9.153719114    1.036980778
    1.082971619    9.156115121    9.144267040    1.036941399
    1.090150250    9.146498496    9.134775169    1.036901844
    1.097328881    9.136842360    9.125243870    1.036862115
    1.104507513    9.127147090    9.115673514    1.036822211
    1.111686144    9.117413065    9.106064469    1.036782135
    1.118864775    9.107640665    9.096417105    1.036741889
    1.126043406    9.097830267    9.086731791    1.036701473
    1.133222037    9.087982249    9.077008897    1.036660889
    1.140400668    9.078096990    9.067248791    1.036620139
    1.147579299    9.068174867    9.057451841    1.036579224
    1.154757930    9.058216258    9.047618417    1.036538145
    1.161936561    9.048221539    9.037748887    1.036496904
    1.169115192    9.038191088    9.027843619    1.036455501
    1.176293823    9.028125281    9.017902980    1.036413940
    1.183472454    9.018024493    9.007927338    1.036372221
    1.190651085    9.007889101    8.997917059    1.036330345
    1.197829716    8.997719479    8.987872511    1.036288314
    1.205008347    8.987516002    8.977794060    1.036246129
    1.212186978    8.977279043    8.967682071    1.036203792
    1.219365609    8.967008978    8.957536910    1.036161304
    1.226544240    8.956706177    8.947358941    1.036118667
    1.233722871    8.946371015    8.937148529    1.036075881
    1.240901503    8.936003862    8.926906038    1.036032949
    1.248080134    8.925605089    8.916631830    1.035989872
    1.255258765    8.915175068    8.906326269    1.035946651
    1.262437396    8.904714167    8.895989716    1.035903288
    1.269616027    8.894222757    8.885622533    1.035859784
    1.276794658    8.883701204    8.875225080    1.035816141
    1.283973289    8.873149877    8.864797718    1.035772359
    1.291151920    8.862569143    8.854340806    1.035728441
    1.298330551    8.851959367    8.843854702    1.035684388
    1.305509182    8.841320915    8.833339764    1.035640201
    1.312687813    8.830654150    8.822796350    1.035595881
    1.319866444    8.819959436    8.812224815    1.035551430
    1.327045075    8.809237137    8.801625516    1.035506850
    1.334223706    8.798487612    8.790998806    1.035462142
    1.341402337    8.787711223    8.780345040    1.035417306
    1.348580968    8.776908330    8.769664570    1.035372346
    1.355759599    8.766079291    8.758957749    1.035327261
    1.362938230    8.755224465    8.748224927    1.035282054
    1.370116861    8.744344206    8.737466455    1.035236725
    1.377295492    8.733438872    8.726682682    1.035191277
    1.384474124    8.722508817    8.715873956    1.035145711
    1.391652755    8.711554395    8.705040624    1.035100027
    1.398831386    8.700575957    8.694183033    1.035054228
    1.406010017    8.689573856    8.683301527    1.035008314
    1.413188648    8.678548440    8.672396452    1.034962288
    1.420367279    8.667500061    8.661468150    1.034916150
    1.427545910    8.656429064    8.650516962    1.034869902
    1.434724541    8.645335797    8.639543231    1.034823545
    1.441903172    8.634220606    8.628547295    1.034777081
    1.449081803    8.623083835    8.617529494    1.034730511
    1.456260434    8.611925826    8.606490165    1.034683836
    1.463439065    8.600746922    8.595429643    1.034637057
    1.470617696    8.589547463    8.584348266    1.034590177
    1.477796327    8.578327788    8.573246365    1.034543197
    1.484974958    8.567088235    8.562124275    1.034496117
    1.492153589    8.555829142    8.550982327    1.034448939
    1.499332220    8.544550843    8.539820850    1.034401664
    1.506510851    8.533253672    8.528640174    1.034354295
    1.513689482    8.521937963    8.517440628    1.034306831
    1.520868114    8.510604045    8.506222536    1.034259275
    1.528046745    8.499252250    8.494986225    1.034211627
    1.535225376    8.487882906    8.483732019    1.034163890
    1.542404007    8.476496340    8.472460240    1.034116064
    1.549582638    8.465092877    8.461171209    1.034068151
    1.556761269    8.453672843    8.449865246    1.034020152
    1.563939900    8.442236559    8.438542669    1.033972068
    1.571118531    8.430784348    8.427203797    1.033923901
    1.578297162    8.419316529    8.415848945    1.033875652
    1.585475793    8.407833421    8.404478426    1.033827322
    1.592654424    8.396335341    8.393092555    1.033778912
    1.599833055    8.384822605    8.381691643    1.033730424
    1.607011686    8.373295525    8.370276000    1.033681860
    1.614190317    8.361754416    8.358845934    1.033633220
    1.621368948    8.350199588    8.347401754    1.033584505
    1.628547579    8.338631351    8.335943765    1.033535717
    1.635726210    8.327050012    8.324472271    1.033486858
    1.642904841    8.315455878    8.312987575    1.033437928
    1.650083472    8.303849254    8.301489979    1.033388928
    1.657262104    8.292230444    8.289979783    1.033339861
    1.664440735    8.280599748    8.278457286    1.033290726
    1.671619366    8.268957467    8.266922783    1.033241526
    1.678797997    8.257303900    8.255376571    1.033192262
    1.685976628    8.245639344    8.243818944    1.033142935
    1.693155259    8.233964093    8.232250195    1.033093545
    1.700333890    8.222278443    8.220670613    1.033044095
    1.707512521    8.210582685    8.209080489    1.032994586
    1.714691152    8.198877110    8.197480110    1.032945018
    1.721869783    8.187162006    8.185869762    1.032895393
    1.729048414    8.175437661    8.174249731    1.032845712
    1.736227045    8.163704361    8.162620300    1.032795977
    1.743405676    8.151962390    8.150981749    1.032746188
    1.750584307    8.140212031    8.139334359    1.032696347
    1.757762938    8.128453563    8.127678409    1.032646454
    1.764941569    8.116687266    8.116014175    1.032596512
    1.772120200    8.104913418    8.104341933    1.032546521
    1.779298831    8.093132295    8.092661956    1.032496482
    1.786477462    8.081344170    8.080974517    1.032446397
    1.793656093    8.069549316    8.069279885    1.032396266
    1.800834725    8.057748004    8.057578330    1.032346092
    1.808013356    8.045940503    8.045870119    1.032295874
    1.815191987    8.034127081    8.034155517    1.032245614
    1.822370618    8.022308003    8.022434789    1.032195314
    1.829549249    8.010483534    8.010708198    1.032144974
    1.836727880    7.998653936    7.998976003    1.032094595
    1.843906511    7.986819469    7.987238464    1.032044179
    1.851085142    7.974980393    7.975495838    1.031993727
    1.858263773    7.963136965    7.963748382    1.031943239
    1.865442404    7.951289441    7.951996349    1.031892717
    1.872621035    7.939438075    7.940239993    1.031842163
    1.879799666    7.927583119    7.928479565    1.031791576
    1.886978297    7.915724824    7.916715313    1.031740958
    1.894156928    7.903863438    7.904947485    1.031690311
    1.901335559    7.891999209    7.893176328    1.031639635
    1.908514190    7.880132382    7.881402086    1.031588931
    1.915692821    7.868263202    7.869625002    1.031538200
    1.922871452    7.856391910    7.857845317    1.031487444
    1.930050083    7.844518746    7.846063270    1.031436663
    1.937228715    7.832643950    7.834279100    1.031385859
    1.944407346    7.820767759    7.822493042    1.031335033
    1.951585977    7.808890407    7.810705332    1.031284184
    1.958764608    7.797012129    7.798916201    1.031233316
    1.965943239    7.785133157    7.787125883    1.031182428
    1.973121870    7.773253720    7.775334605    1.031131522
    1.980300501    7.761374048    7.763542596    1.031080598
    1.987479132    7.749494366    7.751750083    1.031029657
    1.994657763    7.737614901    7.739957291    1.030978702
    2.001836394    7.725735877    7.728164442    1.030927732
    2.009015025    7.713857513    7.716371757    1.030876748
    2.016193656    7.701980032    7.704579458    1.030825752
    2.023372287    7.690103651    7.692787761    1.030774744
    2.030550918    7.678228587    7.680996884    1.030723726
    2.037729549    7.666355056    7.669207041    1.030672698
    2.044908180    7.654483270    7.657418446    1.030621661
    2.052086811    7.642613441    7.645631310    1.030570617
    2.059265442    7.630745780    7.633845843    1.030519566
    2.066444073    7.618880495    7.622062255    1.030468508
    2.073622705    7.607017793    7.610280751    1.030417446
    2.080801336    7.595157879    7.598501537    1.030366380
    2.087979967    7.583300956    7.586724816    1.030315311
    2.095158598    7.571447226    7.574950791    1.030264239
    2.102337229    7.559596889    7.563179661    1.030213166
    2.109515860    7.547750144    7.551411626    1.030162093
    2.116694491    7.535907187    7.539646882    1.030111020
    2.123873122    7.524068215    7.527885626    1.030059949
    2.131051753    7.512233419    7.516128050    1.030008879
    2.138230384    7.500402994    7.504374348    1.029957813
    2.145409015    7.488577127    7.492624710    1.029906750
    2.152587646    7.476756010    7.480879326    1.029855692
    2.159766277    7.464939827    7.469138382    1.029804640
    2.166944908    7.453128766    7.457402065    1.029753595
    2.174123539    7.441323009    7.445670559    1.029702556
    2.181302170    7.429522740    7.433944048    1.029651526
    2.188480801    7.417728138    7.422222712    1.029600504
    2.195659432    7.405939383    7.410506731    1.029549493
    2.202838063    7.394156653    7.398796284    1.029498492
    2.210016694    7.382380122    7.387091546    1.029447502
    2.217195326    7.370609966    7.375392694    1.029396525
    2.224373957    7.358846358    7.363699900    1.029345560
    2.231552588    7.347089467    7.352013336    1.029294609
    2.238731219    7.335339465    7.340333174    1.029243673
    2.245909850    7.323596519    7.328659581    1.029192752
    2.253088481    7.311860795    7.316992726    1.029141848
    2.260267112    7.300132459    7.305332773    1.029090960
    2.267445743    7.288411673    7.293679888    1.029040089
    2.274624374    7.276698600    7.282034234    1.028989237
    2.281803005    7.264993401    7.270395971    1.028938404
    2.288981636    7.253296233    7.258765260    1.028887591
    2.296160267    7.241607254    7.247142258    1.028836799
    2.303338898    7.229926620    7.235527123    1.028786028
    2.310517529    7.218254485    7.223920010    1.028735279
    2.317696160    7.206591002    7.212321073    1.028684552
    2.324874791    7.194936323    7.200730465    1.028633850
    2.332053422    7.183290596    7.189148335    1.028583171
    2.339232053    7.171653970    7.177574835    1.028532517
    2.346410684    7.160026593    7.166010111    1.028481889
    2.353589316    7.148408608    7.154454310    1.028431287
    2.360767947    7.136800162    7.142907579    1.028380712
    2.367946578    7.125201394    7.131370059    1.028330164
    2.375125209    7.113612448    7.119841894    1.028279645
    2.382303840    7.102033461    7.108323224    1.028229155
    2.389482471    7.090464573    7.096814189    1.028178694
    2.396661102    7.078905919    7.085314926    1.028128264
    2.403839733    7.067357636    7.073825573    1.028077864
    2.411018364    7.055819856    7.062346265    1.028027496
    2.418196995    7.044292713    7.050877135    1.027977160
    2.425375626    7.032776337    7.039418316    1.027926857
    2.432554257    7.021270858    7.027969938    1.027876588
    2.439732888    7.009776404    7.016532133    1.027826352
    2.446911519    6.998293102    7.005105026    1.027776152
    2.454090150    6.986821077    6.993688747    1.027725986
    2.461268781    6.975360453    6.982283420    1.027675856
    2.468447412    6.963911353    6.970889170    1.027625763
    2.475626043    6.952473899    6.959506118    1.027575707
    2.482804674    6.941048210    6.948134388    1.027525689
    2.489983306    6.929634405    6.936774099    1.027475708
    2.497161937    6.918232601    6.925425370    1.027425767
    2.504340568    6.906842915    6.914088319    1.027375865
    2.511519199    6.895465460    6.902763062    1.027326003
    2.518697830    6.884100351    6.891449713    1.027276181
    2.525876461    6.872747699    6.880148387    1.027226401
    2.533055092    6.861407615    6.868859196    1.027176662
    2.540233723    6.850080208    6.857582251    1.027126965
