# energy grid [eV]     epsr_x  epsr_y  epsr_z
#
    0.200000000   15.295998382    7.143462562   15.252053274
    0.207178631   15.299451487    7.144569820   15.255499476
    0.214357262   15.303028247    7.145716567   15.259069091
    0.221535893   15.306728860    7.146902849   15.262762318
    0.228714524   15.310553532    7.148128715   15.266579364
    0.235893155   15.314502477    7.149394214   15.270520442
    0.243071786   15.318575915    7.150699399   15.274585772
    0.250250417   15.322774073    7.152044323   15.278775583
    0.257429048   15.327097187    7.153429040   15.283090108
    0.264607679   15.331545497    7.154853607   15.287529591
    0.271786311   15.336119253    7.156318083   15.292094280
    0.278964942   15.340818711    7.157822528   15.296784433
    0.286143573   15.345644136    7.159367002   15.301600314
    0.293322204   15.350595799    7.160951570   15.306542194
    0.300500835   15.355673978    7.162576297   15.311610352
    0.307679466   15.360878959    7.164241250   15.316805075
    0.314858097   15.366211036    7.165946496   15.322126656
    0.322036728   15.371670511    7.167692106   15.327575398
    0.329215359   15.377257692    7.169478152   15.333151610
    0.336393990   15.382972896    7.171304708   15.338855608
    0.343572621   15.388816446    7.173171850   15.344687718
    0.350751252   15.394788676    7.175079653   15.350648271
    0.357929883   15.400889924    7.177028198   15.356737608
    0.365108514   15.407120539    7.179017566   15.362956078
    0.372287145   15.413480876    7.181047837   15.369304035
    0.379465776   15.419971299    7.183119098   15.375781845
    0.386644407   15.426592179    7.185231433   15.382389879
    0.393823038   15.433343896    7.187384932   15.389128517
    0.401001669   15.440226838    7.189579683   15.395998149
    0.408180301   15.447241400    7.191815778   15.402999170
    0.415358932   15.454387988    7.194093311   15.410131985
    0.422537563   15.461667014    7.196412377   15.417397009
    0.429716194   15.469078899    7.198773072   15.424794661
    0.436894825   15.476624072    7.201175497   15.432325374
    0.444073456   15.484302972    7.203619751   15.439989585
    0.451252087   15.492116045    7.206105938   15.447787741
    0.458430718   15.500063747    7.208634162   15.455720300
    0.465609349   15.508146542    7.211204530   15.463787725
    0.472787980   15.516364903    7.213817150   15.471990490
    0.479966611   15.524719311    7.216472132   15.480329078
    0.487145242   15.533210258    7.219169590   15.488803981
    0.494323873   15.541838243    7.221909638   15.497415699
    0.501502504   15.550603776    7.224692391   15.506164743
    0.508681135   15.559507374    7.227517968   15.515051631
    0.515859766   15.568549566    7.230386490   15.524076891
    0.523038397   15.577730889    7.233298079   15.533241062
    0.530217028   15.587051888    7.236252859   15.542544692
    0.537395659   15.596513120    7.239250957   15.551988337
    0.544574290   15.606115151    7.242292501   15.561572563
    0.551752922   15.615858557    7.245377622   15.571297948
    0.558931553   15.625743922    7.248506452   15.581165078
    0.566110184   15.635771842    7.251679127   15.591174550
    0.573288815   15.645942922    7.254895783   15.601326969
    0.580467446   15.656257779    7.258156560   15.611622953
    0.587646077   15.666717037    7.261461598   15.622063129
    0.594824708   15.677321334    7.264811041   15.632648133
    0.602003339   15.688071316    7.268205034   15.643378615
    0.609181970   15.698967639    7.271643726   15.654255232
    0.616360601   15.710010974    7.275127266   15.665278655
    0.623539232   15.721201997    7.278655807   15.676449562
    0.630717863   15.732541399    7.282229503   15.687768646
    0.637896494   15.744029881    7.285848510   15.699236609
    0.645075125   15.755668155    7.289512989   15.710854165
    0.652253756   15.767456945    7.293223100   15.722622037
    0.659432387   15.779396984    7.296979007   15.734540964
    0.666611018   15.791489021    7.300780877   15.746611692
    0.673789649   15.803733812    7.304628877   15.758834981
    0.680968280   15.816132128    7.308523179   15.771211604
    0.688146912   15.828684751    7.312463957   15.783742344
    0.695325543   15.841392475    7.316451384   15.796427997
    0.702504174   15.854256107    7.320485641   15.809269370
    0.709682805   15.867276464    7.324566907   15.822267286
    0.716861436   15.880454379    7.328695366   15.835422577
    0.724040067   15.893790696    7.332871204   15.848736089
    0.731218698   15.907286271    7.337094609   15.862208681
    0.738397329   15.920941975    7.341365771   15.875841226
    0.745575960   15.934758691    7.345684884   15.889634609
    0.752754591   15.948737315    7.350052145   15.903589728
    0.759933222   15.962878758    7.354467751   15.917707496
    0.767111853   15.977183944    7.358931905   15.931988840
    0.774290484   15.991653809    7.363444810   15.946434700
    0.781469115   16.006289307    7.368006674   15.961046029
    0.788647746   16.021091403    7.372617705   15.975823797
    0.795826377   16.036061078    7.377278116   15.990768987
    0.803005008   16.051199327    7.381988123   16.005882596
    0.810183639   16.066507159    7.386747943   16.021165637
    0.817362270   16.081985600    7.391557797   16.036619139
    0.824540902   16.097635690    7.396417909   16.052244144
    0.831719533   16.113458485    7.401328505   16.068041711
    0.838898164   16.129455056    7.406289816   16.084012915
    0.846076795   16.145626490    7.411302073   16.100158846
    0.853255426   16.161973890    7.416365513   16.116480610
    0.860434057   16.178498377    7.421480374   16.132979331
    0.867612688   16.195201086    7.426646897   16.149656148
    0.874791319   16.212083170    7.431865328   16.166512218
    0.881969950   16.229145799    7.437135914   16.183548714
    0.889148581   16.246390161    7.442458907   16.200766828
    0.896327212   16.263817460    7.447834561   16.218167768
    0.903505843   16.281428919    7.453263133   16.235752762
    0.910684474   16.299225779    7.458744884   16.253523053
    0.917863105   16.317209297    7.464280079   16.271479905
    0.925041736   16.335380749    7.469868985   16.289624594
    0.932220367   16.353741414    7.475511873   16.307958407
    0.939398998   16.372292574    7.481209017   16.326482622
    0.946577629   16.391035573    7.486960694   16.345198593
    0.953756260   16.409971854    7.492767187   16.364107774
    0.960934891   16.429102789    7.498628780   16.383211545
    0.968113523   16.448429741    7.504545762   16.402511267
    0.975292154   16.467954111    7.510518424   16.422008348
    0.982470785   16.487677333    7.516547062   16.441704225
    0.989649416   16.507600862    7.522631975   16.461600361
    0.996828047   16.527726179    7.528773467   16.481698240
    1.004006678   16.548054784    7.534971844   16.501999370
    1.011185309   16.568588200    7.541227417   16.522505279
    1.018363940   16.589327973    7.547540501   16.543217520
    1.025542571   16.610275671    7.553911415   16.564137667
    1.032721202   16.631432886    7.560340480   16.585267318
    1.039899833   16.652801233    7.566828023   16.606608097
    1.047078464   16.674382353    7.573374376   16.628161650
    1.054257095   16.696177908    7.579979872   16.649929647
    1.061435726   16.718189589    7.586644850   16.671913786
    1.068614357   16.740419109    7.593369654   16.694115788
    1.075792988   16.762868208    7.600154631   16.716537400
    1.082971619   16.785538652    7.607000132   16.739180397
    1.090150250   16.808432233    7.613906514   16.762046579
    1.097328881   16.831550772    7.620874137   16.785137775
    1.104507513   16.854896116    7.627903366   16.808455841
    1.111686144   16.878470138    7.634994570   16.832002660
    1.118864775   16.902274744    7.642148124   16.855780145
    1.126043406   16.926311866    7.649364407   16.879790240
    1.133222037   16.950583464    7.656643801   16.904034914
    1.140400668   16.975091532    7.663986695   16.928516171
    1.147579299   16.999838092    7.671393483   16.953236043
    1.154757930   17.024825196    7.678864562   16.978196593
    1.161936561   17.050054929    7.686400334   17.003399918
    1.169115192   17.075529410    7.694001209   17.028848145
    1.176293823   17.101250786    7.701667599   17.054543437
    1.183472454   17.127221242    7.709399922   17.080487987
    1.190651085   17.153442993    7.717198602   17.106684026
    1.197829716   17.179918292    7.725064068   17.133133817
    1.205008347   17.206649425    7.732996753   17.159839659
    1.212186978   17.233638713    7.740997097   17.186803889
    1.219365609   17.260888516    7.749065546   17.214028878
    1.226544240   17.288401229    7.757202549   17.241517036
    1.233722871   17.316179285    7.765408564   17.269270812
    1.240901503   17.344225157    7.773684052   17.297292694
    1.248080134   17.372541357    7.782029481   17.325585206
    1.255258765   17.401130434    7.790445325   17.354150918
    1.262437396   17.429994982    7.798932064   17.382992437
    1.269616027   17.459137633    7.807490183   17.412112414
    1.276794658   17.488561064    7.816120175   17.441513542
    1.283973289   17.518267993    7.824822538   17.471198557
    1.291151920   17.548261184    7.833597776   17.501170243
    1.298330551   17.578543444    7.842446401   17.531431424
    1.305509182   17.609117627    7.851368929   17.561984975
    1.312687813   17.639986632    7.860365885   17.592833816
    1.319866444   17.671153409    7.869437799   17.623980916
    1.327045075   17.702620952    7.878585210   17.655429291
    1.334223706   17.734392307    7.887808661   17.687182011
    1.341402337   17.766470572    7.897108704   17.719242194
    1.348580968   17.798858892    7.906485897   17.751613011
    1.355759599   17.831560470    7.915940807   17.784297687
    1.362938230   17.864578558    7.925474006   17.817299500
    1.370116861   17.897916466    7.935086074   17.850621786
    1.377295492   17.931577558    7.944777599   17.884267935
    1.384474124   17.965565256    7.954549178   17.918241397
    1.391652755   17.999883039    7.964401413   17.952545679
    1.398831386   18.034534447    7.974334915   17.987184350
    1.406010017   18.069523081    7.984350303   18.022161041
    1.413188648   18.104852603    7.994448205   18.057479445
    1.420367279   18.140526738    8.004629257   18.093143318
    1.427545910   18.176549277    8.014894101   18.129156486
    1.434724541   18.212924077    8.025243390   18.165522837
    1.441903172   18.249655061    8.035677785   18.202246333
    1.449081803   18.286746224    8.046197956   18.239331002
    1.456260434   18.324201630    8.056804580   18.276780945
    1.463439065   18.362025414    8.067498347   18.314600338
    1.470617696   18.400221788    8.078279951   18.352793430
    1.477796327   18.438795036    8.089150099   18.391364549
    1.484974958   18.477749522    8.100109507   18.430318099
    1.492153589   18.517089687    8.111158900   18.469658567
    1.499332220   18.556820055    8.122299012   18.509390519
    1.506510851   18.596945231    8.133530587   18.549518609
    1.513689482   18.637469905    8.144854382   18.590047573
    1.520868114   18.678398853    8.156271160   18.630982240
    1.528046745   18.719736941    8.167781697   18.672327525
    1.535225376   18.761489125    8.179386775   18.714088437
    1.542404007   18.803660452    8.191087183   18.756270078
    1.549582638   18.846256067    8.202883732   18.798877649
    1.556761269   18.889281208    8.214777257   18.841916450
    1.563939900   18.932741204    8.226768580   18.885391868
    1.571118531   18.976641475    8.238858522   18.929309384
    1.578297162   19.020987578    8.251047946   18.973674614
    1.585475793   19.065785222    8.263337746   19.018493342
    1.592654424   19.111040179    8.275728793   19.063771414
    1.599833055   19.156758303    8.288221964   19.109514755
    1.607011686   19.202945576    8.300818158   19.155729416
    1.614190317   19.249608105    8.313518289   19.202421583
    1.621368948   19.296752124    8.326323283   19.249597566
    1.628547579   19.344383989    8.339234080   19.297263805
    1.635726210   19.392510185    8.352251636   19.345426869
    1.642904841   19.441137329    8.365376916   19.394093464
    1.650083472   19.490272170    8.378610902   19.443270430
    1.657262104   19.539921598    8.391954590   19.492964751
    1.664440735   19.590092643    8.405408987   19.543183555
    1.671619366   19.640792480    8.418975120   19.593934119
    1.678797997   19.692028434    8.432654025   19.645223874
    1.685976628   19.743807985    8.446446758   19.697060405
    1.693155259   19.796138763    8.460354387   19.749451457
    1.700333890   19.849028548    8.474377996   19.802404928
    1.707512521   19.902485267    8.488518688   19.855928862
    1.714691152   19.956517070    8.502777578   19.910031539
    1.721869783   20.011132367    8.517155799   19.964721498
    1.729048414   20.066339639    8.531654501   20.020007358
    1.736227045   20.122147511    8.546274849   20.075897882
    1.743405676   20.178564828    8.561018030   20.132402065
    1.750584307   20.235600690    8.575885251   20.189529154
    1.757762938   20.293264394    8.590877732   20.247288602
    1.764941569   20.351565402    8.605996708   20.305690033
    1.772120200   20.410513391    8.621243439   20.364743295
    1.779298831   20.470118273    8.636619201   20.424458477
    1.786477462   20.530390187    8.652125291   20.484845902
    1.793656093   20.591339509    8.667763026   20.545916134
    1.800834725   20.652976851    8.683533740   20.607679986
    1.808013356   20.715313063    8.699438789   20.670148511
    1.815191987   20.778359225    8.715479549   20.733333009
    1.822370618   20.842126734    8.731657424   20.797245097
    1.829549249   20.906627361    8.747973842   20.861896771
    1.836727880   20.971873055    8.764430245   20.927300220
    1.843906511   21.037876007    8.781028098   20.993467888
    1.851085142   21.104648728    8.797768889   21.060412555
    1.858263773   21.172204034    8.814654133   21.128147319
    1.865442404   21.240555021    8.831685367   21.196685589
    1.872621035   21.309715158    8.848864152   21.266041130
    1.879799666   21.379698432    8.866192079   21.336228122
    1.886978297   21.450519045    8.883670761   21.407261047
    1.894156928   21.522191565    8.901301837   21.479154917
    1.901335559   21.594730943    8.919086977   21.551925096
    1.908514190   21.668152458    8.937027874   21.625587197
    1.915692821   21.742471807    8.955126247   21.700157281
    1.922871452   21.817705103    8.973383844   21.775651857
    1.930050083   21.893868821    8.991802426   21.852087836
    1.937228715   21.970979819    9.010383772   21.929482512
    1.944407346   22.049055785    9.029129748   22.007853936
    1.951585977   22.128115064    9.048042295   22.087220954
    1.958764608   22.208176032    9.067123308   22.167602492
    1.965943239   22.289257529    9.086374692   22.249017883
    1.973121870   22.371379040    9.105798402   22.331487151
    1.980300501   22.454560711    9.125396435   22.415031052
    1.987479132   22.538823227    9.145170833   22.499670871
    1.994657763   22.624187850    9.165123671   22.585428480
    2.001836394   22.710676466    9.185257057   22.672326414
    2.009015025   22.798311618    9.205573134   22.760387903
    2.016193656   22.887116535    9.226074084   22.849636899
    2.023372287   22.977115153    9.246762129   22.940098093
    2.030550918   23.068332126    9.267639528   23.031796934
    2.037729549   23.160792822    9.288708576   23.124759601
    2.044908180   23.254523206    9.309971586   23.219012874
    2.052086811   23.349549758    9.331430888   23.314584114
    2.059265442   23.445900343    9.353088927   23.411502536
    2.066444073   23.543605077    9.374948307   23.509799324
    2.073622705   23.642694296    9.397011580   23.609505471
    2.080801336   23.743198029    9.419281257   23.710652174
    2.087979967   23.845147498    9.441759918   23.813271962
    2.095158598   23.948575695    9.464450218   23.917399067
    2.102337229   24.053516828    9.487354868   24.023068986
    2.109515860   24.160005855    9.510476627   24.130318101
    2.116694491   24.268078912    9.533818293   24.239184041
    2.123873122   24.377773366    9.557382690   24.349705741
    2.131051753   24.489128218    9.581172758   24.461923906
    2.138230384   24.602184425    9.605191600   24.575881234
    2.145409015   24.716983881    9.629442229   24.691621425
    2.152587646   24.833569759    9.653927605   24.809189617
    2.159766277   24.951986974    9.678650712   24.928632783
    2.166944908   25.072282240    9.703614909   25.049999850
    2.174123539   25.194504160    9.728823852   25.173341896
    2.181302170   25.318703324    9.754280882   25.298711917
    2.188480801   25.444932186    9.779989279   25.426164949
    2.195659432   25.573245254    9.805952467   25.555758329
    2.202838063   25.703699231    9.832173988   25.687551762
    2.210016694   25.836352984    9.858657453   25.821607312
    2.217195326   25.971267703    9.885406536   25.957989565
    2.224373957   26.108508223    9.912425100   26.096766939
    2.231552588   26.248142532    9.939717105   26.238011256
    2.238731219   26.390240308    9.967286472   26.381796319
    2.245909850   26.534874285    9.995137224   26.528199322
    2.253088481   26.682120761   10.023273487   26.677301305
    2.260267112   26.832059639   10.051699478   26.829187210
    2.267445743   26.984774583   10.080419511   26.983946109
    2.274624374   27.140353254   10.109437997   27.141671477
    2.281803005   27.298887569   10.138759449   27.302461480
    2.288981636   27.460473957   10.168388483   27.466419266
    2.296160267   27.625213678   10.198329820   27.633653333
    2.303338898   27.793213169   10.228588290   27.804277913
    2.310517529   27.964584403   10.259168839   27.978413394
    2.317696160   28.139445293   10.290076526   28.156186777
    2.324874791   28.317920125   10.321316536   28.337732176
    2.332053422   28.500140036   10.352894177   28.523191373
    2.339232053   28.686243539   10.384814887   28.712714421
    2.346410684   28.876377101   10.417084242   28.906460318
    2.353589316   29.070695777   10.449707955   29.104597746
    2.360767947   29.269363910   10.482691887   29.307305882
    2.367946578   29.472555902   10.516042050   29.514775308
    2.375125209   29.680457095   10.549764613   29.727209034
    2.382303840   29.893264732   10.583865915   29.944823628
    2.389482471   30.111188942   10.618352459   30.167850409
    2.396661102   30.334453849   10.653230931   30.396536769
    2.403839733   30.563298937   10.688508206   30.631147780
    2.411018364   30.797981339   10.724191366   30.871968778
    2.418196995   31.038777150   10.760287691   31.119306941
    2.425375626   31.285982162   10.796804677   31.373492491
    2.432554257   31.539914804   10.833750050   31.634882051
    2.439732888   31.800918729   10.871131784   31.903861720
    2.446911519   32.069365305   10.908958107   32.180850147
    2.454090150   32.345656865   10.947237520   32.466302464
    2.461268781   32.630231802   10.985978799   32.760716210
    2.468447412   32.923569457   11.025190986   33.064637170
    2.475626043   33.226191140   11.064883453   33.378661462
    2.482804674   33.538666926   11.105066179   33.703443684
    2.489983306   33.861624010   11.145749512   34.039706842
    2.497161937   34.195755152   11.186944002   34.388252660
    2.504340568   34.541827427   11.228660687   34.749972607
    2.511519199   34.900692376   11.270911164   35.125860815
    2.518697830   35.273300275   11.313707594   35.517031641
    2.525876461   35.660716657   11.357062695   35.924740215
    2.533055092   36.064141383   11.400989738   36.350406555
    2.540233723   36.484932150   11.445503134   36.795645193
