# energy grid [eV]     epsr_x  epsr_y  epsr_z
#
    0.200000000   16.896326999    8.268572709   17.574600960
    0.207178631   16.900702424    8.270382825   17.579435509
    0.214357262   16.905235811    8.272260407   17.584447746
    0.221535893   16.909927557    8.274205881   17.589638495
    0.228714524   16.914778078    8.276219694   17.595008629
    0.235893155   16.919787804    8.278302320   17.600559062
    0.243071786   16.924957184    8.280454255   17.606290757
    0.250250417   16.930286685    8.282676027   17.612204726
    0.257429048   16.935776790    8.284968191   17.618302033
    0.264607679   16.941428002    8.287331330   17.624583797
    0.271786311   16.947240842    8.289766062   17.631051195
    0.278964942   16.953215853    8.292273039   17.637705465
    0.286143573   16.959353594    8.294852949   17.644547907
    0.293322204   16.965654649    8.297506517   17.651579894
    0.300500835   16.972119622    8.300234513   17.658802869
    0.307679466   16.978749137    8.303037746   17.666218351
    0.314858097   16.985543845    8.305917076   17.673827942
    0.322036728   16.992504419    8.308873411   17.681633334
    0.329215359   16.999631555    8.311907713   17.689636309
    0.336393990   17.006925980    8.315021003   17.697838751
    0.343572621   17.014388443    8.318214363   17.706242652
    0.350751252   17.022019725    8.321488942   17.714850118
    0.357929883   17.029820635    8.324845964   17.723663380
    0.365108514   17.037792013    8.328286726   17.732684803
    0.372287145   17.045934733    8.331812615   17.741916898
    0.379465776   17.054249703    8.335425107   17.751362330
    0.386644407   17.062737868    8.339125778   17.761023938
    0.393823038   17.071400213    8.342916315   17.770904742
    0.401001669   17.080237763    8.346798521   17.781007966
    0.408180301   17.089251586    8.350774332   17.791337053
    0.415358932   17.098442801    8.354845823   17.801895687
    0.422537563   17.107812575    8.359015229   17.812687816
    0.429716194   17.117362128    8.363284955   17.823717678
    0.436894825   17.127092742    8.367657598   17.834989829
    0.444073456   17.137005759    8.372135963   17.846509181
    0.451252087   17.147102594    8.376723089   17.858281034
    0.458430718   17.157384733    8.381422275   17.870311123
    0.465609349   17.167853745    8.386237108   17.882605666
    0.472787980   17.178511290    8.391171498   17.895171421
    0.479966611   17.189359125    8.396229714   17.908015748
    0.487145242   17.200399119    8.401416435   17.921146686
    0.494323873   17.211633259    8.406736796   17.934573037
    0.501502504   17.223063669    8.412196450   17.948304466
    0.508681135   17.234692624    8.417801636   17.962351618
    0.515859766   17.246522567    8.423559267   17.976726250
    0.523038397   17.258556134    8.429477015   17.991441393
    0.530217028   17.270796177    8.435563434   18.006511535
    0.537395659   17.283245798    8.441828086   18.021952846
    0.544574290   17.295908379    8.448281703   18.037783439
    0.551752922   17.308787631    8.454936377   18.054023684
    0.558931553   17.321887641    8.461805784   18.070696583
    0.566110184   17.335212936    8.468905465   18.087828232
    0.573288815   17.348768561    8.476253153   18.105448372
    0.580467446   17.362560164    8.483869189   18.123591065
    0.587646077   17.376594116    8.491777022   18.142295537
    0.594824708   17.390877651    8.500003837   18.161607204
    0.602003339   17.405419036    8.508581331   18.181578977
    0.609181970   17.420227797    8.517546705   18.202272888
    0.616360601   17.435314998    8.526943909   18.223762169
    0.623539232   17.450693601    8.536825247   18.246133906
    0.630717863   17.466378927    8.547253460   18.269492489
    0.637896494   17.482389272    8.558304439   18.293964119
    0.645075125   17.498746706    8.570070823   18.319702768
    0.652253756   17.515478150    8.582666814   18.346898161
    0.659432387   17.532616836    8.596234689   18.375786571
    0.666611018   17.550204297    8.610953729   18.406665630
    0.673789649   17.568293140    8.627052597   18.439914838
    0.680968280   17.586950919    8.644826675   18.476024314
    0.688146912   17.606265596    8.664662518   18.515635338
    0.695325543   17.626353248    8.687072326   18.559597489
    0.702504174   17.647368719    8.712741636   18.609047719
    0.709682805   17.669519442    8.742591164   18.665512875
    0.716861436   17.693079684    8.777840576   18.731015417
    0.724040067   17.718390165    8.820006778   18.808070589
    0.731218698   17.745779167    8.870550707   18.899100875
    0.738397329   17.775147275    8.929018370   19.003354246
    0.745575960   17.804203195    8.985143232   19.103811615
    0.752754591   17.822105701    8.990383525   19.120001786
    0.759933222   17.798801309    8.810190942   18.828873167
    0.767111853   17.727617181    8.414683285   18.180888252
    0.774290484   17.689008184    8.164016495   17.773109428
    0.781469115   17.700736322    8.137693234   17.737336057
    0.788647746   17.729948773    8.188631757   17.829739129
    0.795826377   17.761527212    8.249140532   17.938101761
    0.803005008   17.791869605    8.303081536   18.035671935
    0.810183639   17.820578671    8.348662502   18.119480037
    0.817362270   17.847939348    8.387144340   18.191618237
    0.824540902   17.874305623    8.420096057   18.254689805
    0.831719533   17.899973654    8.448826619   18.310867344
    0.838898164   17.925170897    8.474336011   18.361811796
    0.846076795   17.950069064    8.497372966   18.408768314
    0.853255426   17.974798736    8.518499978   18.452674260
    0.860434057   17.999461120    8.538145399   18.494245903
    0.867612688   18.024136805    8.556641882   18.534042591
    0.874791319   18.048892217    8.574254272   18.572513618
    0.881969950   18.073784534    8.591200165   18.610033190
    0.889148581   18.098865643    8.607665649   18.646927776
    0.896327212   18.124185602    8.623818080   18.683499000
    0.903505843   18.149795821    8.639816966   18.720043810
    0.910684474   18.175751622    8.655822486   18.756870463
    0.917863105   18.202111766    8.671996084   18.794297635
    0.925041736   18.228924500    8.688468228   18.832581136
    0.932220367   18.256157983    8.705172088   18.871543191
    0.939398998   18.283413441    8.721154584   18.909041125
    0.946577629   18.308991848    8.732332932   18.935983322
    0.953756260   18.329315105    8.730103349   18.933238229
    0.960934891   18.346695619    8.720021738   18.913128038
    0.968113523   18.369811585    8.722946553   18.921966873
    0.975292154   18.397677134    8.736498230   18.954452692
    0.982470785   18.427086184    8.752956430   18.993421015
    0.989649416   18.456920252    8.769617221   19.032850402
    0.996828047   18.486959819    8.785935013   19.071513787
    1.004006678   18.517214827    8.801912567   19.109402090
    1.011185309   18.547740738    8.817658307   19.146740690
    1.018363940   18.578595713    8.833282761   19.183759218
    1.025542571   18.609832967    8.848879399   19.220648787
    1.032721202   18.641501401    8.864525105   19.257562854
    1.039899833   18.673647883    8.880284277   19.294626137
    1.047078464   18.706319662    8.896212794   19.331943219
    1.054257095   18.739566721    8.912361183   19.369605395
    1.061435726   18.773444191    8.928777084   19.407695939
    1.068614357   18.808015080    8.945507203   19.446294257
    1.075792988   18.843353603    8.962598952   19.485479374
    1.082971619   18.879549511    8.980101933   19.525333123
    1.090150250   18.916713916    8.998069395   19.565943369
    1.097328881   18.954987284    9.016559771   19.607407572
    1.104507513   18.994550301    9.035638407   19.649836980
    1.111686144   19.035637777    9.055379572   19.693361615
    1.118864775   19.078552816    9.075868813   19.738135608
    1.126043406   19.123666016    9.097205414   19.784339824
    1.133222037   19.171335317    9.119503705   19.832168406
    1.140400668   19.221486627    9.142887562   19.881744745
    1.147579299   19.271837787    9.167455437   19.932752870
    1.154757930   19.311584653    9.193144486   19.983114559
    1.161936561   19.311835899    9.219523499   20.026983874
    1.169115192   19.270402344    9.246817155   20.064195704
    1.176293823   19.264260206    9.277108188   20.111335654
    1.183472454   19.305491529    9.311105641   20.171415869
    1.190651085   19.363706108    9.348684027   20.238632613
    1.197829716   19.425884033    9.390281232   20.311020929
    1.205008347   19.489368719    9.436804178   20.389045636
    1.212186978   19.554453883    9.489547843   20.474131714
    1.219365609   19.622208969    9.550250755   20.568322869
    1.226544240   19.693954408    9.621160294   20.674280619
    1.233722871   19.770984404    9.704863018   20.795166696
    1.240901503   19.853613995    9.802982061   20.933536142
    1.248080134   19.937170415    9.910265675   21.086068492
    1.255258765   19.998377819    9.993022236   21.223692228
    1.262437396   19.976429551    9.942412872   21.241606308
    1.269616027   19.829958279    9.581661606   20.914643522
    1.276794658   19.680221357    8.976306641   20.191059868
    1.283973289   19.669181283    8.635770425   19.725996791
    1.291151920   19.746562581    8.629830372   19.712103134
    1.298330551   19.848283678    8.737576190   19.864115562
    1.305509182   19.953971992    8.859596714   20.042092783
    1.312687813   20.060793661    8.973087224   20.212813854
    1.319866444   20.170369509    9.076645552   20.373402338
    1.327045075   20.284570237    9.173493456   20.526502268
    1.334223706   20.401657083    9.267245229   20.670023723
    1.341402337   20.506094789    9.360296330   20.781574689
    1.348580968   20.563010552    9.452461554   20.811031961
    1.355759599   20.593589122    9.541609583   20.791918777
    1.362938230   20.639439335    9.606132015   20.804294056
    1.370116861   20.558348737    9.561286866   20.734511506
    1.377295492   20.217791285    9.335411610   20.567578003
    1.384474124   19.913069845    9.130834704   20.515726482
    1.391652755   19.894927999    9.120715856   20.602786001
    1.398831386   20.021201079    9.210948380   20.739915258
    1.406010017   20.179113038    9.324001767   20.882855988
    1.413188648   20.335686340    9.429284501   21.011210516
    1.420367279   20.482013620    9.501875058   21.100165048
    1.427545910   20.622476121    9.554846906   21.165282060
    1.434724541   20.765332562    9.636215370   21.265839570
    1.441903172   20.875557984    9.694492332   21.372238979
    1.449081803   20.862342081    9.591310095   21.396007830
    1.456260434   20.721305917    9.305950712   21.306901921
    1.463439065   20.554209354    9.024559739   21.162790482
    1.470617696   20.382361066    8.884300283   21.027223223
    1.477796327   20.364612672    8.917558201   21.023794866
    1.484974958   20.481067483    9.025354849   21.130898861
    1.492153589   20.636978252    9.145093324   21.270913677
    1.499332220   20.792477677    9.255981092   21.410700279
    1.506510851   20.924516731    9.340196120   21.535099259
    1.513689482   21.013931084    9.381007112   21.634809982
    1.520868114   21.087536338    9.413106275   21.733336290
    1.528046745   21.114036705    9.430829426   21.837031020
    1.535225376   20.987919610    9.361591796   21.916195586
    1.542404007   20.854928939    9.289705152   22.000894492
    1.549582638   20.887724198    9.315602388   22.124169830
    1.556761269   20.998464385    9.364939175   22.231563718
    1.563939900   21.095475047    9.346314704   22.198316753
    1.571118531   21.149202471    9.269046195   21.958284875
    1.578297162   21.216712471    9.250247215   21.806070235
    1.585475793   21.322250014    9.304502461   21.866558165
    1.592654424   21.441601911    9.383306575   22.012903277
    1.599833055   21.562730940    9.465299422   22.177656998
    1.607011686   21.683813278    9.546507561   22.345260091
    1.614190317   21.805795994    9.627336294   22.514243573
    1.621368948   21.929325141    9.706719882   22.680304283
    1.628547579   22.051194793    9.773665341   22.814177490
    1.635726210   22.157737954    9.791740966   22.819016470
    1.642904841   22.238155480    9.735618254   22.610587601
    1.650083472   22.330943692    9.699145846   22.429222440
    1.657262104   22.457561737    9.739396716   22.464064560
    1.664440735   22.563585691    9.791245804   22.584407775
    1.671619366   22.533104533    9.773274883   22.661781413
    1.678797997   22.339713098    9.693960871   22.694085494
    1.685976628   22.257141758    9.680889626   22.778205688
    1.693155259   22.341755233    9.736102708   22.905680836
    1.700333890   22.460460436    9.784496776   23.012262221
    1.707512521   22.572340951    9.804645662   23.092290939
    1.714691152   22.715696867    9.839240781   23.200585744
    1.721869783   22.880975421    9.855291050   23.321570400
    1.729048414   23.041307589    9.809464572   23.424194951
    1.736227045   23.175130959    9.793770585   23.536507580
    1.743405676   23.227224789    9.837842032   23.661347665
    1.750584307   23.239768356    9.901377352   23.791730021
    1.757762938   23.333013238    9.967660975   23.941968692
    1.764941569   23.399781652    9.983755999   24.074981337
    1.772120200   23.245849721    9.915450879   24.126540818
    1.779298831   22.982545168    9.851447935   24.051262535
    1.786477462   22.926431673    9.848364572   23.899129799
    1.793656093   23.059352047    9.903822945   23.893170153
    1.800834725   23.260293496    9.990222061   24.038530079
    1.808013356   23.472866272   10.085679686   24.236018809
    1.815191987   23.678554854   10.183321659   24.445921720
    1.822370618   23.853451706   10.277707453   24.655927819
    1.829549249   23.951255401   10.352926303   24.847682840
    1.836727880   23.998735919   10.380102083   24.974669199
    1.843906511   24.060875788   10.306720923   24.966823929
    1.851085142   24.076290361   10.154110528   24.907569239
    1.858263773   24.052913453   10.044308372   24.946165993
    1.865442404   24.105562716   10.024554642   25.052257891
    1.872621035   24.228963702   10.061550422   25.084973224
    1.879799666   24.359604216   10.125838353   25.032131022
    1.886978297   24.507891126   10.195601105   25.052609093
    1.894156928   24.650958431   10.233382260   25.083931598
    1.901335559   24.798233908   10.263498955   25.145226140
    1.908514190   24.967851472   10.313696340   25.316004002
    1.915692821   25.120317717   10.353072433   25.504314586
    1.922871452   25.252754274   10.396907310   25.638572044
    1.930050083   25.340100681   10.452282072   25.625196430
    1.937228715   25.403900960   10.498674248   25.504568596
    1.944407346   25.551048618   10.524141200   25.512902888
    1.951585977   25.766934706   10.504189231   25.656480108
    1.958764608   25.977606177   10.475930535   25.814024759
    1.965943239   26.122243714   10.477573153   25.953990411
    1.973121870   26.113225465   10.515821445   26.060050190
    1.980300501   25.968155777   10.581218853   26.161409721
    1.987479132   25.911429209   10.660414077   26.345048863
    1.994657763   26.029003448   10.743777855   26.582671961
    2.001836394   26.239625282   10.807910128   26.797482083
    2.009015025   26.395999403   10.822170272   26.918338535
    2.016193656   26.463078653   10.818118637   26.960305223
    2.023372287   26.554178074   10.842658453   27.037064820
    2.030550918   26.603721674   10.812365928   27.079983486
    2.037729549   26.495587398   10.629256894   26.907907632
    2.044908180   26.454994240   10.452121651   26.732780150
    2.052086811   26.611972911   10.441716991   26.803424366
    2.059265442   26.845518869   10.526067268   26.979816968
    2.066444073   27.098289779   10.628382287   27.181484984
    2.073622705   27.380044789   10.719659987   27.420915509
    2.080801336   27.672468966   10.795962572   27.659302649
    2.087979967   27.963482675   10.873687255   27.892639971
    2.095158598   28.233158429   10.955659655   28.125702916
    2.102337229   28.453869334   11.031562059   28.329143571
    2.109515860   28.617990348   11.093010177   28.493945395
    2.116694491   28.625045675   11.134612349   28.606029704
    2.123873122   28.475081231   11.165205780   28.699377176
    2.131051753   28.508334121   11.214206168   28.886811273
    2.138230384   28.751888421   11.274887758   29.153306197
    2.145409015   29.055413392   11.343606861   29.439749011
    2.152587646   29.328216986   11.425909497   29.691502154
    2.159766277   29.542621508   11.503396976   29.828440957
    2.166944908   29.785123372   11.554670647   29.843456460
    2.174123539   30.083719518   11.597764886   29.933495719
    2.181302170   30.421501529   11.671039396   30.181153036
    2.188480801   30.711980272   11.762027229   30.412847770
    2.195659432   30.874527452   11.840132051   30.517513842
    2.202838063   31.057115172   11.923274764   30.642279100
    2.210016694   31.365066047   12.031625896   30.883604543
    2.217195326   31.627440333   12.114415020   31.106115642
    2.224373957   31.682920606   12.098164362   31.163763164
    2.231552588   31.704259068   12.011160644   31.108782907
    2.238731219   31.934892030   11.923439496   31.141001921
    2.245909850   32.258291044   11.858074013   31.244387088
    2.253088481   32.582829651   11.852071855   31.200134125
    2.260267112   32.935659503   11.896916989   31.096292386
    2.267445743   33.379966191   12.005673443   31.224102461
    2.274624374   33.936088629   12.158579382   31.574922704
    2.281803005   34.409328055   12.246829967   31.939386836
    2.288981636   34.524369077   12.131199999   32.127793361
    2.296160267   34.388548301   11.932680100   32.189144543
    2.303338898   33.971833307   11.808053358   32.306222932
    2.310517529   33.329557361   11.640964293   32.505827940
    2.317696160   33.355063879   11.540020948   32.840050152
    2.324874791   33.970093001   11.622239699   33.266164346
    2.332053422   34.763121902   11.786148892   33.715467827
    2.339232053   35.560854748   11.944229486   34.145574554
    2.346410684   36.285016687   12.050707417   34.483615734
    2.353589316   36.882077274   12.098302523   34.651735663
    2.360767947   37.420408651   12.147445589   34.827562328
    2.367946578   38.117896485   12.260061501   35.187932046
    2.375125209   38.923700698   12.408708845   35.652740937
    2.382303840   39.680070866   12.550923614   36.150212428
    2.389482471   39.859782204   12.622440361   36.614996045
    2.396661102   39.139522256   12.590758487   37.001916697
    2.403839733   38.897094031   12.594285356   37.341511311
    2.411018364   39.560809994   12.653841641   37.615069992
    2.418196995   40.353642675   12.657568085   37.839825542
    2.425375626   40.768969262   12.628786956   38.142188301
    2.432554257   41.347440738   12.658598163   38.609845459
    2.439732888   42.468238479   12.746669738   39.212268482
    2.446911519   43.181684052   12.836105924   39.789519907
    2.454090150   41.998174957   12.818792702   40.083124002
    2.461268781   39.604874717   12.710687940   40.194757728
    2.468447412   37.930196783   12.646753670   40.444715158
    2.475626043   38.081883361   12.703780204   40.981143181
    2.482804674   39.614797795   12.853665582   41.715975474
    2.489983306   41.258595639   13.002119552   41.981014269
    2.497161937   42.247510441   13.094040246   40.939190779
    2.504340568   43.254412447   13.183110645   39.675043692
    2.511519199   44.999742110   13.301868532   39.651573022
    2.518697830   47.087797979   13.368168740   40.173300147
    2.525876461   49.307379634   13.352706468   40.679631395
    2.533055092   51.880021495   13.358659268   41.377713417
    2.540233723   54.513780385   13.407976776   42.272055409
