# energy grid [eV]     epsr_x  epsr_y  epsr_z
#
    0.200000000    7.954133100   15.933745739   15.275558027
    0.207178631    7.955453521   15.937351734   15.279043722
    0.214357262    7.956821063   15.941086828   15.282654287
    0.221535893    7.958235784   15.944951226   15.286389931
    0.228714524    7.959697746   15.948945139   15.290250865
    0.235893155    7.961207011   15.953068786   15.294237311
    0.243071786    7.962763644   15.957322394   15.298349498
    0.250250417    7.964367713   15.961706197   15.302587660
    0.257429048    7.966019287   15.966220435   15.306952042
    0.264607679    7.967718437   15.970865358   15.311442894
    0.271786311    7.969465237   15.975641221   15.316060474
    0.278964942    7.971259761   15.980548288   15.320805048
    0.286143573    7.973102089   15.985586829   15.325676890
    0.293322204    7.974992300   15.990757125   15.330676280
    0.300500835    7.976930476   15.996059461   15.335803509
    0.307679466    7.978916701   16.001494130   15.341058873
    0.314858097    7.980951062   16.007061435   15.346442676
    0.322036728    7.983033646   16.012761685   15.351955230
    0.329215359    7.985164546   16.018595198   15.357596858
    0.336393990    7.987343853   16.024562298   15.363367885
    0.343572621    7.989571663   16.030663318   15.369268650
    0.350751252    7.991848073   16.036898600   15.375299497
    0.357929883    7.994173184   16.043268492   15.381460778
    0.365108514    7.996547096   16.049773351   15.387752855
    0.372287145    7.998969914   16.056413543   15.394176096
    0.379465776    8.001441745   16.063189440   15.400730878
    0.386644407    8.003962696   16.070101424   15.407417589
    0.393823038    8.006532880   16.077149885   15.414236622
    0.401001669    8.009152409   16.084335221   15.421188379
    0.408180301    8.011821399   16.091657838   15.428273273
    0.415358932    8.014539967   16.099118151   15.435491723
    0.422537563    8.017308235   16.106716584   15.442844159
    0.429716194    8.020126325   16.114453569   15.450331017
    0.436894825    8.022994361   16.122329546   15.457952744
    0.444073456    8.025912472   16.130344965   15.465709796
    0.451252087    8.028880787   16.138500284   15.473602637
    0.458430718    8.031899439   16.146795969   15.481631740
    0.465609349    8.034968561   16.155232498   15.489797588
    0.472787980    8.038088292   16.163810354   15.498100673
    0.479966611    8.041258771   16.172530032   15.506541496
    0.487145242    8.044480140   16.181392036   15.515120567
    0.494323873    8.047752543   16.190396877   15.523838408
    0.501502504    8.051076129   16.199545077   15.532695548
    0.508681135    8.054451046   16.208837168   15.541692526
    0.515859766    8.057877447   16.218273690   15.550829891
    0.523038397    8.061355487   16.227855193   15.560108203
    0.530217028    8.064885323   16.237582238   15.569528031
    0.537395659    8.068467116   16.247455394   15.579089953
    0.544574290    8.072101027   16.257475239   15.588794561
    0.551752922    8.075787223   16.267642365   15.598642452
    0.558931553    8.079525871   16.277957370   15.608634237
    0.566110184    8.083317143   16.288420863   15.618770537
    0.573288815    8.087161211   16.299033465   15.629051982
    0.580467446    8.091058252   16.309795806   15.639479216
    0.587646077    8.095008445   16.320708525   15.650052890
    0.594824708    8.099011971   16.331772275   15.660773668
    0.602003339    8.103069015   16.342987717   15.671642226
    0.609181970    8.107179766   16.354355524   15.682659248
    0.616360601    8.111344412   16.365876378   15.693825433
    0.623539232    8.115563147   16.377550974   15.705141488
    0.630717863    8.119836167   16.389380017   15.716608136
    0.637896494    8.124163671   16.401364225   15.728226107
    0.645075125    8.128545861   16.413504325   15.739996145
    0.652253756    8.132982942   16.425801056   15.751919007
    0.659432387    8.137475122   16.438255169   15.763995461
    0.666611018    8.142022612   16.450867428   15.776226286
    0.673789649    8.146625626   16.463638606   15.788612277
    0.680968280    8.151284380   16.476569491   15.801154237
    0.688146912    8.155999096   16.489660880   15.813852986
    0.695325543    8.160769997   16.502913585   15.826709355
    0.702504174    8.165597308   16.516328429   15.839724187
    0.709682805    8.170481261   16.529906248   15.852898339
    0.716861436    8.175422087   16.543647891   15.866232683
    0.724040067    8.180420024   16.557554218   15.879728104
    0.731218698    8.185475311   16.571626104   15.893385498
    0.738397329    8.190588191   16.585864436   15.907205777
    0.745575960    8.195758909   16.600270116   15.921189869
    0.752754591    8.200987717   16.614844057   15.935338713
    0.759933222    8.206274866   16.629587188   15.949653264
    0.767111853    8.211620614   16.644500450   15.964134491
    0.774290484    8.217025220   16.659584798   15.978783380
    0.781469115    8.222488948   16.674841202   15.993600928
    0.788647746    8.228012066   16.690270647   16.008588152
    0.795826377    8.233594844   16.705874132   16.023746082
    0.803005008    8.239237557   16.721652668   16.039075763
    0.810183639    8.244940482   16.737607285   16.054578258
    0.817362270    8.250703902   16.753739026   16.070254644
    0.824540902    8.256528102   16.770048950   16.086106018
    0.831719533    8.262413371   16.786538130   16.102133490
    0.838898164    8.268360004   16.803207656   16.118338189
    0.846076795    8.274368297   16.820058634   16.134721259
    0.853255426    8.280438550   16.837092185   16.151283856
    0.860434057    8.286571071   16.854309443   16.168027132
    0.867612688    8.292766166   16.871711554   16.184952214
    0.874791319    8.299024150   16.889299690   16.202060319
    0.881969950    8.305345339   16.907075061   16.219352867
    0.889148581    8.311730056   16.925038874   16.236831133
    0.896327212    8.318178625   16.943192344   16.254496313
    0.903505843    8.324691376   16.961536708   16.272349668
    0.910684474    8.331268645   16.980073224   16.290392500
    0.917863105    8.337910768   16.998803168   16.308626141
    0.925041736    8.344618089   17.017727835   16.327051940
    0.932220367    8.351390955   17.036848540   16.345671269
    0.939398998    8.358229719   17.056166615   16.364485520
    0.946577629    8.365134736   17.075683414   16.383496106
    0.953756260    8.372106367   17.095400306   16.402704463
    0.960934891    8.379144977   17.115318685   16.422112045
    0.968113523    8.386250939   17.135439962   16.441720330
    0.975292154    8.393424625   17.155765569   16.461530820
    0.982470785    8.400666417   17.176296959   16.481545038
    0.989649416    8.407976699   17.197035606   16.501764531
    0.996828047    8.415355860   17.217983006   16.522190867
    1.004006678    8.422804296   17.239140674   16.542825643
    1.011185309    8.430322407   17.260510151   16.563670475
    1.018363940    8.437910596   17.282092998   16.584727007
    1.025542571    8.445569276   17.303890798   16.605996909
    1.032721202    8.453298860   17.325905159   16.627481873
    1.039899833    8.461099769   17.348137712   16.649183621
    1.047078464    8.468972430   17.370590109   16.671103898
    1.054257095    8.476917275   17.393264031   16.693244480
    1.061435726    8.484934740   17.416161180   16.715607166
    1.068614357    8.493025268   17.439283283   16.738193786
    1.075792988    8.501189308   17.462632095   16.761006199
    1.082971619    8.509427313   17.486209393   16.784046289
    1.090150250    8.517739744   17.510016982   16.807315974
    1.097328881    8.526127066   17.534056695   16.830817198
    1.104507513    8.534589752   17.558330389   16.854551939
    1.111686144    8.543128279   17.582839948   16.878522200
    1.118864775    8.551743131   17.607587283   16.902730020
    1.126043406    8.560434799   17.632574342   16.927177474
    1.133222037    8.569203779   17.657803100   16.951866672
    1.140400668    8.578050575   17.683275555   16.976799749
    1.147579299    8.586975695   17.708993736   17.001978875
    1.154757930    8.595979655   17.734959701   17.027406254
    1.161936561    8.605062979   17.761175543   17.053084129
    1.169115192    8.614226195   17.787643382   17.079014777
    1.176293823    8.623469841   17.814365375   17.105200513
    1.183472454    8.632794458   17.841343706   17.131643688
    1.190651085    8.642200598   17.868580597   17.158346692
    1.197829716    8.651688817   17.896078299   17.185311954
    1.205008347    8.661259680   17.923839101   17.212541942
    1.212186978    8.670913760   17.951865325   17.240039164
    1.219365609    8.680651635   17.980159328   17.267806170
    1.226544240    8.690473893   18.008723503   17.295845552
    1.233722871    8.700381127   18.037560280   17.324159945
    1.240901503    8.710373941   18.066672126   17.352752027
    1.248080134    8.720452944   18.096061547   17.381624521
    1.255258765    8.730618755   18.125731086   17.410780195
    1.262437396    8.740871999   18.155683326   17.440221863
    1.269616027    8.751213312   18.185920891   17.469952389
    1.276794658    8.761643337   18.216446444   17.499974681
    1.283973289    8.772162724   18.247262691   17.530291701
    1.291151920    8.782772133   18.278372379   17.560906458
    1.298330551    8.793472234   18.309778300   17.591822014
    1.305509182    8.804263703   18.341483287   17.623041483
    1.312687813    8.815147228   18.373490220   17.654568032
    1.319866444    8.826123504   18.405802025   17.686404885
    1.327045075    8.837193235   18.438421673   17.718555319
    1.334223706    8.848357137   18.471352182   17.751022671
    1.341402337    8.859615932   18.504596620   17.783810334
    1.348580968    8.870970356   18.538158102   17.816921763
    1.355759599    8.882421150   18.572039795   17.850360473
    1.362938230    8.893969069   18.606244917   17.884130041
    1.370116861    8.905614877   18.640776737   17.918234109
    1.377295492    8.917359346   18.675638577   17.952676382
    1.384474124    8.929203263   18.710833815   17.987460634
    1.391652755    8.941147420   18.746365881   18.022590704
    1.398831386    8.953192622   18.782238260   18.058070492
    1.406010017    8.965339680   18.818454489   18.093903958
    1.413188648    8.977589425   18.855018177   18.130095170
    1.420367279    8.989942710   18.891933010   18.166648314
    1.427545910    9.002400383   18.929202712   18.203567592
    1.434724541    9.014963300   18.966831057   18.240857261
    1.441903172    9.027632328   19.004821892   18.278521671
    1.449081803    9.040408364   19.043179141   18.316565253
    1.456260434    9.053292313   19.081906793   18.354992527
    1.463439065    9.066285083   19.121008894   18.393808167
    1.470617696    9.079387596   19.160489562   18.433016909
    1.477796327    9.092600786   19.200352985   18.472623520
    1.484974958    9.105925598   19.240603427   18.512632871
    1.492153589    9.119362985   19.281245221   18.553049934
    1.499332220    9.132913929   19.322282779   18.593879793
    1.506510851    9.146579451   19.363720592   18.635127646
    1.513689482    9.160360554   19.405563225   18.676798775
    1.520868114    9.174258247   19.447815324   18.718898563
    1.528046745    9.188273561   19.490481619   18.761432504
    1.535225376    9.202407542   19.533566922   18.804406203
    1.542404007    9.216661256   19.577076130   18.847825380
    1.549582638    9.231035782   19.621014232   18.891695873
    1.556761269    9.245532216   19.665386301   18.936023636
    1.563939900    9.260151667   19.710197505   18.980814748
    1.571118531    9.274895265   19.755453106   19.026075414
    1.578297162    9.289764150   19.801158459   19.071811967
    1.585475793    9.304759482   19.847319017   19.118030873
    1.592654424    9.319882434   19.893940331   19.164738736
    1.599833055    9.335134203   19.941028063   19.211942298
    1.607011686    9.350516013   19.988587985   19.259648449
    1.614190317    9.366029094   20.036625967   19.307864225
    1.621368948    9.381674690   20.085147986   19.356596814
    1.628547579    9.397454066   20.134160134   19.405853562
    1.635726210    9.413368511   20.183668620   19.455641975
    1.642904841    9.429419329   20.233679772   19.505969727
    1.650083472    9.445607845   20.284200037   19.556844660
    1.657262104    9.461935407   20.335235988   19.608274794
    1.664440735    9.478403380   20.386794325   19.660268332
    1.671619366    9.495013152   20.438881878   19.712833658
    1.678797997    9.511766129   20.491505609   19.765979348
    1.685976628    9.528663738   20.544672611   19.819714179
    1.693155259    9.545707434   20.598390119   19.874047137
    1.700333890    9.562898702   20.652665505   19.928987435
    1.707512521    9.580239037   20.707506318   19.984544481
    1.714691152    9.597729957   20.762920282   20.040727908
    1.721869783    9.615373008   20.818915224   20.097547574
    1.729048414    9.633169759   20.875499122   20.155013573
    1.736227045    9.651121803   20.932680114   20.213136227
    1.743405676    9.669230762   20.990466520   20.271926122
    1.750584307    9.687498281   21.048866881   20.331394197
    1.757762938    9.705926034   21.107889897   20.391551625
    1.764941569    9.724515720   21.167544407   20.452409794
    1.772120200    9.743269064   21.227839448   20.513980393
    1.779298831    9.762187823   21.288784256   20.576275425
    1.786477462    9.781273780   21.350388263   20.639307206
    1.793656093    9.800528748   21.412661095   20.703088373
    1.800834725    9.819954569   21.475612565   20.767631880
    1.808013356    9.839553117   21.539252688   20.832951025
    1.815191987    9.859326297   21.603591820   20.899059510
    1.822370618    9.879276044   21.668640548   20.965971409
    1.829549249    9.899404327   21.734409552   21.033701119
    1.836727880    9.919713148   21.800909726   21.102263424
    1.843906511    9.940204542   21.868152272   21.171673542
    1.851085142    9.960880581   21.936148783   21.241947174
    1.858263773    9.981743373   22.004911021   21.313100426
    1.865442404   10.002795059   22.074450933   21.385149831
    1.872621035   10.024037817   22.144780739   21.458112396
    1.879799666   10.045473863   22.215912871   21.532005591
    1.886978297   10.067105451   22.287859976   21.606847369
    1.894156928   10.088934879   22.360635465   21.682656414
    1.901335559   10.110964488   22.434253262   21.759452048
    1.908514190   10.133196653   22.508727011   21.837253900
    1.915692821   10.155633790   22.584070626   21.916082124
    1.922871452   10.178278351   22.660298462   21.995957515
    1.930050083   10.201132832   22.737425378   22.076901834
    1.937228715   10.224199770   22.815466610   22.158937542
    1.944407346   10.247481805   22.894437723   22.242087612
    1.951585977   10.270981626   22.974354675   22.326375776
    1.958764608   10.294701905   23.055233761   22.411826462
    1.965943239   10.318645364   23.137091683   22.498464898
    1.973121870   10.342814773   23.219945526   22.586317083
    1.980300501   10.367212948   23.303812780   22.675409831
    1.987479132   10.391842839   23.388711698   22.765771441
    1.994657763   10.416707468   23.474661087   22.857431319
    2.001836394   10.441809826   23.561679880   22.950419235
    2.009015025   10.467152959   23.649787508   23.044766015
    2.016193656   10.492739990   23.739003997   23.140503719
    2.023372287   10.518574111   23.829349937   23.237665620
    2.030550918   10.544658575   23.920846479   23.336286222
    2.037729549   10.570996701   24.013515344   23.436401309
    2.044908180   10.597591868   24.107378838   23.538047999
    2.052086811   10.624447508   24.202459889   23.641264799
    2.059265442   10.651567080   24.298781957   23.746091529
    2.066444073   10.678954097   24.396368866   23.852569497
    2.073622705   10.706612352   24.495245281   23.960742195
    2.080801336   10.734545742   24.595437936   24.070655311
    2.087979967   10.762758035   24.696973967   24.182355973
    2.095158598   10.791253069   24.799879781   24.295892609
    2.102337229   10.820034782   24.904183089   24.411315880
    2.109515860   10.849107198   25.009913006   24.528678915
    2.116694491   10.878474373   25.117098845   24.648036893
    2.123873122   10.908140523   25.225771298   24.769447346
    2.131051753   10.938110140   25.335962293   24.892970642
    2.138230384   10.968387716   25.447704511   25.018670265
    2.145409015   10.998977743   25.561031550   25.146612374
    2.152587646   11.029884773   25.675977811   25.276865864
    2.159766277   11.061113480   25.792578867   25.409502968
    2.166944908   11.092668667   25.910871547   25.544599513
    2.174123539   11.124555279   26.030894002   25.682235084
    2.181302170   11.156778371   26.152685637   25.822493252
    2.188480801   11.189343090   26.276287097   25.965461840
    2.195659432   11.222254703   26.401740404   26.111233209
    2.202838063   11.255518605   26.529089031   26.259904586
    2.210016694   11.289140319   26.658377951   26.411578404
    2.217195326   11.323125500   26.789653711   26.566362698
    2.224373957   11.357479940   26.922964498   26.724371516
    2.231552588   11.392209569   27.058360219   26.885725352
    2.238731219   11.427320460   27.195892583   27.050551658
    2.245909850   11.462818838   27.335615190   27.218985386
    2.253088481   11.498711084   27.477583628   27.391169594
    2.260267112   11.535003742   27.621855566   27.567256102
    2.267445743   11.571703519   27.768490856   27.747406226
    2.274624374   11.608817297   27.917551648   27.931791568
    2.281803005   11.646352135   28.069102504   28.120594901
    2.288981636   11.684315280   28.223210499   28.314011144
    2.296160267   11.722714163   28.379945284   28.512248407
    2.303338898   11.761556404   28.539379154   28.715529146
    2.310517529   11.800849854   28.701587528   28.924091808
    2.317696160   11.840602652   28.866649740   29.138192715
    2.324874791   11.880823116   29.034648549   29.358107136
    2.332053422   11.921519758   29.205669335   29.584130816
    2.339232053   11.962701358   29.379801030   29.816582579
    2.346410684   12.004376965   29.557136736   30.055806928
    2.353589316   12.046555906   29.737773831   30.302176718
    2.360767947   12.089247786   29.921814151   30.556096224
    2.367946578   12.132462500   30.109364247   30.818004654
    2.375125209   12.176210268   30.300535677   31.088380258
    2.382303840   12.220501729   30.495445354   31.367745123
    2.389482471   12.265347840   30.694215871   31.656670221
    2.396661102   12.310759887   30.896975884   31.955781464
    2.403839733   12.356749550   31.103860542   32.265766599
    2.411018364   12.403328873   31.315011935   32.587383466
    2.418196995   12.450510176   31.530579558   32.921472197
    2.425375626   12.498306214   31.750720898   33.268965124
    2.432554257   12.546731235   31.975602319   33.630896806
    2.439732888   12.595800027   32.205399478   34.008421932
    2.446911519   12.645526951   32.440297730   34.402834174
    2.454090150   12.695926815   32.680493011   34.815588170
    2.461268781   12.747015263   32.926193198   35.248326327
    2.468447412   12.798809844   33.177620271   35.702911423
    2.475626043   12.851329503   33.435009859   36.181464013
    2.482804674   12.904593165   33.698611922   36.686409510
    2.489983306   12.958620279   33.968693122   37.220536222
    2.497161937   13.013431727   34.245539852   37.787065435
    2.504340568   13.069049843   34.529458880   38.389737597
    2.511519199   13.125499185   34.820779141   39.032938121
    2.518697830   13.182806988   35.119858871   39.721861533
    2.525876461   13.241001928   35.427085306   40.462646587
    2.533055092   13.300115172   35.742876271   41.262613080
    2.540233723   13.360181434   36.067688207   42.130591997
