# energy grid [eV]     epsr_x  epsr_y  epsr_z
#
    0.200000000   13.340768510   14.094379156   12.774725431
    0.207178631   13.343744017   14.097559226   12.777359761
    0.214357262   13.346826072   14.100853183   12.780088312
    0.221535893   13.350014846   14.104261213   12.782911223
    0.228714524   13.353310516   14.107783506   12.785828638
    0.235893155   13.356713266   14.111420260   12.788840706
    0.243071786   13.360223285   14.115171678   12.791947584
    0.250250417   13.363840768   14.119037972   12.795149429
    0.257429048   13.367565918   14.123019358   12.798446408
    0.264607679   13.371398942   14.127116061   12.801838688
    0.271786311   13.375340054   14.131328312   12.805326446
    0.278964942   13.379389475   14.135656349   12.808909861
    0.286143573   13.383547431   14.140100415   12.812589118
    0.293322204   13.387814157   14.144660763   12.816364407
    0.300500835   13.392189891   14.149337650   12.820235924
    0.307679466   13.396674880   14.154131342   12.824203869
    0.314858097   13.401269375   14.159042111   12.828268448
    0.322036728   13.405973637   14.164070236   12.832429871
    0.329215359   13.410787930   14.169216003   12.836688356
    0.336393990   13.415712526   14.174479706   12.841044123
    0.343572621   13.420747705   14.179861645   12.845497401
    0.350751252   13.425893752   14.185362128   12.850048421
    0.357929883   13.431150958   14.190981470   12.854697421
    0.365108514   13.436519623   14.196719992   12.859444644
    0.372287145   13.442000053   14.202578025   12.864290340
    0.379465776   13.447592559   14.208555905   12.869234762
    0.386644407   13.453297462   14.214653978   12.874278171
    0.393823038   13.459115088   14.220872594   12.879420831
    0.401001669   13.465045770   14.227212113   12.884663015
    0.408180301   13.471089849   14.233672903   12.890004998
    0.415358932   13.477247672   14.240255338   12.895447063
    0.422537563   13.483519595   14.246959801   12.900989498
    0.429716194   13.489905978   14.253786682   12.906632599
    0.436894825   13.496407192   14.260736379   12.912376663
    0.444073456   13.503023612   14.267809299   12.918221998
    0.451252087   13.509755623   14.275005854   12.924168914
    0.458430718   13.516603617   14.282326468   12.930217730
    0.465609349   13.523567992   14.289771571   12.936368769
    0.472787980   13.530649155   14.297341601   12.942622361
    0.479966611   13.537847519   14.305037005   12.948978842
    0.487145242   13.545163508   14.312858238   12.955438553
    0.494323873   13.552597551   14.320805764   12.962001844
    0.501502504   13.560150084   14.328880054   12.968669068
    0.508681135   13.567821555   14.337081589   12.975440587
    0.515859766   13.575612415   14.345410858   12.982316767
    0.523038397   13.583523128   14.353868358   12.989297982
    0.530217028   13.591554162   14.362454598   12.996384613
    0.537395659   13.599705996   14.371170092   13.003577046
    0.544574290   13.607979116   14.380015365   13.010875674
    0.551752922   13.616374016   14.388990950   13.018280897
    0.558931553   13.624891200   14.398097391   13.025793122
    0.566110184   13.633531179   14.407335240   13.033412763
    0.573288815   13.642294474   14.416705057   13.041140239
    0.580467446   13.651181614   14.426207414   13.048975978
    0.587646077   13.660193137   14.435842891   13.056920413
    0.594824708   13.669329590   14.445612079   13.064973987
    0.602003339   13.678591528   14.455515576   13.073137147
    0.609181970   13.687979516   14.465553993   13.081410350
    0.616360601   13.697494129   14.475727950   13.089794056
    0.623539232   13.707135951   14.486038075   13.098288738
    0.630717863   13.716905573   14.496485010   13.106894872
    0.637896494   13.726803599   14.507069403   13.115612943
    0.645075125   13.736830640   14.517791915   13.124443444
    0.652253756   13.746987318   14.528653218   13.133386874
    0.659432387   13.757274265   14.539653994   13.142443743
    0.666611018   13.767692123   14.550794933   13.151614564
    0.673789649   13.778241542   14.562076741   13.160899862
    0.680968280   13.788923184   14.573500131   13.170300169
    0.688146912   13.799737722   14.585065829   13.179816023
    0.695325543   13.810685838   14.596774571   13.189447973
    0.702504174   13.821768226   14.608627106   13.199196574
    0.709682805   13.832985587   14.620624194   13.209062391
    0.716861436   13.844338638   14.632766605   13.219045996
    0.724040067   13.855828104   14.645055124   13.229147970
    0.731218698   13.867454720   14.657490544   13.239368902
    0.738397329   13.879219236   14.670073675   13.249709392
    0.745575960   13.891122408   14.682805335   13.260170047
    0.752754591   13.903165009   14.695686356   13.270751481
    0.759933222   13.915347821   14.708717583   13.281454322
    0.767111853   13.927671636   14.721899873   13.292279202
    0.774290484   13.940137261   14.735234098   13.303226765
    0.781469115   13.952745515   14.748721140   13.314297664
    0.788647746   13.965497226   14.762361895   13.325492561
    0.795826377   13.978393237   14.776157275   13.336812128
    0.803005008   13.991434405   14.790108202   13.348257047
    0.810183639   14.004621595   14.804215615   13.359828007
    0.817362270   14.017955690   14.818480465   13.371525712
    0.824540902   14.031437583   14.832903718   13.383350870
    0.831719533   14.045068181   14.847486353   13.395304205
    0.838898164   14.058848404   14.862229365   13.407386448
    0.846076795   14.072779187   14.877133764   13.419598340
    0.853255426   14.086861478   14.892200574   13.431940634
    0.860434057   14.101096238   14.907430835   13.444414093
    0.867612688   14.115484443   14.922825601   13.457019492
    0.874791319   14.130027085   14.938385944   13.469757616
    0.881969950   14.144725167   14.954112949   13.482629260
    0.889148581   14.159579711   14.970007719   13.495635233
    0.896327212   14.174591751   14.986071373   13.508776352
    0.903505843   14.189762337   15.002305045   13.522053449
    0.910684474   14.205092534   15.018709889   13.535467366
    0.917863105   14.220583425   15.035287074   13.549018956
    0.925041736   14.236236106   15.052037784   13.562709085
    0.932220367   14.252051691   15.068963225   13.576538633
    0.939398998   14.268031310   15.086064619   13.590508489
    0.946577629   14.284176108   15.103343204   13.604619556
    0.953756260   14.300487250   15.120800239   13.618872751
    0.960934891   14.316965915   15.138437001   13.633269003
    0.968113523   14.333613302   15.156254786   13.647809252
    0.975292154   14.350430626   15.174254907   13.662494455
    0.982470785   14.367419120   15.192438701   13.677325580
    0.989649416   14.384580037   15.210807519   13.692303609
    0.996828047   14.401914647   15.229362738   13.707429537
    1.004006678   14.419424238   15.248105751   13.722704377
    1.011185309   14.437110119   15.267037974   13.738129150
    1.018363940   14.454973617   15.286160844   13.753704898
    1.025542571   14.473016080   15.305475817   13.769432672
    1.032721202   14.491238874   15.324984375   13.785313541
    1.039899833   14.509643388   15.344688019   13.801348589
    1.047078464   14.528231030   15.364588273   13.817538915
    1.054257095   14.547003229   15.384686684   13.833885632
    1.061435726   14.565961436   15.404984823   13.850389872
    1.068614357   14.585107124   15.425484283   13.867052780
    1.075792988   14.604441787   15.446186684   13.883875520
    1.082971619   14.623966942   15.467093667   13.900859269
    1.090150250   14.643684130   15.488206900   13.918005225
    1.097328881   14.663594913   15.509528075   13.935314599
    1.104507513   14.683700879   15.531058912   13.952788624
    1.111686144   14.704003636   15.552801152   13.970428544
    1.118864775   14.724504814   15.574756564   13.988235625
    1.126043406   14.745206050   15.596926928   14.006211141
    1.133222037   14.766109005   15.619314053   14.024356385
    1.140400668   14.787215446   15.641919832   14.042672699
    1.147579299   14.808527159   15.664746182   14.061161444
    1.154757930   14.830045880   15.687794996   14.079823968
    1.161936561   14.851773379   15.711068198   14.098661641
    1.169115192   14.873711465   15.734567749   14.117675859
    1.176293823   14.895861967   15.758295628   14.136868036
    1.183472454   14.918226730   15.782253831   14.156239600
    1.190651085   14.940807690   15.806444460   14.175792023
    1.197829716   14.963606843   15.830869692   14.195526813
    1.205008347   14.986626139   15.855531638   14.215445467
    1.212186978   15.009867549   15.880432430   14.235549503
    1.219365609   15.033333089   15.905574252   14.255840466
    1.226544240   15.057024817   15.930959335   14.276319927
    1.233722871   15.080944821   15.956589943   14.296989481
    1.240901503   15.105095225   15.982468381   14.317850746
    1.248080134   15.129478187   16.008596987   14.338905365
    1.255258765   15.154095896   16.034978138   14.360155003
    1.262437396   15.178950579   16.061614248   14.381601353
    1.269616027   15.204044498   16.088507772   14.403246131
    1.276794658   15.229379951   16.115661201   14.425091081
    1.283973289   15.254959272   16.143077070   14.447137969
    1.291151920   15.280784832   16.170757952   14.469388593
    1.298330551   15.306859041   16.198706460   14.491844775
    1.305509182   15.333184340   16.226925248   14.514508364
    1.312687813   15.359763228   16.255417025   14.537381240
    1.319866444   15.386598249   16.284184550   14.560465308
    1.327045075   15.413691973   16.313230614   14.583762506
    1.334223706   15.441047010   16.342558051   14.607274799
    1.341402337   15.468666016   16.372169746   14.631004184
    1.348580968   15.496551694   16.402068634   14.654952687
    1.355759599   15.524706792   16.432257698   14.679122366
    1.362938230   15.553134103   16.462739973   14.703515312
    1.370116861   15.581836469   16.493518545   14.728133648
    1.377295492   15.610816778   16.524596551   14.752979530
    1.384474124   15.640077967   16.555977182   14.778055147
    1.391652755   15.669623026   16.587663686   14.803362725
    1.398831386   15.699454991   16.619659364   14.828904523
    1.406010017   15.729576956   16.651967574   14.854682836
    1.413188648   15.759992062   16.684591734   14.880699997
    1.420367279   15.790703511   16.717535320   14.906958374
    1.427545910   15.821714554   16.750801869   14.933460375
    1.434724541   15.853028504   16.784394981   14.960208445
    1.441903172   15.884648730   16.818318318   14.987205070
    1.449081803   15.916578659   16.852575608   15.014452777
    1.456260434   15.948821780   16.887170646   15.041954131
    1.463439065   15.981381646   16.922107291   15.069711742
    1.470617696   16.014261869   16.957389476   15.097728261
    1.477796327   16.047466129   16.993021203   15.126006384
    1.484974958   16.080998171   17.029006545   15.154548850
    1.492153589   16.114861807   17.065349649   15.183358441
    1.499332220   16.149060915   17.102054735   15.212437980
    1.506510851   16.183599440   17.139126093   15.241790328
    1.513689482   16.218481416   17.176568114   15.271418426
    1.520868114   16.253710959   17.214385279   15.301325286
    1.528046745   16.289292242   17.252582130   15.331513931
    1.535225376   16.325229513   17.291163297   15.361987436
    1.542404007   16.361527104   17.330133494   15.392748924
    1.549582638   16.398189427   17.369497524   15.423801576
    1.556761269   16.435220982   17.409260285   15.455148629
    1.563939900   16.472626351   17.449426769   15.486793377
    1.571118531   16.510410203   17.490002064   15.518739172
    1.578297162   16.548577300   17.530991355   15.550989427
    1.585475793   16.587132501   17.572399934   15.583547622
    1.592654424   16.626080754   17.614233190   15.616417288
    1.599833055   16.665427100   17.656496618   15.649602020
    1.607011686   16.705176680   17.699195823   15.683105475
    1.614190317   16.745334740   17.742336520   15.716931379
    1.621368948   16.785906627   17.785924540   15.751083523
    1.628547579   16.826897796   17.829965829   15.785565768
    1.635726210   16.868313813   17.874466455   15.820382046
    1.642904841   16.910160355   17.919432608   15.855536358
    1.650083472   16.952443213   17.964870604   15.891032781
    1.657262104   16.995168298   18.010786891   15.926875467
    1.664440735   17.038341643   18.057188047   15.963068642
    1.671619366   17.081969404   18.104080789   15.999616613
    1.678797997   17.126057865   18.151471973   16.036523763
    1.685976628   17.170613439   18.199368598   16.073794545
    1.693155259   17.215642671   18.247777808   16.111433477
    1.700333890   17.261152254   18.296706908   16.149445218
    1.707512521   17.307149037   18.346163368   16.187834587
    1.714691152   17.353639997   18.396154803   16.226606398
    1.721869783   17.400632250   18.446688984   16.265765531
    1.729048414   17.448133064   18.497773847   16.305316983
    1.736227045   17.496149880   18.549417521   16.345265858
    1.743405676   17.544690297   18.601628313   16.385617363
    1.750584307   17.593762105   18.654414728   16.426376810
    1.757762938   17.643373318   18.707785514   16.467549615
    1.764941569   17.693532053   18.761749538   16.509141303
    1.772120200   17.744246593   18.816315855   16.551157508
    1.779298831   17.795525428   18.871493743   16.593603983
    1.786477462   17.847377252   18.927292705   16.636486592
    1.793656093   17.899810960   18.983722464   16.679811324
    1.800834725   17.952835656   19.040792972   16.723584290
    1.808013356   18.006460656   19.098514415   16.767811727
    1.815191987   18.060695494   19.156897217   16.812500000
    1.822370618   18.115549927   19.215952047   16.857655602
    1.829549249   18.171033934   19.275689806   16.903285139
    1.836727880   18.227157715   19.336121640   16.949395333
    1.843906511   18.283931775   19.397259073   16.995993170
    1.851085142   18.341366926   19.459113958   17.043085847
    1.858263773   18.399474146   19.521698291   17.090680555
    1.865442404   18.458264697   19.585024385   17.138784636
    1.872621035   18.517750167   19.649104923   17.187405631
    1.879799666   18.577942398   19.713952866   17.236551248
    1.886978297   18.638853528   19.779581502   17.286229370
    1.894156928   18.700496013   19.846004473   17.336448058
    1.901335559   18.762882637   19.913235778   17.387215556
    1.908514190   18.826026521   19.981289784   17.438540297
    1.915692821   18.889941131   20.050181236   17.490430905
    1.922871452   18.954640283   20.119925271   17.542896205
    1.930050083   19.020138165   20.190537431   17.595945226
    1.937228715   19.086449344   20.262033680   17.649587209
    1.944407346   19.153588785   20.334430415   17.703831610
    1.951585977   19.221571863   20.407744483   17.758688113
    1.958764608   19.290414376   20.481993200   17.814166631
    1.965943239   19.360132562   20.557194364   17.870277319
    1.973121870   19.430743115   20.633366277   17.927030575
    1.980300501   19.502263205   20.710527761   17.984437054
    1.987479132   19.574710490   20.788698178   18.042507673
    1.994657763   19.648103138   20.867897452   18.101253622
    2.001836394   19.722459850   20.948146090   18.160686369
    2.009015025   19.797799872   21.029465201   18.220817673
    2.016193656   19.874143026   21.111876528   18.281659594
    2.023372287   19.951509726   21.195402463   18.343224499
    2.030550918   20.029921003   21.280066080   18.405525078
    2.037729549   20.109398531   21.365891160   18.468574349
    2.044908180   20.189964645   21.452902210   18.532385669
    2.052086811   20.271642355   21.541124490   18.596972732
    2.059265442   20.354455367   21.630584040   18.662349581
    2.066444073   20.438428231   21.721307822   18.728530703
    2.073622705   20.523586337   21.813323677   18.795530999
    2.080801336   20.609955838   21.906660279   18.863365770
    2.087979967   20.697563751   22.001347253   18.932050759
    2.095158598   20.786437915   22.097415192   19.001602062
    2.102337229   20.876607117   22.194895722   19.072036239
    2.109515860   20.968101141   22.293821553   19.143370343
    2.116694491   21.060950798   22.394226522   19.215621907
    2.123873122   21.155187968   22.496145631   19.288808901
    2.131051753   21.250845640   22.599615096   19.362949604
    2.138230384   21.347957958   22.704672391   19.438062768
    2.145409015   21.446560240   22.811356335   19.514168713
    2.152587646   21.546688939   22.919706962   19.591288451
    2.159766277   21.648381894   23.029765770   19.669442562
    2.166944908   21.751679080   23.141576703   19.748652504
    2.174123539   21.856621757   23.255184983   19.828940678
    2.181302170   21.963252198   23.370636591   19.910329803
    2.188480801   22.071614296   23.487979839   19.992843440
    2.195659432   22.181753739   23.607265922   20.076506180
    2.202838063   22.293717864   23.728546849   20.161343204
    2.210016694   22.407555832   23.851876287   20.247380437
    2.217195326   22.523319738   23.977311274   20.334644803
    2.224373957   22.641063626   24.104911288   20.423164031
    2.231552588   22.760842488   24.234737298   20.512966600
    2.238731219   22.882714488   24.366852971   20.604082488
    2.245909850   23.006741590   24.501324629   20.696542778
    2.253088481   23.132987231   24.638221395   20.790379026
    2.260267112   23.261516999   24.777616758   20.885624543
    2.267445743   23.392399711   24.919587147   20.982313784
    2.274624374   23.525707441   25.064211090   21.080481830
    2.281803005   23.661515615   25.211570797   21.180165040
    2.288981636   23.799903257   25.361753366   21.281401233
    2.296160267   23.940953164   25.514850189   21.384230243
    2.303338898   24.084751996   25.670956115   21.488693685
    2.310517529   24.231390364   25.830170475   21.594833923
    2.317696160   24.380963241   25.992597668   21.702694898
    2.324874791   24.533571286   26.158347629   21.812322907
    2.332053422   24.689320413   26.327535752   21.923765995
    2.339232053   24.848321409   26.500283673   22.037073907
    2.346410684   25.010690962   26.676719486   22.152298540
    2.353589316   25.176551713   26.856977560   22.269493953
    2.360767947   25.346033101   27.041199606   22.388716522
    2.367946578   25.519271881   27.229535285   22.510025086
    2.375125209   25.696412576   27.422142687   22.633481048
    2.382303840   25.877608016   27.619188915   22.759148516
    2.389482471   26.063020030   27.820850882   22.887094550
    2.396661102   26.252820233   28.027316160   23.017389365
    2.403839733   26.447190616   28.238783483   23.150106333
    2.411018364   26.646324396   28.455463738   23.285322256
    2.418196995   26.850427054   28.677581082   23.423117640
    2.425375626   27.059717340   28.905374058   23.563576938
    2.432554257   27.274428317   29.139096781   23.706788788
    2.439732888   27.494808275   29.379020017   23.852846149
    2.446911519   27.721121571   29.625432440   24.001846486
    2.454090150   27.953652306   29.878643451   24.153892733
    2.461268781   28.192708956   30.138985665   24.309094243
    2.468447412   28.438618244   30.406812560   24.467565310
    2.475626043   28.691729396   30.682504184   24.629426179
    2.482804674   28.952422800   30.966474186   24.794804161
    2.489983306   29.221111253   31.259170001   24.963833886
    2.497161937   29.498238534   31.561072043   25.136657944
    2.504340568   29.784280217   31.872694263   25.313426422
    2.511519199   30.079752650   32.194594335   25.494299406
    2.518697830   30.385220620   32.527381646   25.679448283
    2.525876461   30.701301429   32.871721340   25.869053507
    2.533055092   31.028666402   33.228335842   26.063306655
    2.540233723   31.368050961   33.598015238   26.262412302
