# energy grid [eV]     ieps_x  ieps_y  ieps_z
#
    0.200000000    9.198132948    8.672954593    7.844573285
    0.207178631    9.195942830    8.670944721    7.842854549
    0.214357262    9.193677037    8.668865403    7.841076480
    0.221535893    9.191335727    8.666716783    7.839239206
    0.228714524    9.188919064    8.664499012    7.837342860
    0.235893155    9.186427215    8.662212242    7.835387578
    0.243071786    9.183860352    8.659856632    7.833373499
    0.250250417    9.181218653    8.657432344    7.831300768
    0.257429048    9.178502300    8.654939545    7.829169532
    0.264607679    9.175711480    8.652378406    7.826979941
    0.271786311    9.172846383    8.649749103    7.824732150
    0.278964942    9.169907207    8.647051813    7.822426316
    0.286143573    9.166894150    8.644286721    7.820062600
    0.293322204    9.163807417    8.641454014    7.817641168
    0.300500835    9.160647218    8.638553884    7.815162187
    0.307679466    9.157413767    8.635586524    7.812625827
    0.314858097    9.154107280    8.632552135    7.810032264
    0.322036728    9.150727980    8.629450919    7.807381674
    0.329215359    9.147276093    8.626283084    7.804674238
    0.336393990    9.143751848    8.623048838    7.801910140
    0.343572621    9.140155482    8.619748397    7.799089565
    0.350751252    9.136487230    8.616381978    7.796212703
    0.357929883    9.132747336    8.612949802    7.793279747
    0.365108514    9.128936047    8.609452094    7.790290891
    0.372287145    9.125053610    8.605889081    7.787246333
    0.379465776    9.121100281    8.602260996    7.784146273
    0.386644407    9.117076317    8.598568073    7.780990915
    0.393823038    9.112981978    8.594810549    7.777780464
    0.401001669    9.108817530    8.590988668    7.774515129
    0.408180301    9.104583240    8.587102672    7.771195119
    0.415358932    9.100279381    8.583152809    7.767820649
    0.422537563    9.095906226    8.579139331    7.764391933
    0.429716194    9.091464055    8.575062490    7.760909190
    0.436894825    9.086953150    8.570922543    7.757372639
    0.444073456    9.082373794    8.566719751    7.753782503
    0.451252087    9.077726277    8.562454374    7.750139005
    0.458430718    9.073010890    8.558126679    7.746442374
    0.465609349    9.068227926    8.553736932    7.742692837
    0.472787980    9.063377685    8.549285406    7.738890625
    0.479966611    9.058460465    8.544772372    7.735035971
    0.487145242    9.053476570    8.540198106    7.731129109
    0.494323873    9.048426306    8.535562888    7.727170276
    0.501502504    9.043309982    8.530866997    7.723159710
    0.508681135    9.038127910    8.526110716    7.719097652
    0.515859766    9.032880404    8.521294333    7.714984342
    0.523038397    9.027567780    8.516418133    7.710820025
    0.530217028    9.022190359    8.511482408    7.706604946
    0.537395659    9.016748463    8.506487450    7.702339352
    0.544574290    9.011242416    8.501433553    7.698023491
    0.551752922    9.005672544    8.496321014    7.693657613
    0.558931553    9.000039177    8.491150132    7.689241969
    0.566110184    8.994342647    8.485921207    7.684776813
    0.573288815    8.988583288    8.480634544    7.680262399
    0.580467446    8.982761435    8.475290445    7.675698982
    0.587646077    8.976877426    8.469889218    7.671086820
    0.594824708    8.970931602    8.464431172    7.666426171
    0.602003339    8.964924305    8.458916616    7.661717295
    0.609181970    8.958855880    8.453345862    7.656960452
    0.616360601    8.952726672    8.447719225    7.652155905
    0.623539232    8.946537029    8.442037019    7.647303916
    0.630717863    8.940287302    8.436299563    7.642404751
    0.637896494    8.933977843    8.430507173    7.637458674
    0.645075125    8.927609004    8.424660171    7.632465952
    0.652253756    8.921181140    8.418758877    7.627426853
    0.659432387    8.914694610    8.412803616    7.622341645
    0.666611018    8.908149770    8.406794710    7.617210597
    0.673789649    8.901546982    8.400732488    7.612033981
    0.680968280    8.894886605    8.394617274    7.606812067
    0.688146912    8.888169004    8.388449398    7.601545128
    0.695325543    8.881394543    8.382229189    7.596233436
    0.702504174    8.874563587    8.375956979    7.590877265
    0.709682805    8.867676503    8.369633098    7.585476891
    0.716861436    8.860733660    8.363257881    7.580032589
    0.724040067    8.853735427    8.356831662    7.574544634
    0.731218698    8.846682175    8.350354775    7.569013303
    0.738397329    8.839574276    8.343827557    7.563438874
    0.745575960    8.832412102    8.337250345    7.557821626
    0.752754591    8.825196027    8.330623477    7.552161836
    0.759933222    8.817926427    8.323947293    7.546459785
    0.767111853    8.810603678    8.317222132    7.540715752
    0.774290484    8.803228156    8.310448335    7.534930017
    0.781469115    8.795800240    8.303626243    7.529102863
    0.788647746    8.788320307    8.296756199    7.523234569
    0.795826377    8.780788738    8.289838546    7.517325419
    0.803005008    8.773205913    8.282873627    7.511375694
    0.810183639    8.765572213    8.275861787    7.505385677
    0.817362270    8.757888018    8.268803370    7.499355653
    0.824540902    8.750153713    8.261698722    7.493285903
    0.831719533    8.742369679    8.254548190    7.487176713
    0.838898164    8.734536301    8.247352119    7.481028366
    0.846076795    8.726653962    8.240110856    7.474841148
    0.853255426    8.718723046    8.232824750    7.468615343
    0.860434057    8.710743940    8.225494148    7.462351236
    0.867612688    8.702717028    8.218119398    7.456049113
    0.874791319    8.694642696    8.210700849    7.449709260
    0.881969950    8.686521330    8.203238850    7.443331961
    0.889148581    8.678353318    8.195733750    7.436917505
    0.896327212    8.670139046    8.188185899    7.430466176
    0.903505843    8.661878900    8.180595647    7.423978261
    0.910684474    8.653573269    8.172963343    7.417454046
    0.917863105    8.645222539    8.165289337    7.410893818
    0.925041736    8.636827099    8.157573981    7.404297865
    0.932220367    8.628387336    8.149817624    7.397666472
    0.939398998    8.619903638    8.142020616    7.390999926
    0.946577629    8.611376393    8.134183309    7.384298514
    0.953756260    8.602805989    8.126306053    7.377562524
    0.960934891    8.594192814    8.118389198    7.370792241
    0.968113523    8.585537255    8.110433095    7.363987953
    0.975292154    8.576839701    8.102438095    7.357149947
    0.982470785    8.568100539    8.094404548    7.350278508
    0.989649416    8.559320156    8.086332805    7.343373924
    0.996828047    8.550498941    8.078223215    7.336436482
    1.004006678    8.541637280    8.070076128    7.329466467
    1.011185309    8.532735561    8.061891895    7.322464167
    1.018363940    8.523794169    8.053670866    7.315429866
    1.025542571    8.514813492    8.045413389    7.308363851
    1.032721202    8.505793915    8.037119813    7.301266408
    1.039899833    8.496735825    8.028790489    7.294137822
    1.047078464    8.487639607    8.020425764    7.286978379
    1.054257095    8.478505645    8.012025986    7.279788364
    1.061435726    8.469334325    8.003591505    7.272568061
    1.068614357    8.460126031    7.995122666    7.265317756
    1.075792988    8.450881145    7.986619817    7.258037732
    1.082971619    8.441600053    7.978083305    7.250728273
    1.090150250    8.432283135    7.969513477    7.243389664
    1.097328881    8.422930774    7.960910678    7.236022187
    1.104507513    8.413543352    7.952275253    7.228626125
    1.111686144    8.404121250    7.943607547    7.221201761
    1.118864775    8.394664847    7.934907905    7.213749378
    1.126043406    8.385174524    7.926176670    7.206269257
    1.133222037    8.375650660    7.917414185    7.198761680
    1.140400668    8.366093632    7.908620794    7.191226927
    1.147579299    8.356503818    7.899796837    7.183665279
    1.154757930    8.346881595    7.890942656    7.176077017
    1.161936561    8.337227338    7.882058592    7.168462420
    1.169115192    8.327541424    7.873144985    7.160821767
    1.176293823    8.317824227    7.864202174    7.153155337
    1.183472454    8.308076119    7.855230498    7.145463407
    1.190651085    8.298297474    7.846230294    7.137746256
    1.197829716    8.288488663    7.837201899    7.130004161
    1.205008347    8.278650058    7.828145650    7.122237399
    1.212186978    8.268782027    7.819061882    7.114446244
    1.219365609    8.258884941    7.809950930    7.106630973
    1.226544240    8.248959168    7.800813128    7.098791860
    1.233722871    8.239005073    7.791648809    7.090929180
    1.240901503    8.229023024    7.782458304    7.083043206
    1.248080134    8.219013385    7.773241946    7.075134211
    1.255258765    8.208976521    7.764000063    7.067202467
    1.262437396    8.198912794    7.754732987    7.059248246
    1.269616027    8.188822565    7.745441045    7.051271819
    1.276794658    8.178706197    7.736124565    7.043273457
    1.283973289    8.168564048    7.726783874    7.035253428
    1.291151920    8.158396477    7.717419296    7.027212001
    1.298330551    8.148203841    7.708031158    7.019149445
    1.305509182    8.137986496    7.698619782    7.011066028
    1.312687813    8.127744798    7.689185490    7.002962015
    1.319866444    8.117479099    7.679728605    6.994837672
    1.327045075    8.107189753    7.670249447    6.986693266
    1.334223706    8.096877111    7.660748335    6.978529060
    1.341402337    8.086541522    7.651225588    6.970345317
    1.348580968    8.076183336    7.641681523    6.962142301
    1.355759599    8.065802901    7.632116455    6.953920273
    1.362938230    8.055400561    7.622530701    6.945679495
    1.370116861    8.044976663    7.612924573    6.937420227
    1.377295492    8.034531549    7.603298384    6.929142728
    1.384474124    8.024065562    7.593652447    6.920847257
    1.391652755    8.013579043    7.583987071    6.912534071
    1.398831386    8.003072331    7.574302565    6.904203429
    1.406010017    7.992545765    7.564599238    6.895855584
    1.413188648    7.981999680    7.554877396    6.887490793
    1.420367279    7.971434413    7.545137344    6.879109310
    1.427545910    7.960850297    7.535379388    6.870711388
    1.434724541    7.950247665    7.525603829    6.862297280
    1.441903172    7.939626847    7.515810970    6.853867236
    1.449081803    7.928988173    7.506001111    6.845421507
    1.456260434    7.918331972    7.496174552    6.836960344
    1.463439065    7.907658570    7.486331590    6.828483994
    1.470617696    7.896968292    7.476472522    6.819992704
    1.477796327    7.886261461    7.466597644    6.811486723
    1.484974958    7.875538401    7.456707248    6.802966294
    1.492153589    7.864799430    7.446801629    6.794431664
    1.499332220    7.854044869    7.436881077    6.785883076
    1.506510851    7.843275036    7.426945883    6.777320771
    1.513689482    7.832490245    7.416996334    6.768744993
    1.520868114    7.821690811    7.407032719    6.760155981
    1.528046745    7.810877048    7.397055323    6.751553976
    1.535225376    7.800049267    7.387064431    6.742939215
    1.542404007    7.789207777    7.377060325    6.734311937
    1.549582638    7.778352886    7.367043288    6.725672377
    1.556761269    7.767484901    7.357013600    6.717020772
    1.563939900    7.756604128    7.346971540    6.708357356
    1.571118531    7.745710868    7.336917385    6.699682361
    1.578297162    7.734805425    7.326851412    6.690996021
    1.585475793    7.723888097    7.316773895    6.682298566
    1.592654424    7.712959185    7.306685107    6.673590226
    1.599833055    7.702018983    7.296585320    6.664871231
    1.607011686    7.691067788    7.286474805    6.656141808
    1.614190317    7.680105893    7.276353830    6.647402184
    1.621368948    7.669133590    7.266222663    6.638652585
    1.628547579    7.658151169    7.256081570    6.629893235
    1.635726210    7.647158918    7.245930815    6.621124357
    1.642904841    7.636157125    7.235770661    6.612346175
    1.650083472    7.625146075    7.225601370    6.603558909
    1.657262104    7.614126051    7.215423202    6.594762780
    1.664440735    7.603097335    7.205236416    6.585958006
    1.671619366    7.592060208    7.195041268    6.577144804
    1.678797997    7.581014947    7.184838014    6.568323393
    1.685976628    7.569961829    7.174626909    6.559493986
    1.693155259    7.558901130    7.164408204    6.550656799
    1.700333890    7.547833123    7.154182152    6.541812045
    1.707512521    7.536758080    7.143949001    6.532959936
    1.714691152    7.525676270    7.133708999    6.524100682
    1.721869783    7.514587962    7.123462394    6.515234494
    1.729048414    7.503493422    7.113209430    6.506361579
    1.736227045    7.492392915    7.102950351    6.497482146
    1.743405676    7.481286705    7.092685398    6.488596400
    1.750584307    7.470175053    7.082414813    6.479704546
    1.757762938    7.459058217    7.072138833    6.470806789
    1.764941569    7.447936457    7.061857697    6.461903330
    1.772120200    7.436810029    7.051571641    6.452994372
    1.779298831    7.425679186    7.041280898    6.444080114
    1.786477462    7.414544183    7.030985702    6.435160756
    1.793656093    7.403405269    7.020686284    6.426236496
    1.800834725    7.392262695    7.010382874    6.417307530
    1.808013356    7.381116708    7.000075699    6.408374054
    1.815191987    7.369967553    6.989764987    6.399436262
    1.822370618    7.358815475    6.979450963    6.390494347
    1.829549249    7.347660717    6.969133850    6.381548501
    1.836727880    7.336503518    6.958813871    6.372598915
    1.843906511    7.325344119    6.948491245    6.363645778
    1.851085142    7.314182756    6.938166193    6.354689279
    1.858263773    7.303019665    6.927838931    6.345729604
    1.865442404    7.291855080    6.917509675    6.336766940
    1.872621035    7.280689233    6.907178640    6.327801471
    1.879799666    7.269522354    6.896846039    6.318833381
    1.886978297    7.258354671    6.886512082    6.309862852
    1.894156928    7.247186413    6.876176981    6.300890065
    1.901335559    7.236017804    6.865840942    6.291915200
    1.908514190    7.224849067    6.855504174    6.282938436
    1.915692821    7.213680425    6.845166880    6.273959949
    1.922871452    7.202512098    6.834829265    6.264979917
    1.930050083    7.191344303    6.824491531    6.255998514
    1.937228715    7.180177258    6.814153878    6.247015914
    1.944407346    7.169011178    6.803816506    6.238032289
    1.951585977    7.157846276    6.793479612    6.229047812
    1.958764608    7.146682763    6.783143393    6.220062652
    1.965943239    7.135520851    6.772808042    6.211076978
    1.973121870    7.124360745    6.762473753    6.202090959
    1.980300501    7.113202655    6.752140717    6.193104760
    1.987479132    7.102046783    6.741809124    6.184118547
    1.994657763    7.090893334    6.731479164    6.175132484
    2.001836394    7.079742508    6.721151022    6.166146735
    2.009015025    7.068594507    6.710824885    6.157161460
    2.016193656    7.057449527    6.700500936    6.148176821
    2.023372287    7.046307765    6.690179359    6.139192978
    2.030550918    7.035169417    6.679860333    6.130210087
    2.037729549    7.024034676    6.669544038    6.121228306
    2.044908180    7.012903732    6.659230654    6.112247792
    2.052086811    7.001776776    6.648920355    6.103268698
    2.059265442    6.990653997    6.638613317    6.094291178
    2.066444073    6.979535580    6.628309715    6.085315384
    2.073622705    6.968421711    6.618009719    6.076341468
    2.080801336    6.957312573    6.607713501    6.067369579
    2.087979967    6.946208348    6.597421230    6.058399866
    2.095158598    6.935109216    6.587133073    6.049432477
    2.102337229    6.924015355    6.576849198    6.040467557
    2.109515860    6.912926943    6.566569768    6.031505253
    2.116694491    6.901844154    6.556294947    6.022545707
    2.123873122    6.890767163    6.546024898    6.013589064
    2.131051753    6.879696140    6.535759780    6.004635464
    2.138230384    6.868631258    6.525499754    5.995685048
    2.145409015    6.857572685    6.515244975    5.986737956
    2.152587646    6.846520588    6.504995602    5.977794326
    2.159766277    6.835475133    6.494751787    5.968854294
    2.166944908    6.824436484    6.484513686    5.959917997
    2.174123539    6.813404804    6.474281450    5.950985569
    2.181302170    6.802380254    6.464055230    5.942057145
    2.188480801    6.791362993    6.453835174    5.933132856
    2.195659432    6.780353180    6.443621431    5.924212834
    2.202838063    6.769350971    6.433414146    5.915297209
    2.210016694    6.758356521    6.423213466    5.906386110
    2.217195326    6.747369983    6.413019534    5.897479665
    2.224373957    6.736391510    6.402832491    5.888578001
    2.231552588    6.725421251    6.392652479    5.879681244
    2.238731219    6.714459356    6.382479638    5.870789518
    2.245909850    6.703505971    6.372314106    5.861902947
    2.253088481    6.692561244    6.362156018    5.853021653
    2.260267112    6.681625318    6.352005512    5.844145757
    2.267445743    6.670698336    6.341862721    5.835275379
    2.274624374    6.659780440    6.331727778    5.826410640
    2.281803005    6.648871770    6.321600814    5.817551655
    2.288981636    6.637972464    6.311481960    5.808698543
    2.296160267    6.627082660    6.301371344    5.799851419
    2.303338898    6.616202492    6.291269094    5.791010398
    2.310517529    6.605332096    6.281175336    5.782175593
    2.317696160    6.594471604    6.271090196    5.773347117
    2.324874791    6.583621148    6.261013796    5.764525082
    2.332053422    6.572780856    6.250946259    5.755709598
    2.339232053    6.561950859    6.240887707    5.746900773
    2.346410684    6.551131283    6.230838258    5.738098718
    2.353589316    6.540322253    6.220798032    5.729303538
    2.360767947    6.529523895    6.210767145    5.720515340
    2.367946578    6.518736331    6.200745715    5.711734229
    2.375125209    6.507959683    6.190733854    5.702960309
    2.382303840    6.497194070    6.180731678    5.694193684
    2.389482471    6.486439613    6.170739298    5.685434455
    2.396661102    6.475696428    6.160756825    5.676682723
    2.403839733    6.464964631    6.150784369    5.667938589
    2.411018364    6.454244338    6.140822039    5.659202150
    2.418196995    6.443535662    6.130869942    5.650473506
    2.425375626    6.432838715    6.120928184    5.641752753
    2.432554257    6.422153607    6.110996870    5.633039988
    2.439732888    6.411480449    6.101076103    5.624335304
    2.446911519    6.400819349    6.091165988    5.615638796
    2.454090150    6.390170414    6.081266624    5.606950557
    2.461268781    6.379533749    6.071378112    5.598270679
    2.468447412    6.368909459    6.061500551    5.589599253
    2.475626043    6.358297647    6.051634039    5.580936369
    2.482804674    6.347698415    6.041778673    5.572282116
    2.489983306    6.337111863    6.031934548    5.563636581
    2.497161937    6.326538091    6.022101759    5.554999853
    2.504340568    6.315977196    6.012280398    5.546372017
    2.511519199    6.305429277    6.002470559    5.537753159
    2.518697830    6.294894428    5.992672332    5.529143362
    2.525876461    6.284372743    5.982885808    5.520542711
    2.533055092    6.273864317    5.973111074    5.511951287
    2.540233723    6.263369241    5.963348219    5.503369171
