# energy grid [eV]     ieps_x  ieps_y  ieps_z
#
    0.200000000   12.415325928   10.775195021   11.978108903
    0.207178631   12.411348066   10.771622964   11.974260219
    0.214357262   12.407240448   10.767935763   11.970285617
    0.221535893   12.403004010   10.764134380   11.966185969
    0.228714524   12.398639696   10.760219789   11.961962154
    0.235893155   12.394148460   10.756192968   11.957615062
    0.243071786   12.389531262   10.752054905   11.953145587
    0.250250417   12.384789066   10.747806593   11.948554629
    0.257429048   12.379922842   10.743449027   11.943843094
    0.264607679   12.374933563   10.738983208   11.939011887
    0.271786311   12.369822204   10.734410136   11.934061919
    0.278964942   12.364589741   10.729730812   11.928994101
    0.286143573   12.359237148   10.724946237   11.923809343
    0.293322204   12.353765402   10.720057410   11.918508557
    0.300500835   12.348175474   10.715065328   11.913092650
    0.307679466   12.342468336   10.709970983   11.907562530
    0.314858097   12.336644954   10.704775365   11.901919101
    0.322036728   12.330706291   10.699479456   11.896163264
    0.329215359   12.324653306   10.694084235   11.890295915
    0.336393990   12.318486952   10.688590673   11.884317948
    0.343572621   12.312208176   10.682999735   11.878230250
    0.350751252   12.305817920   10.677312377   11.872033703
    0.357929883   12.299317119   10.671529548   11.865729183
    0.365108514   12.292706699   10.665652189   11.859317562
    0.372287145   12.285987582   10.659681230   11.852799704
    0.379465776   12.279160681   10.653617594   11.846176466
    0.386644407   12.272226900   10.647462194   11.839448700
    0.393823038   12.265187136   10.641215932   11.832617251
    0.401001669   12.258042280   10.634879702   11.825682954
    0.408180301   12.250793210   10.628454386   11.818646641
    0.415358932   12.243440800   10.621940857   11.811509134
    0.422537563   12.235985914   10.615339978   11.804271249
    0.429716194   12.228429407   10.608652598   11.796933795
    0.436894825   12.220772126   10.601879561   11.789497572
    0.444073456   12.213014909   10.595021696   11.781963376
    0.451252087   12.205158587   10.588079824   11.774331992
    0.458430718   12.197203982   10.581054754   11.766604200
    0.465609349   12.189151907   10.573947285   11.758780773
    0.472787980   12.181003167   10.566758208   11.750862476
    0.479966611   12.172758559   10.559488300   11.742850068
    0.487145242   12.164418873   10.552138329   11.734744302
    0.494323873   12.155984889   10.544709055   11.726545921
    0.501502504   12.147457383   10.537201227   11.718255666
    0.508681135   12.138837119   10.529615582   11.709874267
    0.515859766   12.130124857   10.521952851   11.701402453
    0.523038397   12.121321347   10.514213754   11.692840941
    0.530217028   12.112427334   10.506399001   11.684190447
    0.537395659   12.103443556   10.498509295   11.675451678
    0.544574290   12.094370743   10.490545327   11.666625338
    0.551752922   12.085209619   10.482507784   11.657712123
    0.558931553   12.075960903   10.474397339   11.648712724
    0.566110184   12.066625305   10.466214662   11.639627829
    0.573288815   12.057203531   10.457960412   11.630458119
    0.580467446   12.047696280   10.449635240   11.621204271
    0.587646077   12.038104248   10.441239791   11.611866956
    0.594824708   12.028428121   10.432774701   11.602446842
    0.602003339   12.018668583   10.424240601   11.592944592
    0.609181970   12.008826313   10.415638112   11.583360865
    0.616360601   11.998901983   10.406967850   11.573696315
    0.623539232   11.988896261   10.398230424   11.563951593
    0.630717863   11.978809811   10.389426438   11.554127346
    0.637896494   11.968643292   10.380556487   11.544224216
    0.645075125   11.958397359   10.371621162   11.534242844
    0.652253756   11.948072662   10.362621048   11.524183865
    0.659432387   11.937669847   10.353556725   11.514047913
    0.666611018   11.927189558   10.344428764   11.503835617
    0.673789649   11.916632433   10.335237736   11.493547603
    0.680968280   11.905999107   10.325984202   11.483184496
    0.688146912   11.895290212   10.316668722   11.472746915
    0.695325543   11.884506376   10.307291849   11.462235480
    0.702504174   11.873648224   10.297854132   11.451650805
    0.709682805   11.862716379   10.288356116   11.440993504
    0.716861436   11.851711460   10.278798340   11.430264186
    0.724040067   11.840634082   10.269181341   11.419463461
    0.731218698   11.829484858   10.259505651   11.408591933
    0.738397329   11.818264401   10.249771799   11.397650206
    0.745575960   11.806973316   10.239980308   11.386638882
    0.752754591   11.795612211   10.230131700   11.375558560
    0.759933222   11.784181687   10.220226493   11.364409838
    0.767111853   11.772682346   10.210265200   11.353193312
    0.774290484   11.761114787   10.200248333   11.341909574
    0.781469115   11.749479605   10.190176399   11.330559217
    0.788647746   11.737777395   10.180049904   11.319142831
    0.795826377   11.726008749   10.169869349   11.307661005
    0.803005008   11.714174257   10.159635234   11.296114326
    0.810183639   11.702274508   10.149348055   11.284503378
    0.817362270   11.690310087   10.139008306   11.272828746
    0.824540902   11.678281580   10.128616479   11.261091012
    0.831719533   11.666189570   10.118173062   11.249290756
    0.838898164   11.654034637   10.107678542   11.237428558
    0.846076795   11.641817361   10.097133404   11.225504997
    0.853255426   11.629538320   10.086538130   11.213520648
    0.860434057   11.617198091   10.075893199   11.201476086
    0.867612688   11.604797247   10.065199091   11.189371887
    0.874791319   11.592336363   10.054456280   11.177208621
    0.881969950   11.579816010   10.043665241   11.164986862
    0.889148581   11.567236758   10.032826446   11.152707178
    0.896327212   11.554599177   10.021940366   11.140370138
    0.903505843   11.541903834   10.011007468   11.127976310
    0.910684474   11.529151294   10.000028221   11.115526261
    0.917863105   11.516342123    9.989003089   11.103020555
    0.925041736   11.503476885    9.977932536   11.090459757
    0.932220367   11.490556140    9.966817023   11.077844428
    0.939398998   11.477580450    9.955657012   11.065175131
    0.946577629   11.464550375    9.944452960   11.052452426
    0.953756260   11.451466472    9.933205326   11.039676872
    0.960934891   11.438329298    9.921914565   11.026849027
    0.968113523   11.425139408    9.910581132   11.013969446
    0.975292154   11.411897358    9.899205479   11.001038687
    0.982470785   11.398603700    9.887788059   10.988057303
    0.989649416   11.385258986    9.876329322   10.975025847
    0.996828047   11.371863765    9.864829717   10.961944871
    1.004006678   11.358418588    9.853289691   10.948814926
    1.011185309   11.344924002    9.841709690   10.935636560
    1.018363940   11.331380553    9.830090161   10.922410323
    1.025542571   11.317788787    9.818431546   10.909136760
    1.032721202   11.304149248    9.806734288   10.895816418
    1.039899833   11.290462478    9.794998829   10.882449840
    1.047078464   11.276729019    9.783225608   10.869037570
    1.054257095   11.262949411    9.771415064   10.855580149
    1.061435726   11.249124193    9.759567634   10.842078117
    1.068614357   11.235253901    9.747683755   10.828532014
    1.075792988   11.221339072    9.735763862   10.814942378
    1.082971619   11.207380240    9.723808389   10.801309744
    1.090150250   11.193377939    9.711817768   10.787634647
    1.097328881   11.179332701    9.699792431   10.773917621
    1.104507513   11.165245056    9.687732807   10.760159198
    1.111686144   11.151115532    9.675639326   10.746359908
    1.118864775   11.136944659    9.663512416   10.732520281
    1.126043406   11.122732961    9.651352502   10.718640845
    1.133222037   11.108480964    9.639160011   10.704722125
    1.140400668   11.094189191    9.626935366   10.690764647
    1.147579299   11.079858163    9.614678990   10.676768933
    1.154757930   11.065488401    9.602391304   10.662735504
    1.161936561   11.051080423    9.590072729   10.648664882
    1.169115192   11.036634747    9.577723683   10.634557585
    1.176293823   11.022151889    9.565344586   10.620414129
    1.183472454   11.007632362    9.552935852   10.606235029
    1.190651085   10.993076678    9.540497897   10.592020800
    1.197829716   10.978485350    9.528031135   10.577771953
    1.205008347   10.963858885    9.515535979   10.563488998
    1.212186978   10.949197792    9.503012839   10.549172444
    1.219365609   10.934502576    9.490462126   10.534822797
    1.226544240   10.919773742    9.477884249   10.520440564
    1.233722871   10.905011792    9.465279615   10.506026246
    1.240901503   10.890217227    9.452648629   10.491580345
    1.248080134   10.875390546    9.439991696   10.477103362
    1.255258765   10.860532247    9.427309219   10.462595794
    1.262437396   10.845642824    9.414601601   10.448058137
    1.269616027   10.830722773    9.401869241   10.433490886
    1.276794658   10.815772585    9.389112539   10.418894531
    1.283973289   10.800792749    9.376331892   10.404269565
    1.291151920   10.785783755    9.363527697   10.389616476
    1.298330551   10.770746089    9.350700347   10.374935749
    1.305509182   10.755680236    9.337850237   10.360227871
    1.312687813   10.740586677    9.324977757   10.345493322
    1.319866444   10.725465895    9.312083299   10.330732584
    1.327045075   10.710318368    9.299167251   10.315946136
    1.334223706   10.695144573    9.286230000   10.301134455
    1.341402337   10.679944984    9.273271933   10.286298014
    1.348580968   10.664720076    9.260293432   10.271437286
    1.355759599   10.649470319    9.247294882   10.256552742
    1.362938230   10.634196182    9.234276663   10.241644850
    1.370116861   10.618898132    9.221239155   10.226714077
    1.377295492   10.603576635    9.208182735   10.211760886
    1.384474124   10.588232152    9.195107781   10.196785740
    1.391652755   10.572865146    9.182014667   10.181789098
    1.398831386   10.557476074    9.168903766   10.166771418
    1.406010017   10.542065394    9.155775449   10.151733156
    1.413188648   10.526633560    9.142630087   10.136674764
    1.420367279   10.511181025    9.129468049   10.121596695
    1.427545910   10.495708239    9.116289699   10.106499396
    1.434724541   10.480215650    9.103095404   10.091383315
    1.441903172   10.464703704    9.089885527   10.076248895
    1.449081803   10.449172846    9.076660429   10.061096579
    1.456260434   10.433623517    9.063420470   10.045926807
    1.463439065   10.418056155    9.050166009   10.030740017
    1.470617696   10.402471200    9.036897401   10.015536643
    1.477796327   10.386869085    9.023615002   10.000317118
    1.484974958   10.371250244    9.010319164    9.985081873
    1.492153589   10.355615106    8.997010238    9.969831337
    1.499332220   10.339964102    8.983688575    9.954565935
    1.506510851   10.324297655    8.970354521    9.939286091
    1.513689482   10.308616191    8.957008422    9.923992226
    1.520868114   10.292920131    8.943650623    9.908684758
    1.528046745   10.277209894    8.930281466    9.893364105
    1.535225376   10.261485896    8.916901291    9.878030681
    1.542404007   10.245748553    8.903510436    9.862684896
    1.549582638   10.229998277    8.890109240    9.847327161
    1.556761269   10.214235477    8.876698036    9.831957881
    1.563939900   10.198460562    8.863277158    9.816577462
    1.571118531   10.182673935    8.849846938    9.801186306
    1.578297162   10.166876001    8.836407703    9.785784811
    1.585475793   10.151067160    8.822959783    9.770373375
    1.592654424   10.135247810    8.809503503    9.754952393
    1.599833055   10.119418346    8.796039186    9.739522257
    1.607011686   10.103579162    8.782567155    9.724083356
    1.614190317   10.087730650    8.769087730    9.708636077
    1.621368948   10.071873196    8.755601229    9.693180806
    1.628547579   10.056007189    8.742107967    9.677717925
    1.635726210   10.040133011    8.728608260    9.662247812
    1.642904841   10.024251044    8.715102420    9.646770847
    1.650083472   10.008361667    8.701590757    9.631287402
    1.657262104    9.992465256    8.688073581    9.615797852
    1.664440735    9.976562185    8.674551197    9.600302564
    1.671619366    9.960652826    8.661023910    9.584801907
    1.678797997    9.944737549    8.647492024    9.569296246
    1.685976628    9.928816720    8.633955838    9.553785942
    1.693155259    9.912890703    8.620415653    9.538271355
    1.700333890    9.896959860    8.606871765    9.522752843
    1.707512521    9.881024551    8.593324468    9.507230760
    1.714691152    9.865085133    8.579774057    9.491705458
    1.721869783    9.849141960    8.566220822    9.476177288
    1.729048414    9.833195384    8.552665053    9.460646595
    1.736227045    9.817245755    8.539107036    9.445113725
    1.743405676    9.801293421    8.525547057    9.429579020
    1.750584307    9.785338725    8.511985400    9.414042819
    1.757762938    9.769382010    8.498422344    9.398505459
    1.764941569    9.753423617    8.484858171    9.382967275
    1.772120200    9.737463881    8.471293157    9.367428599
    1.779298831    9.721503139    8.457727578    9.351889760
    1.786477462    9.705541723    8.444161706    9.336351085
    1.793656093    9.689579962    8.430595815    9.320812899
    1.800834725    9.673618184    8.417030172    9.305275523
    1.808013356    9.657656714    8.403465047    9.289739277
    1.815191987    9.641695875    8.389900703    9.274204478
    1.822370618    9.625735987    8.376337405    9.258671440
    1.829549249    9.609777368    8.362775415    9.243140475
    1.836727880    9.593820332    8.349214992    9.227611892
    1.843906511    9.577865193    8.335656394    9.212085998
    1.851085142    9.561912261    8.322099876    9.196563098
    1.858263773    9.545961844    8.308545692    9.181043493
    1.865442404    9.530014247    8.294994095    9.165527483
    1.872621035    9.514069774    8.281445333    9.150015364
    1.879799666    9.498128724    8.267899655    9.134507431
    1.886978297    9.482191397    8.254357307    9.119003976
    1.894156928    9.466258087    8.240818533    9.103505288
    1.901335559    9.450329089    8.227283574    9.088011655
    1.908514190    9.434404692    8.213752670    9.072523360
    1.915692821    9.418485187    8.200226061    9.057040686
    1.922871452    9.402570857    8.186703981    9.041563912
    1.930050083    9.386661988    8.173186665    9.026093316
    1.937228715    9.370758860    8.159674345    9.010629172
    1.944407346    9.354861753    8.146167252    8.995171752
    1.951585977    9.338970942    8.132665614    8.979721327
    1.958764608    9.323086702    8.119169657    8.964278163
    1.965943239    9.307209304    8.105679606    8.948842526
    1.973121870    9.291339018    8.092195684    8.933414678
    1.980300501    9.275476111    8.078718110    8.917994879
    1.987479132    9.259620847    8.065247104    8.902583387
    1.994657763    9.243773489    8.051782883    8.887180458
    2.001836394    9.227934295    8.038325661    8.871786344
    2.009015025    9.212103525    8.024875652    8.856401297
    2.016193656    9.196281433    8.011433066    8.841025563
    2.023372287    9.180468271    7.997998114    8.825659390
    2.030550918    9.164664290    7.984571001    8.810303020
    2.037729549    9.148869739    7.971151934    8.794956696
    2.044908180    9.133084863    7.957741116    8.779620655
    2.052086811    9.117309907    7.944338749    8.764295134
    2.059265442    9.101545110    7.930945032    8.748980367
    2.066444073    9.085790712    7.917560165    8.733676587
    2.073622705    9.070046950    7.904184341    8.718384022
    2.080801336    9.054314058    7.890817757    8.703102900
    2.087979967    9.038592269    7.877460603    8.687833447
    2.095158598    9.022881811    7.864113072    8.672575884
    2.102337229    9.007182914    7.850775351    8.657330432
    2.109515860    8.991495802    7.837447628    8.642097310
    2.116694491    8.975820697    7.824130086    8.626876732
    2.123873122    8.960157823    7.810822911    8.611668914
    2.131051753    8.944507396    7.797526282    8.596474066
    2.138230384    8.928869633    7.784240381    8.581292397
    2.145409015    8.913244750    7.770965384    8.566124115
    2.152587646    8.897632957    7.757701467    8.550969425
    2.159766277    8.882034464    7.744448805    8.535828528
    2.166944908    8.866449481    7.731207571    8.520701626
    2.174123539    8.850878211    7.717977934    8.505588916
    2.181302170    8.835320858    7.704760065    8.490490595
    2.188480801    8.819777625    7.691554129    8.475406857
    2.195659432    8.804248709    7.678360294    8.460337893
    2.202838063    8.788734308    7.665178721    8.445283893
    2.210016694    8.773234616    7.652009574    8.430245045
    2.217195326    8.757749827    7.638853012    8.415221533
    2.224373957    8.742280132    7.625709195    8.400213542
    2.231552588    8.726825718    7.612578278    8.385221253
    2.238731219    8.711386772    7.599460417    8.370244844
    2.245909850    8.695963478    7.586355765    8.355284493
    2.253088481    8.680556020    7.573264474    8.340340375
    2.260267112    8.665164577    7.560186695    8.325412662
    2.267445743    8.649789328    7.547122575    8.310501526
    2.274624374    8.634430448    7.534072261    8.295607135
    2.281803005    8.619088113    7.521035899    8.280729657
    2.288981636    8.603762494    7.508013631    8.265869256
    2.296160267    8.588453761    7.495005600    8.251026096
    2.303338898    8.573162083    7.482011945    8.236200336
    2.310517529    8.557887627    7.469032805    8.221392136
    2.317696160    8.542630555    7.456068317    8.206601654
    2.324874791    8.527391031    7.443118617    8.191829043
    2.332053422    8.512169216    7.430183837    8.177074457
    2.339232053    8.496965266    7.417264111    8.162338047
    2.346410684    8.481779340    7.404359568    8.147619963
    2.353589316    8.466611591    7.391470337    8.132920352
    2.360767947    8.451462173    7.378596547    8.118239358
    2.367946578    8.436331236    7.365738322    8.103577126
    2.375125209    8.421218928    7.352895787    8.088933798
    2.382303840    8.406125398    7.340069065    8.074309513
    2.389482471    8.391050791    7.327258277    8.059704409
    2.396661102    8.375995248    7.314463542    8.045118622
    2.403839733    8.360958914    7.301684979    8.030552287
    2.411018364    8.345941926    7.288922705    8.016005536
    2.418196995    8.330944422    7.276176834    8.001478500
    2.425375626    8.315966540    7.263447481    7.986971308
    2.432554257    8.301008412    7.250734757    7.972484087
    2.439732888    8.286070172    7.238038773    7.958016961
    2.446911519    8.271151950    7.225359639    7.943570056
    2.454090150    8.256253876    7.212697462    7.929143492
    2.461268781    8.241376075    7.200052349    7.914737390
    2.468447412    8.226518675    7.187424404    7.900351868
    2.475626043    8.211681798    7.174813732    7.885987043
    2.482804674    8.196865567    7.162220434    7.871643031
    2.489983306    8.182070101    7.149644611    7.857319943
    2.497161937    8.167295520    7.137086363    7.843017892
    2.504340568    8.152541940    7.124545786    7.828736988
    2.511519199    8.137809477    7.112022978    7.814477339
    2.518697830    8.123098244    7.099518034    7.800239052
    2.525876461    8.108408353    7.087031048    7.786022232
    2.533055092    8.093739915    7.074562112    7.771826983
    2.540233723    8.079093038    7.062111317    7.757653405
