# energy grid [eV]     epsr_x  epsr_y  epsr_z
#
    0.200000000    9.908519711   12.540609419   13.137065093
    0.207178631    9.910380194   12.543117912   13.139752785
    0.214357262    9.912307141   12.545716138   13.142536551
    0.221535893    9.914300643   12.548404230   13.145416530
    0.228714524    9.916360793   12.551182328   13.148392863
    0.235893155    9.918487690   12.554050576   13.151465695
    0.243071786    9.920681431   12.557009123   13.154635179
    0.250250417    9.922942121   12.560058123   13.157901471
    0.257429048    9.925269867   12.563197733   13.161264732
    0.264607679    9.927664777   12.566428118   13.164725128
    0.271786311    9.930126965   12.569749445   13.168282830
    0.278964942    9.932656547   12.573161888   13.171938014
    0.286143573    9.935253644   12.576665625   13.175690861
    0.293322204    9.937918376   12.580260840   13.179541558
    0.300500835    9.940650872   12.583947719   13.183490295
    0.307679466    9.943451260   12.587726458   13.187537269
    0.314858097    9.946319673   12.591597253   13.191682680
    0.322036728    9.949256248   12.595560309   13.195926736
    0.329215359    9.952261125   12.599615833   13.200269648
    0.336393990    9.955334446   12.603764040   13.204711633
    0.343572621    9.958476357   12.608005148   13.209252912
    0.350751252    9.961687010   12.612339382   13.213893713
    0.357929883    9.964966557   12.616766971   13.218634268
    0.365108514    9.968315155   12.621288149   13.223474816
    0.372287145    9.971732965   12.625903156   13.228415598
    0.379465776    9.975220150   12.630612239   13.233456864
    0.386644407    9.978776878   12.635415647   13.238598867
    0.393823038    9.982403321   12.640313637   13.243841867
    0.401001669    9.986099652   12.645306470   13.249186129
    0.408180301    9.989866050   12.650394414   13.254631921
    0.415358932    9.993702698   12.655577742   13.260179522
    0.422537563    9.997609779   12.660856731   13.265829210
    0.429716194   10.001587484   12.666231665   13.271581275
    0.436894825   10.005636006   12.671702836   13.277436007
    0.444073456   10.009755541   12.677270537   13.283393706
    0.451252087   10.013946290   12.682935070   13.289454676
    0.458430718   10.018208456   12.688696742   13.295619225
    0.465609349   10.022542249   12.694555866   13.301887670
    0.472787980   10.026947879   12.700512761   13.308260332
    0.479966611   10.031425562   12.706567751   13.314737538
    0.487145242   10.035975518   12.712721168   13.321319622
    0.494323873   10.040597971   12.718973348   13.328006923
    0.501502504   10.045293147   12.725324635   13.334799785
    0.508681135   10.050061279   12.731775377   13.341698561
    0.515859766   10.054902601   12.738325930   13.348703608
    0.523038397   10.059817354   12.744976657   13.355815289
    0.530217028   10.064805780   12.751727924   13.363033975
    0.537395659   10.069868128   12.758580106   13.370360040
    0.544574290   10.075004650   12.765533586   13.377793869
    0.551752922   10.080215600   12.772588749   13.385335849
    0.558931553   10.085501240   12.779745991   13.392986376
    0.566110184   10.090861833   12.787005712   13.400745852
    0.573288815   10.096297649   12.794368320   13.408614684
    0.580467446   10.101808961   12.801834229   13.416593289
    0.587646077   10.107396045   12.809403861   13.424682087
    0.594824708   10.113059184   12.817077643   13.432881507
    0.602003339   10.118798663   12.824856011   13.441191984
    0.609181970   10.124614775   12.832739407   13.449613959
    0.616360601   10.130507812   12.840728281   13.458147882
    0.623539232   10.136478076   12.848823090   13.466794209
    0.630717863   10.142525870   12.857024297   13.475553403
    0.637896494   10.148651504   12.865332374   13.484425932
    0.645075125   10.154855291   12.873747799   13.493412275
    0.652253756   10.161137549   12.882271060   13.502512916
    0.659432387   10.167498601   12.890902651   13.511728347
    0.666611018   10.173938776   12.899643073   13.521059067
    0.673789649   10.180458406   12.908492836   13.530505582
    0.680968280   10.187057828   12.917452457   13.540068406
    0.688146912   10.193737386   12.926522462   13.549748061
    0.695325543   10.200497426   12.935703386   13.559545078
    0.702504174   10.207338301   12.944995769   13.569459992
    0.709682805   10.214260370   12.954400162   13.579493349
    0.716861436   10.221263994   12.963917124   13.589645701
    0.724040067   10.228349543   12.973547221   13.599917611
    0.731218698   10.235517389   12.983291029   13.610309646
    0.738397329   10.242767911   12.993149133   13.620822385
    0.745575960   10.250101493   13.003122125   13.631456412
    0.752754591   10.257518524   13.013210608   13.642212323
    0.759933222   10.265019399   13.023415193   13.653090718
    0.767111853   10.272604520   13.033736499   13.664092209
    0.774290484   10.280274291   13.044175158   13.675217416
    0.781469115   10.288029124   13.054731806   13.686466966
    0.788647746   10.295869438   13.065407093   13.697841498
    0.795826377   10.303795654   13.076201677   13.709341656
    0.803005008   10.311808203   13.087116225   13.720968097
    0.810183639   10.319907518   13.098151416   13.732721485
    0.817362270   10.328094042   13.109307936   13.744602492
    0.824540902   10.336368220   13.120586483   13.756611802
    0.831719533   10.344730507   13.131987765   13.768750108
    0.838898164   10.353181361   13.143512502   13.781018111
    0.846076795   10.361721247   13.155161421   13.793416522
    0.853255426   10.370350638   13.166935263   13.805946064
    0.860434057   10.379070013   13.178834778   13.818607467
    0.867612688   10.387879854   13.190860728   13.831401474
    0.874791319   10.396780655   13.203013886   13.844328834
    0.881969950   10.405772912   13.215295035   13.857390311
    0.889148581   10.414857131   13.227704972   13.870586677
    0.896327212   10.424033822   13.240244504   13.883918714
    0.903505843   10.433303504   13.252914450   13.897387215
    0.910684474   10.442666703   13.265715641   13.910992986
    0.917863105   10.452123950   13.278648921   13.924736841
    0.925041736   10.461675784   13.291715146   13.938619606
    0.932220367   10.471322753   13.304915184   13.952642120
    0.939398998   10.481065410   13.318249918   13.966805230
    0.946577629   10.490904316   13.331720241   13.981109798
    0.953756260   10.500840041   13.345327063   13.995556695
    0.960934891   10.510873160   13.359071303   14.010146806
    0.968113523   10.521004258   13.372953893   14.024881025
    0.975292154   10.531233925   13.386975756   14.039760262
    0.982470785   10.541562762   13.401137772   14.054785435
    0.989649416   10.551991377   13.415440790   14.069957478
    0.996828047   10.562520384   13.429885985   14.085277336
    1.004006678   10.573150408   13.444474627   14.100745967
    1.011185309   10.583882082   13.459207640   14.116364343
    1.018363940   10.594716046   13.474085956   14.132133447
    1.025542571   10.605652948   13.489110595   14.148054277
    1.032721202   10.616693447   13.504282615   14.164127844
    1.039899833   10.627838209   13.519603098   14.180355172
    1.047078464   10.639087908   13.535073141   14.196737299
    1.054257095   10.650443230   13.550693858   14.213275279
    1.061435726   10.661904867   13.566466381   14.229970177
    1.068614357   10.673473522   13.582391857   14.246823075
    1.075792988   10.685149907   13.598471449   14.263835070
    1.082971619   10.696934744   13.614706340   14.281007271
    1.090150250   10.708828762   13.631097727   14.298340804
    1.097328881   10.720832704   13.647646829   14.315836811
    1.104507513   10.732947319   13.664354880   14.333496448
    1.111686144   10.745173368   13.681223134   14.351320887
    1.118864775   10.757511622   13.698252865   14.369311317
    1.126043406   10.769962862   13.715445363   14.387468941
    1.133222037   10.782527879   13.732801942   14.405794982
    1.140400668   10.795207476   13.750323933   14.424290676
    1.147579299   10.808002465   13.768012688   14.442957277
    1.154757930   10.820913669   13.785869579   14.461796058
    1.161936561   10.833941924   13.803896001   14.480808308
    1.169115192   10.847088076   13.822093370   14.499995333
    1.176293823   10.860352982   13.840463123   14.519358457
    1.183472454   10.873737511   13.859006720   14.538899024
    1.190651085   10.887242543   13.877725643   14.558618396
    1.197829716   10.900868971   13.896621398   14.578517951
    1.205008347   10.914617700   13.915695510   14.598599090
    1.212186978   10.928489646   13.934949513   14.618863231
    1.219365609   10.942485738   13.954384926   14.639311811
    1.226544240   10.956606917   13.974003306   14.659946288
    1.233722871   10.970854140   13.993806434   14.680768142
    1.240901503   10.985228375   14.013796048   14.701778873
    1.248080134   10.999730604   14.033973758   14.722980001
    1.255258765   11.014361818   14.054341228   14.744373067
    1.262437396   11.029123028   14.074900179   14.765959632
    1.269616027   11.044015253   14.095652372   14.787741282
    1.276794658   11.059039530   14.116599596   14.809719624
    1.283973289   11.074196910   14.137743670   14.831896287
    1.291151920   11.089488457   14.159086443   14.854272925
    1.298330551   11.104915250   14.180629794   14.876851213
    1.305509182   11.120478384   14.202375631   14.899632851
    1.312687813   11.136178968   14.224325896   14.922619563
    1.319866444   11.152018128   14.246482560   14.945813098
    1.327045075   11.167997004   14.268847630   14.969215229
    1.334223706   11.184116752   14.291423142   14.992827757
    1.341402337   11.200378547   14.314211171   15.016652504
    1.348580968   11.216783575   14.337213822   15.040691322
    1.355759599   11.233333041   14.360433239   15.064946084
    1.362938230   11.250028157   14.383871600   15.089418683
    1.370116861   11.266870158   14.407531121   15.114111047
    1.377295492   11.283860329   14.431414056   15.139025166
    1.384474124   11.300999957   14.455522697   15.164163041
    1.391652755   11.318290323   14.479859377   15.189526677
    1.398831386   11.335732732   14.504426467   15.215118109
    1.406010017   11.353328504   14.529226381   15.240939406
    1.413188648   11.371078978   14.554261573   15.266992660
    1.420367279   11.388985541   14.579534542   15.293280030
    1.427545910   11.407049610   14.605047831   15.319803722
    1.434724541   11.425272584   14.630804028   15.346565924
    1.441903172   11.443655885   14.656805765   15.373568863
    1.449081803   11.462200960   14.683055724   15.400814802
    1.456260434   11.480909279   14.709556634   15.428306045
    1.463439065   11.499782338   14.736311271   15.456044929
    1.470617696   11.518821651   14.763322466   15.484033827
    1.477796327   11.538028756   14.790593098   15.512275148
    1.484974958   11.557405215   14.818126099   15.540771337
    1.492153589   11.576952611   14.845924458   15.569524876
    1.499332220   11.596672550   14.873991217   15.598538286
    1.506510851   11.616566666   14.902329475   15.627814125
    1.513689482   11.636636612   14.930942389   15.657354992
    1.520868114   11.656884070   14.959833176   15.687163524
    1.528046745   11.677310746   14.989005114   15.717242401
    1.535225376   11.697918371   15.018461542   15.747594342
    1.542404007   11.718708703   15.048205860   15.778222109
    1.549582638   11.739683522   15.078241520   15.809128504
    1.556761269   11.760844624   15.108572046   15.840316368
    1.563939900   11.782193813   15.139201087   15.871788581
    1.571118531   11.803732962   15.170132344   15.903548089
    1.578297162   11.825464061   15.201369548   15.935597923
    1.585475793   11.847389040   15.232916514   15.967941118
    1.592654424   11.869509818   15.264777136   16.000580737
    1.599833055   11.891828367   15.296955391   16.033519904
    1.607011686   11.914346699   15.329455341   16.066761800
    1.614190317   11.937066863   15.362281125   16.100309656
    1.621368948   11.959990938   15.395436970   16.134166758
    1.628547579   11.983121040   15.428927192   16.168336446
    1.635726210   12.006459314   15.462756193   16.202822110
    1.642904841   12.030007942   15.496928468   16.237627201
    1.650083472   12.053769141   15.531448607   16.272755223
    1.657262104   12.077745161   15.566321297   16.308209739
    1.664440735   12.101938289   15.601551325   16.343994370
    1.671619366   12.126350851   15.637143578   16.380112798
    1.678797997   12.150985209   15.673103053   16.416568766
    1.685976628   12.175843763   15.709434856   16.453366081
    1.693155259   12.200928953   15.746144205   16.490508612
    1.700333890   12.226243260   15.783236428   16.528000296
    1.707512521   12.251789203   15.820716975   16.565845133
    1.714691152   12.277569345   15.858591417   16.604047194
    1.721869783   12.303586292   15.896865451   16.642610618
    1.729048414   12.329842692   15.935544904   16.681539617
    1.736227045   12.356341237   15.974635736   16.720838473
    1.743405676   12.383084665   16.014144046   16.760511546
    1.750584307   12.410075762   16.054076072   16.800563267
    1.757762938   12.437317358   16.094438200   16.840998147
    1.764941569   12.464812331   16.135236966   16.881820776
    1.772120200   12.492563611   16.176479063   16.923035823
    1.779298831   12.520574180   16.218171343   16.964648047
    1.786477462   12.548847070   16.260320823   17.006662285
    1.793656093   12.577385361   16.302934693   17.049083460
    1.800834725   12.606192195   16.346020320   17.091916587
    1.808013356   12.635270762   16.389585251   17.135166770
    1.815191987   12.664624311   16.433637224   17.178839204
    1.822370618   12.694256148   16.478184170   17.222939179
    1.829549249   12.724169635   16.523234223   17.267472084
    1.836727880   12.754368199   16.568795725   17.312443406
    1.843906511   12.784855325   16.614877232   17.357858732
    1.851085142   12.815634560   16.661487526   17.403723754
    1.858263773   12.846709518   16.708635618   17.450044271
    1.865442404   12.878083879   16.756330760   17.496826187
    1.872621035   12.909761380   16.804582452   17.544075506
    1.879799666   12.941745802   16.853400448   17.591798311
    1.886978297   12.974040992   16.902794768   17.640000792
    1.894156928   13.006650983   16.952775712   17.688689434
    1.901335559   13.039579883   17.003353864   17.737870845
    1.908514190   13.072831761   17.054540106   17.787551582
    1.915692821   13.106410767   17.106345625   17.837738340
    1.922871452   13.140321154   17.158781924   17.888437982
    1.930050083   13.174567263   17.211860835   17.939657516
    1.937228715   13.209153522   17.265594548   17.991404090
    1.944407346   13.244084446   17.319995636   18.043684996
    1.951585977   13.279364635   17.375077020   18.096507671
    1.958764608   13.314998776   17.430851995   18.149879700
    1.965943239   13.350991649   17.487334267   18.203808822
    1.973121870   13.387348126   17.544537961   18.258302932
    1.980300501   13.424073177   17.602477644   18.313370087
    1.987479132   13.461171873   17.661168360   18.369018508
    1.994657763   13.498649385   17.720625627   18.425256587
    2.001836394   13.536510987   17.780865434   18.482092889
    2.009015025   13.574762060   17.841904297   18.539536158
    2.016193656   13.613408092   17.903759272   18.597595324
    2.023372287   13.652454686   17.966447984   18.656279504
    2.030550918   13.691907561   18.029988648   18.715598010
    2.037729549   13.731772552   18.094400095   18.775560355
    2.044908180   13.772055617   18.159701803   18.836176255
    2.052086811   13.812762840   18.225913922   18.897455641
    2.059265442   13.853900431   18.293057312   18.959408657
    2.066444073   13.895474730   18.361153568   19.022045658
    2.073622705   13.937492208   18.430225052   19.085377168
    2.080801336   13.979959444   18.500294896   19.149413721
    2.087979967   14.022883107   18.571387011   19.214165641
    2.095158598   14.066270094   18.643526354   19.279644243
    2.102337229   14.110127663   18.716739135   19.345862998
    2.109515860   14.154463092   18.791052229   19.412833991
    2.116694491   14.199283682   18.866493393   19.480568587
    2.123873122   14.244596913   18.943091571   19.549078824
    2.131051753   14.290410498   19.020876929   19.618377306
    2.138230384   14.336732311   19.099880835   19.688476986
    2.145409015   14.383570397   19.180135940   19.759391126
    2.152587646   14.430932978   19.261676239   19.831133299
    2.159766277   14.478828445   19.344537144   19.903717397
    2.166944908   14.527265407   19.428755542   19.977157667
    2.174123539   14.576252717   19.514369922   20.051468693
    2.181302170   14.625799456   19.601420554   20.126665425
    2.188480801   14.675914973   19.689949474   20.202763230
    2.195659432   14.726608765   19.780000544   20.279777790
    2.202838063   14.777890479   19.871619619   20.357725146
    2.210016694   14.829770005   19.964854689   20.436621757
    2.217195326   14.882257475   20.059756009   20.516484507
    2.224373957   14.935363240   20.156376222   20.597330702
    2.231552588   14.989098028   20.254770550   20.679178112
    2.238731219   15.043472990   20.354997014   20.762044990
    2.245909850   15.098499358   20.457116476   20.845950030
    2.253088481   15.154188546   20.561192837   20.930912394
    2.260267112   15.210552287   20.667293315   21.016951748
    2.267445743   15.267602786   20.775488744   21.104088354
    2.274624374   15.325352588   20.885853764   21.192343037
    2.281803005   15.383814418   20.998466992   21.281737109
    2.288981636   15.443001346   21.113411393   21.372292467
    2.296160267   15.502926817   21.230774618   21.464031625
    2.303338898   15.563604626   21.350649343   21.556977723
    2.310517529   15.625048843   21.473133635   21.651154522
    2.317696160   15.687273570   21.598331331   21.746586339
    2.324874791   15.750292879   21.726352495   21.843298056
    2.332053422   15.814122981   21.857314212   21.941315832
    2.339232053   15.878781821   21.991341055   22.040667000
    2.346410684   15.944285280   22.128565187   22.141378860
    2.353589316   16.010649331   22.269127483   22.243479407
    2.360767947   16.077890951   22.413178246   22.346997564
    2.367946578   16.146027817   22.560877814   22.451962966
    2.375125209   16.215078207   22.712397685   22.558406251
    2.382303840   16.285061007   22.867921686   22.666359666
    2.389482471   16.355995632   23.027646948   22.775856880
    2.396661102   16.427902066   23.191784982   22.886931969
    2.403839733   16.500800921   23.360563130   22.999619481
    2.411018364   16.574713461   23.534226296   23.113955311
    2.418196995   16.649661630   23.713038709   23.229976708
    2.425375626   16.725668076   23.897285891   23.347722203
    2.432554257   16.802756178   24.087276914   23.467231610
    2.439732888   16.880950046   24.283346917   23.588546003
    2.446911519   16.960274511   24.485859974   23.711707686
    2.454090150   17.040755351   24.695212524   23.836760780
    2.461268781   17.122419611   24.911837115   23.963751374
    2.468447412   17.205294963   25.136206417   24.092726588
    2.475626043   17.289409816   25.368838343   24.223735862
    2.482804674   17.374793735   25.610301647   24.356830244
    2.489983306   17.461477784   25.861222512   24.492062483
    2.497161937   17.549494092   26.122292087   24.629487455
    2.504340568   17.638875575   26.394275148   24.769161915
    2.511519199   17.729656340   26.678020390   24.911144837
    2.518697830   17.821871874   26.974472510   25.055497705
    2.525876461   17.915559773   27.284686793   25.202285190
    2.533055092   18.010759127   27.609845467   25.351574563
    2.540233723   18.107510828   27.951277408   25.503436170
