# energy grid [eV]     ieps_x  ieps_y  ieps_z
#
    0.200000000    5.941369910    7.458760175    8.475672274
    0.207178631    5.940288682    7.457294241    8.474005246
    0.214357262    5.939169844    7.455777384    8.472280247
    0.221535893    5.938013448    7.454209685    8.470497360
    0.228714524    5.936819550    7.452591223    8.468656673
    0.235893155    5.935588207    7.450922085    8.466758273
    0.243071786    5.934319475    7.449202355    8.464802253
    0.250250417    5.933013417    7.447432124    8.462788707
    0.257429048    5.931670092    7.445611483    8.460717732
    0.264607679    5.930289565    7.443740527    8.458589427
    0.271786311    5.928871901    7.441819352    8.456403896
    0.278964942    5.927417166    7.439848058    8.454161242
    0.286143573    5.925925430    7.437826747    8.451861574
    0.293322204    5.924396761    7.435755522    8.449505002
    0.300500835    5.922831232    7.433634491    8.447091640
    0.307679466    5.921228917    7.431463761    8.444621601
    0.314858097    5.919589890    7.429243446    8.442095006
    0.322036728    5.917914228    7.426973659    8.439511974
    0.329215359    5.916202010    7.424654516    8.436872628
    0.336393990    5.914453315    7.422286136    8.434177094
    0.343572621    5.912668225    7.419868639    8.431425502
    0.350751252    5.910846824    7.417402150    8.428617980
    0.357929883    5.908989197    7.414886793    8.425754664
    0.365108514    5.907095428    7.412322697    8.422835688
    0.372287145    5.905165608    7.409709993    8.419861191
    0.379465776    5.903199824    7.407048811    8.416831314
    0.386644407    5.901198169    7.404339288    8.413746199
    0.393823038    5.899160734    7.401581560    8.410605993
    0.401001669    5.897087614    7.398775766    8.407410842
    0.408180301    5.894978905    7.395922049    8.404160899
    0.415358932    5.892834703    7.393020550    8.400856314
    0.422537563    5.890655108    7.390071417    8.397497244
    0.429716194    5.888440219    7.387074796    8.394083846
    0.436894825    5.886190138    7.384030838    8.390616278
    0.444073456    5.883904969    7.380939695    8.387094704
    0.451252087    5.881584815    7.377801520    8.383519288
    0.458430718    5.879229782    7.374616471    8.379890195
    0.465609349    5.876839979    7.371384705    8.376207595
    0.472787980    5.874415513    7.368106383    8.372471658
    0.479966611    5.871956496    7.364781666    8.368682557
    0.487145242    5.869463038    7.361410719    8.364840469
    0.494323873    5.866935252    7.357993708    8.360945570
    0.501502504    5.864373253    7.354530800    8.356998039
    0.508681135    5.861777157    7.351022167    8.352998059
    0.515859766    5.859147080    7.347467980    8.348945813
    0.523038397    5.856483140    7.343868411    8.344841487
    0.530217028    5.853785459    7.340223638    8.340685268
    0.537395659    5.851054155    7.336533837    8.336477347
    0.544574290    5.848289352    7.332799188    8.332217915
    0.551752922    5.845491173    7.329019870    8.327907167
    0.558931553    5.842659743    7.325196068    8.323545298
    0.566110184    5.839795188    7.321327965    8.319132505
    0.573288815    5.836897634    7.317415748    8.314668989
    0.580467446    5.833967211    7.313459604    8.310154951
    0.587646077    5.831004047    7.309459722    8.305590594
    0.594824708    5.828008275    7.305416294    8.300976124
    0.602003339    5.824980025    7.301329512    8.296311747
    0.609181970    5.821919430    7.297199571    8.291597673
    0.616360601    5.818826626    7.293026666    8.286834113
    0.623539232    5.815701748    7.288810995    8.282021277
    0.630717863    5.812544931    7.284552757    8.277159382
    0.637896494    5.809356314    7.280252151    8.272248642
    0.645075125    5.806136036    7.275909381    8.267289275
    0.652253756    5.802884235    7.271524648    8.262281501
    0.659432387    5.799601054    7.267098158    8.257225540
    0.666611018    5.796286633    7.262630117    8.252121614
    0.673789649    5.792941115    7.258120732    8.246969948
    0.680968280    5.789564646    7.253570212    8.241770767
    0.688146912    5.786157368    7.248978767    8.236524299
    0.695325543    5.782719429    7.244346609    8.231230771
    0.702504174    5.779250976    7.239673950    8.225890415
    0.709682805    5.775752155    7.234961004    8.220503462
    0.716861436    5.772223115    7.230207986    8.215070144
    0.724040067    5.768664007    7.225415113    8.209590697
    0.731218698    5.765074981    7.220582603    8.204065356
    0.738397329    5.761456188    7.215710673    8.198494358
    0.745575960    5.757807780    7.210799544    8.192877943
    0.752754591    5.754129912    7.205849437    8.187216349
    0.759933222    5.750422735    7.200860573    8.181509819
    0.767111853    5.746686407    7.195833176    8.175758595
    0.774290484    5.742921082    7.190767469    8.169962920
    0.781469115    5.739126916    7.185663679    8.164123040
    0.788647746    5.735304067    7.180522030    8.158239200
    0.795826377    5.731452693    7.175342750    8.152311649
    0.803005008    5.727572953    7.170126067    8.146340634
    0.810183639    5.723665006    7.164872209    8.140326405
    0.817362270    5.719729012    7.159581407    8.134269213
    0.824540902    5.715765132    7.154253891    8.128169310
    0.831719533    5.711773528    7.148889893    8.122026949
    0.838898164    5.707754361    7.143489644    8.115842383
    0.846076795    5.703707796    7.138053378    8.109615868
    0.853255426    5.699633995    7.132581328    8.103347659
    0.860434057    5.695533123    7.127073730    8.097038013
    0.867612688    5.691405345    7.121530817    8.090687188
    0.874791319    5.687250825    7.115952827    8.084295443
    0.881969950    5.683069730    7.110339996    8.077863037
    0.889148581    5.678862227    7.104692561    8.071390230
    0.896327212    5.674628481    7.099010760    8.064877285
    0.903505843    5.670368663    7.093294831    8.058324463
    0.910684474    5.666082938    7.087545013    8.051732026
    0.917863105    5.661771476    7.081761547    8.045100239
    0.925041736    5.657434446    7.075944672    8.038429365
    0.932220367    5.653072018    7.070094628    8.031719671
    0.939398998    5.648684361    7.064211658    8.024971421
    0.946577629    5.644271647    7.058296002    8.018184882
    0.953756260    5.639834046    7.052347903    8.011360321
    0.960934891    5.635371729    7.046367602    8.004498006
    0.968113523    5.630884868    7.040355343    7.997598204
    0.975292154    5.626373636    7.034311370    7.990661186
    0.982470785    5.621838205    7.028235924    7.983687220
    0.989649416    5.617278748    7.022129251    7.976676576
    0.996828047    5.612695438    7.015991595    7.969629525
    1.004006678    5.608088448    7.009823199    7.962546337
    1.011185309    5.603457952    7.003624309    7.955427285
    1.018363940    5.598804125    6.997395170    7.948272638
    1.025542571    5.594127141    6.991136026    7.941082671
    1.032721202    5.589427174    6.984847124    7.933857654
    1.039899833    5.584704400    6.978528708    7.926597863
    1.047078464    5.579958993    6.972181025    7.919303568
    1.054257095    5.575191130    6.965804320    7.911975045
    1.061435726    5.570400985    6.959398839    7.904612567
    1.068614357    5.565588734    6.952964828    7.897216408
    1.075792988    5.560754554    6.946502534    7.889786843
    1.082971619    5.555898621    6.940012202    7.882324146
    1.090150250    5.551021110    6.933494079    7.874828592
    1.097328881    5.546122199    6.926948410    7.867300456
    1.104507513    5.541202063    6.920375443    7.859740013
    1.111686144    5.536260881    6.913775423    7.852147540
    1.118864775    5.531298827    6.907148597    7.844523310
    1.126043406    5.526316080    6.900495210    7.836867600
    1.133222037    5.521312816    6.893815508    7.829180685
    1.140400668    5.516289212    6.887109738    7.821462842
    1.147579299    5.511245445    6.880378146    7.813714345
    1.154757930    5.506181692    6.873620976    7.805935471
    1.161936561    5.501098131    6.866838474    7.798126495
    1.169115192    5.495994938    6.860030886    7.790287693
    1.176293823    5.490872291    6.853198457    7.782419340
    1.183472454    5.485730366    6.846341431    7.774521713
    1.190651085    5.480569341    6.839460054    7.766595087
    1.197829716    5.475389393    6.832554569    7.758639737
    1.205008347    5.470190699    6.825625222    7.750655939
    1.212186978    5.464973434    6.818672255    7.742643968
    1.219365609    5.459737778    6.811695913    7.734604098
    1.226544240    5.454483905    6.804696438    7.726536605
    1.233722871    5.449211993    6.797674074    7.718441763
    1.240901503    5.443922217    6.790629064    7.710319847
    1.248080134    5.438614756    6.783561649    7.702171130
    1.255258765    5.433289784    6.776472071    7.693995888
    1.262437396    5.427947477    6.769360573    7.685794393
    1.269616027    5.422588012    6.762227395    7.677566918
    1.276794658    5.417211565    6.755072777    7.669313738
    1.283973289    5.411818311    6.747896960    7.661035124
    1.291151920    5.406408424    6.740700185    7.652731349
    1.298330551    5.400982081    6.733482689    7.644402684
    1.305509182    5.395539456    6.726244712    7.636049403
    1.312687813    5.390080725    6.718986493    7.627671775
    1.319866444    5.384606060    6.711708268    7.619270072
    1.327045075    5.379115637    6.704410276    7.610844565
    1.334223706    5.373609630    6.697092753    7.602395522
    1.341402337    5.368088212    6.689755936    7.593923214
    1.348580968    5.362551556    6.682400060    7.585427909
    1.355759599    5.356999836    6.675025360    7.576909877
    1.362938230    5.351433224    6.667632071    7.568369385
    1.370116861    5.345851893    6.660220426    7.559806701
    1.377295492    5.340256015    6.652790659    7.551222091
    1.384474124    5.334645762    6.645343003    7.542615823
    1.391652755    5.329021305    6.637877690    7.533988162
    1.398831386    5.323382816    6.630394950    7.525339373
    1.406010017    5.317730465    6.622895015    7.516669721
    1.413188648    5.312064422    6.615378115    7.507979470
    1.420367279    5.306384858    6.607844479    7.499268883
    1.427545910    5.300691941    6.600294336    7.490538224
    1.434724541    5.294985843    6.592727913    7.481787754
    1.441903172    5.289266730    6.585145439    7.473017735
    1.449081803    5.283534772    6.577547139    7.464228428
    1.456260434    5.277790137    6.569933239    7.455420092
    1.463439065    5.272032992    6.562303965    7.446592988
    1.470617696    5.266263504    6.554659540    7.437747374
    1.477796327    5.260481839    6.547000189    7.428883507
    1.484974958    5.254688165    6.539326133    7.420001646
    1.492153589    5.248882647    6.531637595    7.411102046
    1.499332220    5.243065450    6.523934796    7.402184963
    1.506510851    5.237236739    6.516217956    7.393250653
    1.513689482    5.231396678    6.508487295    7.384299369
    1.520868114    5.225545431    6.500743031    7.375331364
    1.528046745    5.219683161    6.492985383    7.366346891
    1.535225376    5.213810032    6.485214567    7.357346202
    1.542404007    5.207926205    6.477430800    7.348329548
    1.549582638    5.202031842    6.469634297    7.339297178
    1.556761269    5.196127104    6.461825272    7.330249342
    1.563939900    5.190212152    6.454003939    7.321186288
    1.571118531    5.184287147    6.446170511    7.312108263
    1.578297162    5.178352247    6.438325199    7.303015514
    1.585475793    5.172407613    6.430468215    7.293908287
    1.592654424    5.166453401    6.422599768    7.284786825
    1.599833055    5.160489771    6.414720068    7.275651374
    1.607011686    5.154516880    6.406829323    7.266502175
    1.614190317    5.148534884    6.398927740    7.257339471
    1.621368948    5.142543939    6.391015526    7.248163502
    1.628547579    5.136544201    6.383092885    7.238974509
    1.635726210    5.130535826    6.375160024    7.229772731
    1.642904841    5.124518967    6.367217144    7.220558406
    1.650083472    5.118493778    6.359264448    7.211331770
    1.657262104    5.112460412    6.351302139    7.202093061
    1.664440735    5.106419022    6.343330418    7.192842512
    1.671619366    5.100369760    6.335349482    7.183580359
    1.678797997    5.094312777    6.327359533    7.174306835
    1.685976628    5.088248224    6.319360766    7.165022171
    1.693155259    5.082176250    6.311353380    7.155726598
    1.700333890    5.076097005    6.303337569    7.146420347
    1.707512521    5.070010638    6.295313529    7.137103647
    1.714691152    5.063917297    6.287281454    7.127776725
    1.721869783    5.057817129    6.279241536    7.118439809
    1.729048414    5.051710280    6.271193967    7.109093124
    1.736227045    5.045596898    6.263138938    7.099736895
    1.743405676    5.039477127    6.255076640    7.090371347
    1.750584307    5.033351112    6.247007259    7.080996700
    1.757762938    5.027218997    6.238930986    7.071613178
    1.764941569    5.021080926    6.230848005    7.062221001
    1.772120200    5.014937041    6.222758503    7.052820387
    1.779298831    5.008787484    6.214662665    7.043411556
    1.786477462    5.002632396    6.206560675    7.033994724
    1.793656093    4.996471919    6.198452714    7.024570108
    1.800834725    4.990306191    6.190338965    7.015137923
    1.808013356    4.984135352    6.182219609    7.005698382
    1.815191987    4.977959541    6.174094824    6.996251698
    1.822370618    4.971778896    6.165964789    6.986798083
    1.829549249    4.965593553    6.157829682    6.977337747
    1.836727880    4.959403649    6.149689680    6.967870900
    1.843906511    4.953209319    6.141544957    6.958397749
    1.851085142    4.947010699    6.133395688    6.948918503
    1.858263773    4.940807922    6.125242046    6.939433367
    1.865442404    4.934601123    6.117084204    6.929942545
    1.872621035    4.928390433    6.108922332    6.920446242
    1.879799666    4.922175985    6.100756601    6.910944660
    1.886978297    4.915957911    6.092587180    6.901438000
    1.894156928    4.909736340    6.084414237    6.891926462
    1.901335559    4.903511403    6.076237939    6.882410246
    1.908514190    4.897283229    6.068058451    6.872889549
    1.915692821    4.891051946    6.059875939    6.863364568
    1.922871452    4.884817681    6.051690566    6.853835498
    1.930050083    4.878580562    6.043502495    6.844302534
    1.937228715    4.872340715    6.035311888    6.834765870
    1.944407346    4.866098265    6.027118905    6.825225696
    1.951585977    4.859853337    6.018923707    6.815682205
    1.958764608    4.853606054    6.010726450    6.806135584
    1.965943239    4.847356541    6.002527293    6.796586024
    1.973121870    4.841104918    5.994326393    6.787033711
    1.980300501    4.834851309    5.986123904    6.777478832
    1.987479132    4.828595834    5.977919980    6.767921571
    1.994657763    4.822338612    5.969714776    6.758362112
    2.001836394    4.816079764    5.961508443    6.748800637
    2.009015025    4.809819408    5.953301131    6.739237329
    2.016193656    4.803557662    5.945092992    6.729672367
    2.023372287    4.797294644    5.936884174    6.720105930
    2.030550918    4.791030468    5.928674825    6.710538197
    2.037729549    4.784765252    5.920465092    6.700969343
    2.044908180    4.778499111    5.912255121    6.691399544
    2.052086811    4.772232157    5.904045056    6.681828975
    2.059265442    4.765964505    5.895835041    6.672257808
    2.066444073    4.759696267    5.887625219    6.662686215
    2.073622705    4.753427556    5.879415731    6.653114368
    2.080801336    4.747158481    5.871206718    6.643542435
    2.087979967    4.740889155    5.862998320    6.633970585
    2.095158598    4.734619685    5.854790674    6.624398985
    2.102337229    4.728350181    5.846583919    6.614827801
    2.109515860    4.722080752    5.838378191    6.605257198
    2.116694491    4.715811504    5.830173624    6.595687339
    2.123873122    4.709542544    5.821970354    6.586118387
    2.131051753    4.703273978    5.813768514    6.576550503
    2.138230384    4.697005912    5.805568236    6.566983847
    2.145409015    4.690738448    5.797369651    6.557418578
    2.152587646    4.684471691    5.789172889    6.547854854
    2.159766277    4.678205744    5.780978080    6.538292831
    2.166944908    4.671940709    5.772785351    6.528732664
    2.174123539    4.665676687    5.764594830    6.519174508
    2.181302170    4.659413778    5.756406643    6.509618516
    2.188480801    4.653152084    5.748220915    6.500064839
    2.195659432    4.646891701    5.740037771    6.490513628
    2.202838063    4.640632730    5.731857332    6.480965032
    2.210016694    4.634375267    5.723679721    6.471419201
    2.217195326    4.628119410    5.715505060    6.461876281
    2.224373957    4.621865254    5.707333468    6.452336418
    2.231552588    4.615612896    5.699165064    6.442799757
    2.238731219    4.609362428    5.690999966    6.433266441
    2.245909850    4.603113946    5.682838292    6.423736614
    2.253088481    4.596867543    5.674680158    6.414210417
    2.260267112    4.590623310    5.666525678    6.404687989
    2.267445743    4.584381341    5.658374967    6.395169470
    2.274624374    4.578141725    5.650228138    6.385654998
    2.281803005    4.571904552    5.642085303    6.376144710
    2.288981636    4.565669914    5.633946572    6.366638741
    2.296160267    4.559437897    5.625812057    6.357137226
    2.303338898    4.553208590    5.617681867    6.347640299
    2.310517529    4.546982081    5.609556110    6.338148091
    2.317696160    4.540758456    5.601434892    6.328660734
    2.324874791    4.534537801    5.593318321    6.319178357
    2.332053422    4.528320201    5.585206502    6.309701091
    2.339232053    4.522105740    5.577099539    6.300229062
    2.346410684    4.515894503    5.568997536    6.290762398
    2.353589316    4.509686572    5.560900595    6.281301223
    2.360767947    4.503482030    5.552808818    6.271845662
    2.367946578    4.497280957    5.544722306    6.262395840
    2.375125209    4.491083436    5.536641158    6.252951877
    2.382303840    4.484889546    5.528565472    6.243513896
    2.389482471    4.478699367    5.520495348    6.234082015
    2.396661102    4.472512977    5.512430882    6.224656355
    2.403839733    4.466330455    5.504372170    6.215237033
    2.411018364    4.460151878    5.496319306    6.205824167
    2.418196995    4.453977322    5.488272386    6.196417871
    2.425375626    4.447806864    5.480231503    6.187018260
    2.432554257    4.441640579    5.472196749    6.177625449
    2.439732888    4.435478542    5.464168215    6.168239549
    2.446911519    4.429320826    5.456145992    6.158860672
    2.454090150    4.423167505    5.448130170    6.149488929
    2.461268781    4.417018652    5.440120837    6.140124429
    2.468447412    4.410874338    5.432118082    6.130767280
    2.475626043    4.404734634    5.424121992    6.121417590
    2.482804674    4.398599611    5.416132652    6.112075464
    2.489983306    4.392469339    5.408150149    6.102741009
    2.497161937    4.386343888    5.400174566    6.093414328
    2.504340568    4.380223325    5.392205987    6.084095524
    2.511519199    4.374107719    5.384244495    6.074784700
    2.518697830    4.367997137    5.376290172    6.065481956
    2.525876461    4.361891645    5.368343099    6.056187393
    2.533055092    4.355791310    5.360403356    6.046901110
    2.540233723    4.349696196    5.352471022    6.037623205
