# energy grid [eV]     epsr_x  epsr_y  epsr_z
#
    0.200000000   13.035477217    6.331218400   13.768197666
    0.207178631   13.038218725    6.332157163   13.771038490
    0.214357262   13.041058343    6.333129399   13.773980892
    0.221535893   13.043996224    6.334135145   13.777025021
    0.228714524   13.047032523    6.335174442   13.780171029
    0.235893155   13.050167405    6.336247332   13.783419076
    0.243071786   13.053401035    6.337353856   13.786769324
    0.250250417   13.056733588    6.338494060   13.790221942
    0.257429048   13.060165241    6.339667989   13.793777105
    0.264607679   13.063696180    6.340875690   13.797434992
    0.271786311   13.067326593    6.342117212   13.801195788
    0.278964942   13.071056676    6.343392604   13.805059683
    0.286143573   13.074886629    6.344701917   13.809026872
    0.293322204   13.078816660    6.346045205   13.813097558
    0.300500835   13.082846980    6.347422521   13.817271946
    0.307679466   13.086977806    6.348833920   13.821550248
    0.314858097   13.091209362    6.350279460   13.825932683
    0.322036728   13.095541879    6.351759199   13.830419473
    0.329215359   13.099975589    6.353273196   13.835010847
    0.336393990   13.104510735    6.354821513   13.839707039
    0.343572621   13.109147562    6.356404212   13.844508290
    0.350751252   13.113886324    6.358021358   13.849414845
    0.357929883   13.118727279    6.359673015   13.854426955
    0.365108514   13.123670692    6.361359251   13.859544878
    0.372287145   13.128716832    6.363080135   13.864768877
    0.379465776   13.133865976    6.364835736   13.870099220
    0.386644407   13.139118407    6.366626126   13.875536182
    0.393823038   13.144474414    6.368451378   13.881080043
    0.401001669   13.149934291    6.370311566   13.886731091
    0.408180301   13.155498340    6.372206766   13.892489617
    0.415358932   13.161166868    6.374137056   13.898355920
    0.422537563   13.166940188    6.376102515   13.904330304
    0.429716194   13.172818621    6.378103223   13.910413080
    0.436894825   13.178802494    6.380139263   13.916604565
    0.444073456   13.184892138    6.382210717   13.922905081
    0.451252087   13.191087894    6.384317673   13.929314958
    0.458430718   13.197390108    6.386460215   13.935834531
    0.465609349   13.203799132    6.388638434   13.942464143
    0.472787980   13.210315326    6.390852418   13.949204140
    0.479966611   13.216939056    6.393102259   13.956054878
    0.487145242   13.223670695    6.395388051   13.963016718
    0.494323873   13.230510621    6.397709888   13.970090027
    0.501502504   13.237459223    6.400067868   13.977275180
    0.508681135   13.244516894    6.402462087   13.984572557
    0.515859766   13.251684034    6.404892647   13.991982545
    0.523038397   13.258961051    6.407359648   13.999505540
    0.530217028   13.266348360    6.409863193   14.007141941
    0.537395659   13.273846383    6.412403388   14.014892157
    0.544574290   13.281455550    6.414980339   14.022756603
    0.551752922   13.289176298    6.417594155   14.030735701
    0.558931553   13.297009070    6.420244945   14.038829878
    0.566110184   13.304954320    6.422932821   14.047039572
    0.573288815   13.313012505    6.425657896   14.055365225
    0.580467446   13.321184094    6.428420287   14.063807287
    0.587646077   13.329469561    6.431220109   14.072366217
    0.594824708   13.337869389    6.434057483   14.081042478
    0.602003339   13.346384068    6.436932528   14.089836545
    0.609181970   13.355014097    6.439845367   14.098748895
    0.616360601   13.363759982    6.442796125   14.107780018
    0.623539232   13.372622240    6.445784927   14.116930409
    0.630717863   13.381601391    6.448811902   14.126200569
    0.637896494   13.390697969    6.451877180   14.135591010
    0.645075125   13.399912512    6.454980892   14.145102251
    0.652253756   13.409245570    6.458123172   14.154734818
    0.659432387   13.418697698    6.461304156   14.164489245
    0.666611018   13.428269464    6.464523982   14.174366076
    0.673789649   13.437961441    6.467782789   14.184365862
    0.680968280   13.447774212    6.471080719   14.194489161
    0.688146912   13.457708371    6.474417915   14.204736541
    0.695325543   13.467764518    6.477794523   14.215108579
    0.702504174   13.477943265    6.481210691   14.225605858
    0.709682805   13.488245232    6.484666568   14.236228974
    0.716861436   13.498671048    6.488162305   14.246978526
    0.724040067   13.509221352    6.491698058   14.257855128
    0.731218698   13.519896794    6.495273981   14.268859397
    0.738397329   13.530698031    6.498890233   14.279991964
    0.745575960   13.541625733    6.502546973   14.291253466
    0.752754591   13.552680577    6.506244365   14.302644551
    0.759933222   13.563863253    6.509982573   14.314165875
    0.767111853   13.575174460    6.513761763   14.325818104
    0.774290484   13.586614907    6.517582104   14.337601915
    0.781469115   13.598185314    6.521443768   14.349517992
    0.788647746   13.609886412    6.525346928   14.361567031
    0.795826377   13.621718942    6.529291760   14.373749736
    0.803005008   13.633683657    6.533278442   14.386066823
    0.810183639   13.645781320    6.537307155   14.398519018
    0.817362270   13.658012706    6.541378080   14.411107055
    0.824540902   13.670378602    6.545491403   14.423831681
    0.831719533   13.682879806    6.549647313   14.436693651
    0.838898164   13.695517126    6.553845997   14.449693734
    0.846076795   13.708291384    6.558087650   14.462832706
    0.853255426   13.721203414    6.562372466   14.476111358
    0.860434057   13.734254061    6.566700643   14.489530487
    0.867612688   13.747444184    6.571072379   14.503090906
    0.874791319   13.760774653    6.575487879   14.516793437
    0.881969950   13.774246351    6.579947346   14.530638914
    0.889148581   13.787860174    6.584450989   14.544628182
    0.896327212   13.801617032    6.588999017   14.558762098
    0.903505843   13.815517848    6.593591645   14.573041531
    0.910684474   13.829563557    6.598229086   14.587467363
    0.917863105   13.843755108    6.602911561   14.602040486
    0.925041736   13.858093467    6.607639289   14.616761808
    0.932220367   13.872579609    6.612412495   14.631632246
    0.939398998   13.887214527    6.617231406   14.646652731
    0.946577629   13.901999227    6.622096250   14.661824207
    0.953756260   13.916934731    6.627007262   14.677147632
    0.960934891   13.932022073    6.631964675   14.692623975
    0.968113523   13.947262306    6.636968728   14.708254221
    0.975292154   13.962656495    6.642019662   14.724039367
    0.982470785   13.978205723    6.647117722   14.739980424
    0.989649416   13.993911088    6.652263155   14.756078417
    0.996828047   14.009773703    6.657456211   14.772334385
    1.004006678   14.025794698    6.662697144   14.788749383
    1.011185309   14.041975222    6.667986210   14.805324479
    1.018363940   14.058316436    6.673323670   14.822060756
    1.025542571   14.074819524    6.678709785   14.838959312
    1.032721202   14.091485683    6.684144823   14.856021260
    1.039899833   14.108316128    6.689629053   14.873247730
    1.047078464   14.125312096    6.695162748   14.890639866
    1.054257095   14.142474837    6.700746183   14.908198829
    1.061435726   14.159805622    6.706379640   14.925925794
    1.068614357   14.177305734    6.712063401   14.943821953
    1.075792988   14.194976456    6.717797752   14.961888513
    1.082971619   14.212819068    6.723582984   14.980126688
    1.090150250   14.230834955    6.729419391   14.998537731
    1.097328881   14.249025602    6.735307270   15.017122923
    1.104507513   14.267392377    6.741246922   15.035883540
    1.111686144   14.285936648    6.747238652   15.054820869
    1.118864775   14.304659829    6.753282768   15.073936223
    1.126043406   14.323563369    6.759379583   15.093230933
    1.133222037   14.342648742    6.765529413   15.112706352
    1.140400668   14.361917444    6.771732579   15.132363850
    1.147579299   14.381370994    6.777989403   15.152204816
    1.154757930   14.401010934    6.784300216   15.172230661
    1.161936561   14.420838829    6.790665347   15.192442814
    1.169115192   14.440856268    6.797085135   15.212842725
    1.176293823   14.461064864    6.803559919   15.233431863
    1.183472454   14.481466255    6.810090044   15.254211721
    1.190651085   14.502062104    6.816675859   15.275183810
    1.197829716   14.522854100    6.823317717   15.296349664
    1.205008347   14.543843957    6.830015976   15.317710839
    1.212186978   14.565033417    6.836770998   15.339268912
    1.219365609   14.586424247    6.843583151   15.361025485
    1.226544240   14.608018242    6.850452804   15.382982181
    1.233722871   14.629817228    6.857380334   15.405140647
    1.240901503   14.651823055    6.864366121   15.427502553
    1.248080134   14.674037606    6.871410551   15.450069595
    1.255258765   14.696462790    6.878514014   15.472843492
    1.262437396   14.719100550    6.885676905   15.495825987
    1.269616027   14.741952857    6.892899623   15.519018851
    1.276794658   14.765021714    6.900182575   15.542423879
    1.283973289   14.788309157    6.907526169   15.566042894
    1.291151920   14.811817252    6.914930822   15.589877742
    1.298330551   14.835548102    6.922396953   15.613930301
    1.305509182   14.859503841    6.929924989   15.638202473
    1.312687813   14.883686639    6.937515361   15.662696189
    1.319866444   14.908098699    6.945168505   15.687413410
    1.327045075   14.932742263    6.952884863   15.712356125
    1.334223706   14.957619607    6.960664885   15.737526351
    1.341402337   14.982733047    6.968509022   15.762926138
    1.348580968   15.008084934    6.976417735   15.788557566
    1.355759599   15.033677661    6.984391488   15.814422744
    1.362938230   15.059513659    6.992430754   15.840523816
    1.370116861   15.085595398    7.000536008   15.866862955
    1.377295492   15.111925394    7.008707735   15.893442371
    1.384474124   15.138506200    7.016946423   15.920264303
    1.391652755   15.165340415    7.025252570   15.947331027
    1.398831386   15.192430676    7.033626677   15.974644854
    1.406010017   15.219779659    7.042069253   16.002208128
    1.413188648   15.247390091    7.050580813   16.030023231
    1.420367279   15.275264787    7.059161880   16.058092583
    1.427545910   15.303406583    7.067812983   16.086418638
    1.434724541   15.331818344    7.076534657   16.115003891
    1.441903172   15.360502988    7.085327446   16.143850874
    1.449081803   15.389463492    7.094191899   16.172962160
    1.456260434   15.418702886    7.103128573   16.202340362
    1.463439065   15.448224254    7.112138035   16.231988132
    1.470617696   15.478030734    7.121220854   16.261908168
    1.477796327   15.508125519    7.130377612   16.292103208
    1.484974958   15.538511860    7.139608895   16.322576033
    1.492153589   15.569193068    7.148915299   16.353329471
    1.499332220   15.600172510    7.158297427   16.384366393
    1.506510851   15.631453617    7.167755890   16.415689717
    1.513689482   15.663039881    7.177291308   16.447302409
    1.520868114   15.694934859    7.186904308   16.479207481
    1.528046745   15.727142172    7.196595528   16.511407997
    1.535225376   15.759665508    7.206365610   16.543907068
    1.542404007   15.792508626    7.216215211   16.576707857
    1.549582638   15.825675352    7.226144991   16.609813580
    1.556761269   15.859169587    7.236155623   16.643227507
    1.563939900   15.892995302    7.246247788   16.676952958
    1.571118531   15.927156546    7.256422175   16.710993314
    1.578297162   15.961657445    7.266679485   16.745352007
    1.585475793   15.996502204    7.277020426   16.780032532
    1.592654424   16.031695109    7.287445719   16.815038439
    1.599833055   16.067240528    7.297956092   16.850373340
    1.607011686   16.103142917    7.308552286   16.886040909
    1.614190317   16.139406818    7.319235049   16.922044880
    1.621368948   16.176036861    7.330005142   16.958389055
    1.628547579   16.213037771    7.340863336   16.995077299
    1.635726210   16.250414360    7.351810413   17.032113544
    1.642904841   16.288171531    7.362847163   17.069501792
    1.650083472   16.326314268    7.373974388   17.107246106
    1.657262104   16.364847701    7.385192901   17.145350608
    1.664440735   16.403777101    7.396503536   17.183819466
    1.671619366   16.443107794    7.407907134   17.222656992
    1.678797997   16.482845225    7.419404554   17.261867670
    1.685976628   16.522994933    7.430996659   17.301455934
    1.693155259   16.563562574    7.442684320   17.341426266
    1.700333890   16.604553930    7.454468425   17.381783254
    1.707512521   16.645974911    7.466349876   17.422531584
    1.714691152   16.687831554    7.478329587   17.463676031
    1.721869783   16.730130025    7.490408488   17.505221458
    1.729048414   16.772876625    7.502587523   17.547172815
    1.736227045   16.816077792    7.514867648   17.589535147
    1.743405676   16.859740105    7.527249834   17.632313591
    1.750584307   16.903870289    7.539735066   17.675513379
    1.757762938   16.948475216    7.552324347   17.719139843
    1.764941569   16.993561916    7.565018690   17.763198415
    1.772120200   17.039137573    7.577819125   17.807694629
    1.779298831   17.085209533    7.590726696   17.852634122
    1.786477462   17.131785319    7.603742469   17.898022645
    1.793656093   17.178872626    7.616867523   17.943866054
    1.800834725   17.226479311    7.630102941   17.990170306
    1.808013356   17.274613434    7.643449841   18.036941498
    1.815191987   17.323283266    7.656909377   18.084185874
    1.822370618   17.372497246    7.670482696   18.131909763
    1.829549249   17.422264007    7.684170951   18.180119606
    1.836727880   17.472592399    7.697975325   18.228821985
    1.843906511   17.523491488    7.711897020   18.278023617
    1.851085142   17.574970565    7.725937258   18.327731354
    1.858263773   17.627039146    7.740097280   18.377952188
    1.865442404   17.679706974    7.754378347   18.428693254
    1.872621035   17.732984016    7.768781742   18.479961834
    1.879799666   17.786880523    7.783308767   18.531765359
    1.886978297   17.841407107    7.797960748   18.584111414
    1.894156928   17.896574572    7.812739031   18.637007742
    1.901335559   17.952393945    7.827644983   18.690462247
    1.908514190   18.008876561    7.842679994   18.744482994
    1.915692821   18.066034078    7.857845479   18.799078235
    1.922871452   18.123878481    7.873142874   18.854256413
    1.930050083   18.182422059    7.888573640   18.910026129
    1.937228715   18.241677433    7.904139265   18.966396167
    1.944407346   18.301657570    7.919841260   19.023375507
    1.951585977   18.362375792    7.935681161   19.080973326
    1.958764608   18.423845775    7.951660533   19.139198989
    1.965943239   18.486081530    7.967780962   19.198062031
    1.973121870   18.549097503    7.984044068   19.257572208
    1.980300501   18.612908737    8.000451502   19.317739588
    1.987479132   18.677530652    8.017004939   19.378574467
    1.994657763   18.742979021    8.033706085   19.440087453
    2.001836394   18.809270057    8.050556675   19.502289338
    2.009015025   18.876420452    8.067558475   19.565191012
    2.016193656   18.944447426    8.084713283   19.628803658
    2.023372287   19.013368734    8.102022930   19.693138759
    2.030550918   19.083202684    8.119489280   19.758208086
    2.037729549   19.153968150    8.137114232   19.824023691
    2.044908180   19.225684597    8.154899719   19.890597917
    2.052086811   19.298372090    8.172847709   19.957943403
    2.059265442   19.372051302    8.190960204   20.026073094
    2.066444073   19.446743620    8.209239253   20.095000262
    2.073622705   19.522471299    8.227686948   20.164738511
    2.080801336   19.599257216    8.246305410   20.235301760
    2.087979967   19.677124891    8.265096795   20.306704247
    2.095158598   19.756098641    8.284063302   20.378960465
    2.102337229   19.836203628    8.303207164   20.452085262
    2.109515860   19.917466106    8.322530691   20.526094412
    2.116694491   19.999913258    8.342036244   20.601004042
    2.123873122   20.083573018    8.361726199   20.676830183
    2.131051753   20.168474338    8.381602997   20.753589357
    2.138230384   20.254647267    8.401669119   20.831298610
    2.145409015   20.342122968    8.421927090   20.909975467
    2.152587646   20.430933747    8.442379479   20.989637918
    2.159766277   20.521113029    8.463028864   21.070304379
    2.166944908   20.612695352    8.483877806   21.151993660
    2.174123539   20.705717026    8.504929101   21.234725354
    2.181302170   20.800216458    8.526185896   21.318520058
    2.188480801   20.896232775    8.547651059   21.403398419
    2.195659432   20.993806391    8.569327393   21.489381459
    2.202838063   21.092979573    8.591217846   21.576490922
    2.210016694   21.193796452    8.613325467   21.664749305
    2.217195326   21.296303045    8.635653387   21.754179775
    2.224373957   21.400547344    8.658204812   21.844806132
    2.231552588   21.506579423    8.680983019   21.936652883
    2.238731219   21.614451566    8.703991359   22.029745280
    2.245909850   21.724218398    8.727233260   22.124109343
    2.253088481   21.835937031    8.750712234   22.219771894
    2.260267112   21.949667215    8.774431872   22.316760580
    2.267445743   22.065471509    8.798395856   22.415103915
    2.274624374   22.183415451    8.822607955   22.514831309
    2.281803005   22.303567761    8.847072031   22.615973113
    2.288981636   22.426000551    8.871792046   22.718560655
    2.296160267   22.550789548    8.896772065   22.822626276
    2.303338898   22.678014321    8.922016250   22.928203354
    2.310517529   22.807758509    8.947528869   23.035326270
    2.317696160   22.940109991    8.973314284   23.144030242
    2.324874791   23.075161291    8.999376961   23.254351576
    2.332053422   23.213010771    9.025721510   23.366329385
    2.339232053   23.353762075    9.052352574   23.480003913
    2.346410684   23.497524501    9.079275005   23.595415462
    2.353589316   23.644414184    9.106494208   23.712606416
    2.360767947   23.794553341    9.134015427   23.831620509
    2.367946578   23.948071588    9.161843825   23.952503196
    2.375125209   24.105106555    9.189984772   24.075301395
    2.382303840   24.265804577    9.218443874   24.200063693
    2.389482471   24.430321649    9.247227056   24.326840699
    2.396661102   24.598823856    9.276340372   24.455685078
    2.403839733   24.771488207    9.305789995   24.586651414
    2.411018364   24.948503793    9.335582313   24.719796293
    2.418196995   25.130072854    9.365723944   24.855178492
    2.425375626   25.316412281    9.396221757   24.992859324
    2.432554257   25.507755040    9.427082898   25.132902813
    2.439732888   25.704350860    9.458314721   25.275375111
    2.446911519   25.906468736    9.489924887   25.420344892
    2.454090150   26.114399695    9.521921387   25.567884334
    2.461268781   26.328458782    9.554312452   25.718069506
    2.468447412   26.548985982    9.587106557   25.870978885
    2.475626043   26.776349534    9.620312565   26.026693851
    2.482804674   27.010950227    9.653940167   26.185299722
    2.489983306   27.253224974    9.687999377   26.346885809
    2.497161937   27.503650952    9.722500312   26.511545514
    2.504340568   27.762750553    9.757453649   26.679376601
    2.511519199   28.031096910    9.792870683   26.850481456
    2.518697830   28.309319783    9.828763327   27.024967348
    2.525876461   28.598111853    9.865144133   27.202946684
    2.533055092   28.898242629    9.902026409   27.384537434
    2.540233723   29.210578596    9.939424391   27.569863895
