# energy grid [eV]     epsr_x  epsr_y  epsr_z
#
    0.200000000   10.121856995    9.058400545    6.947349860
    0.207178631   10.123663206    9.060040569    6.948468352
    0.214357262   10.125533894    9.061739164    6.949626795
    0.221535893   10.127469140    9.063496408    6.950825243
    0.228714524   10.129469030    9.065312381    6.952063750
    0.235893155   10.131533652    9.067187166    6.953342374
    0.243071786   10.133663097    9.069120849    6.954661175
    0.250250417   10.135857460    9.071113520    6.956020214
    0.257429048   10.138116838    9.073165269    6.957419554
    0.264607679   10.140441331    9.075276192    6.958859261
    0.271786311   10.142831042    9.077446385    6.960339400
    0.278964942   10.145286077    9.079675948    6.961860042
    0.286143573   10.147806544    9.081964984    6.963421258
    0.293322204   10.150392557    9.084313599    6.965023120
    0.300500835   10.153044230    9.086721902    6.966665703
    0.307679466   10.155761681    9.089190004    6.968349085
    0.314858097   10.158545032    9.091718018    6.970073344
    0.322036728   10.161394406    9.094306063    6.971838562
    0.329215359   10.164309931    9.096954258    6.973644820
    0.336393990   10.167291737    9.099662727    6.975492206
    0.343572621   10.170339958    9.102431595    6.977380805
    0.350751252   10.173454731    9.105260991    6.979310706
    0.357929883   10.176636194    9.108151048    6.981282002
    0.365108514   10.179884491    9.111101899    6.983294784
    0.372287145   10.183199768    9.114113683    6.985349150
    0.379465776   10.186582174    9.117186541    6.987445195
    0.386644407   10.190031862    9.120320617    6.989583021
    0.393823038   10.193548988    9.123516058    6.991762728
    0.401001669   10.197133709    9.126773013    6.993984420
    0.408180301   10.200786189    9.130091636    6.996248204
    0.415358932   10.204506593    9.133472083    6.998554188
    0.422537563   10.208295089    9.136914513    7.000902483
    0.429716194   10.212151850    9.140419090    7.003293200
    0.436894825   10.216077050    9.143985978    7.005726455
    0.444073456   10.220070870    9.147615348    7.008202366
    0.451252087   10.224133491    9.151307369    7.010721050
    0.458430718   10.228265098    9.155062219    7.013282631
    0.465609349   10.232465880    9.158880076    7.015887232
    0.472787980   10.236736030    9.162761121    7.018534980
    0.479966611   10.241075745    9.166705540    7.021226002
    0.487145242   10.245485222    9.170713522    7.023960430
    0.494323873   10.249964665    9.174785257    7.026738398
    0.501502504   10.254514281    9.178920942    7.029560040
    0.508681135   10.259134279    9.183120775    7.032425496
    0.515859766   10.263824873    9.187384958    7.035334904
    0.523038397   10.268586281    9.191713696    7.038288410
    0.530217028   10.273418723    9.196107199    7.041286157
    0.537395659   10.278322424    9.200565679    7.044328294
    0.544574290   10.283297611    9.205089351    7.047414970
    0.551752922   10.288344518    9.209678437    7.050546340
    0.558931553   10.293463380    9.214333158    7.053722559
    0.566110184   10.298654436    9.219053741    7.056943784
    0.573288815   10.303917929    9.223840417    7.060210176
    0.580467446   10.309254107    9.228693421    7.063521898
    0.587646077   10.314663222    9.233612989    7.066879117
    0.594824708   10.320145527    9.238599363    7.070282001
    0.602003339   10.325701282    9.243652789    7.073730720
    0.609181970   10.331330750    9.248773515    7.077225450
    0.616360601   10.337034198    9.253961795    7.080766366
    0.623539232   10.342811897    9.259217886    7.084353649
    0.630717863   10.348664121    9.264542047    7.087987480
    0.637896494   10.354591150    9.269934544    7.091668045
    0.645075125   10.360593267    9.275395646    7.095395531
    0.652253756   10.366670760    9.280925624    7.099170129
    0.659432387   10.372823921    9.286524757    7.102992034
    0.666611018   10.379053045    9.292193323    7.106861441
    0.673789649   10.385358432    9.297931609    7.110778550
    0.680968280   10.391740388    9.303739903    7.114743565
    0.688146912   10.398199221    9.309618499    7.118756690
    0.695325543   10.404735245    9.315567694    7.122818134
    0.702504174   10.411348777    9.321587789    7.126928109
    0.709682805   10.418040140    9.327679092    7.131086831
    0.716861436   10.424809661    9.333841911    7.135294517
    0.724040067   10.431657671    9.340076563    7.139551389
    0.731218698   10.438584506    9.346383366    7.143857670
    0.738397329   10.445590508    9.352762645    7.148213590
    0.745575960   10.452676021    9.359214727    7.152619378
    0.752754591   10.459841396    9.365739946    7.157075270
    0.759933222   10.467086989    9.372338638    7.161581504
    0.767111853   10.474413158    9.379011147    7.166138320
    0.774290484   10.481820269    9.385757820    7.170745963
    0.781469115   10.489308692    9.392579008    7.175404683
    0.788647746   10.496878801    9.399475067    7.180114729
    0.795826377   10.504530976    9.406446360    7.184876358
    0.803005008   10.512265603    9.413493252    7.189689829
    0.810183639   10.520083072    9.420616115    7.194555404
    0.817362270   10.527983777    9.427815326    7.199473350
    0.824540902   10.535968121    9.435091266    7.204443936
    0.831719533   10.544036507    9.442444322    7.209467438
    0.838898164   10.552189349    9.449874885    7.214544131
    0.846076795   10.560427063    9.457383353    7.219674299
    0.853255426   10.568750070    9.464970129    7.224858227
    0.860434057   10.577158800    9.472635620    7.230096204
    0.867612688   10.585653686    9.480380240    7.235388524
    0.874791319   10.594235166    9.488204408    7.240735485
    0.881969950   10.602903686    9.496108548    7.246137388
    0.889148581   10.611659697    9.504093090    7.251594540
    0.896327212   10.620503655    9.512158470    7.257107251
    0.903505843   10.629436022    9.520305129    7.262675836
    0.910684474   10.638457269    9.528533515    7.268300613
    0.917863105   10.647567868    9.536844082    7.273981907
    0.925041736   10.656768301    9.545237289    7.279720045
    0.932220367   10.666059056    9.553713600    7.285515360
    0.939398998   10.675440624    9.562273488    7.291368189
    0.946577629   10.684913507    9.570917430    7.297278873
    0.953756260   10.694478211    9.579645910    7.303247759
    0.960934891   10.704135247    9.588459419    7.309275199
    0.968113523   10.713885135    9.597358452    7.315361548
    0.975292154   10.723728402    9.606343514    7.321507168
    0.982470785   10.733665580    9.615415114    7.327712424
    0.989649416   10.743697208    9.624573769    7.333977689
    0.996828047   10.753823833    9.633820002    7.340303338
    1.004006678   10.764046008    9.643154343    7.346689752
    1.011185309   10.774364294    9.652577329    7.353137319
    1.018363940   10.784779259    9.662089505    7.359646430
    1.025542571   10.795291478    9.671691420    7.366217484
    1.032721202   10.805901532    9.681383634    7.372850883
    1.039899833   10.816610012    9.691166712    7.379547037
    1.047078464   10.827417515    9.701041228    7.386306359
    1.054257095   10.838324646    9.711007761    7.393129269
    1.061435726   10.849332017    9.721066900    7.400016195
    1.068614357   10.860440249    9.731219241    7.406967566
    1.075792988   10.871649971    9.741465386    7.413983823
    1.082971619   10.882961818    9.751805948    7.421065408
    1.090150250   10.894376436    9.762241546    7.428212773
    1.097328881   10.905894477    9.772772806    7.435426372
    1.104507513   10.917516602    9.783400366    7.442706671
    1.111686144   10.929243481    9.794124869    7.450054138
    1.118864775   10.941075792    9.804946968    7.457469248
    1.126043406   10.953014221    9.815867322    7.464952486
    1.133222037   10.965059465    9.826886603    7.472504340
    1.140400668   10.977212228    9.838005488    7.480125308
    1.147579299   10.989473223    9.849224665    7.487815892
    1.154757930   11.001843173    9.860544830    7.495576603
    1.161936561   11.014322811    9.871966689    7.503407960
    1.169115192   11.026912876    9.883490956    7.511310487
    1.176293823   11.039614120    9.895118356    7.519284717
    1.183472454   11.052427304    9.906849623    7.527331190
    1.190651085   11.065353198    9.918685499    7.535450455
    1.197829716   11.078392582    9.930626738    7.543643067
    1.205008347   11.091546247    9.942674104    7.551909591
    1.212186978   11.104814992    9.954828369    7.560250598
    1.219365609   11.118199629    9.967090318    7.568666669
    1.226544240   11.131700978    9.979460743    7.577158392
    1.233722871   11.145319872    9.991940451    7.585726364
    1.240901503   11.159057154   10.004530256    7.594371191
    1.248080134   11.172913677   10.017230984    7.603093488
    1.255258765   11.186890305   10.030043472    7.611893878
    1.262437396   11.200987915   10.042968570    7.620772994
    1.269616027   11.215207394   10.056007135    7.629731478
    1.276794658   11.229549640   10.069160041    7.638769982
    1.283973289   11.244015566   10.082428169    7.647889166
    1.291151920   11.258606092   10.095812415    7.657089701
    1.298330551   11.273322154   10.109313686    7.666372268
    1.305509182   11.288164699   10.122932900    7.675737557
    1.312687813   11.303134686   10.136670989    7.685186270
    1.319866444   11.318233087   10.150528898    7.694719119
    1.327045075   11.333460887   10.164507584    7.704336825
    1.334223706   11.348819083   10.178608016    7.714040121
    1.341402337   11.364308687   10.192831178    7.723829753
    1.348580968   11.379930724   10.207178068    7.733706474
    1.355759599   11.395686230   10.221649694    7.743671053
    1.362938230   11.411576259   10.236247082    7.753724267
    1.370116861   11.427601875   10.250971270    7.763866908
    1.377295492   11.443764159   10.265823311    7.774099777
    1.384474124   11.460064206   10.280804271    7.784423689
    1.391652755   11.476503125   10.295915233    7.794839472
    1.398831386   11.493082039   10.311157294    7.805347967
    1.406010017   11.509802088   10.326531566    7.815950027
    1.413188648   11.526664427   10.342039176    7.826646518
    1.420367279   11.543670226   10.357681269    7.837438321
    1.427545910   11.560820671   10.373459004    7.848326331
    1.434724541   11.578116964   10.389373556    7.859311456
    1.441903172   11.595560324   10.405426118    7.870394619
    1.449081803   11.613151987   10.421617899    7.881576759
    1.456260434   11.630893203   10.437950126    7.892858827
    1.463439065   11.648785242   10.454424041    7.904241784
    1.470617696   11.666829391   10.471040907    7.915726585
    1.477796327   11.685026952   10.487802002    7.927314137
    1.484974958   11.703379247   10.504708623    7.939005398
    1.492153589   11.721887620   10.521762088    7.950801638
    1.499332220   11.740553433   10.538963732    7.962704018
    1.506510851   11.759378063   10.556314910    7.974713496
    1.513689482   11.778362904   10.573816995    7.986831094
    1.520868114   11.797509376   10.591471381    7.999057898
    1.528046745   11.816818913   10.609279482    8.011395023
    1.535225376   11.836292973   10.627242733    8.023843607
    1.542404007   11.855933034   10.645362589    8.036404807
    1.549582638   11.875740594   10.663640528    8.049079800
    1.556761269   11.895717173   10.682078048    8.061869781
    1.563939900   11.915864312   10.700676670    8.074775965
    1.571118531   11.936183575   10.719437938    8.087799590
    1.578297162   11.956676546   10.738363419    8.100941912
    1.585475793   11.977344835   10.757454701    8.114204210
    1.592654424   11.998190073   10.776713399    8.127587786
    1.599833055   12.019213915   10.796141149    8.141093961
    1.607011686   12.040418039   10.815739615    8.154724083
    1.614190317   12.061804149   10.835510483    8.168479521
    1.621368948   12.083373974   10.855455467    8.182361669
    1.628547579   12.105129266   10.875576306    8.196371945
    1.635726210   12.127071805   10.895874764    8.210511794
    1.642904841   12.149203395   10.916352635    8.224782685
    1.650083472   12.171525868   10.937011738    8.239186113
    1.657262104   12.194041083   10.957853920    8.253723599
    1.664440735   12.216750919   10.978881054    8.268396680
    1.671619366   12.239657281   11.000095034    8.283206891
    1.678797997   12.262762108   11.021497795    8.298155770
    1.685976628   12.286067399   11.043091330    8.313245039
    1.693155259   12.309575160   11.064877639    8.328476509
    1.700333890   12.333287424   11.086858740    8.343851843
    1.707512521   12.357206245   11.109036687    8.359372711
    1.714691152   12.381333709   11.131413567    8.375040855
    1.721869783   12.405671927   11.153991496    8.390858063
    1.729048414   12.430223052   11.176772629    8.406826162
    1.736227045   12.454989305   11.199759183    8.422947015
    1.743405676   12.479972922   11.222953399    8.439222521
    1.750584307   12.505176149   11.246357531    8.455654614
    1.757762938   12.530601274   11.269973875    8.472245267
    1.764941569   12.556250625   11.293804769    8.488996490
    1.772120200   12.582126565   11.317852590    8.505910330
    1.779298831   12.608231494   11.342119753    8.522988873
    1.786477462   12.634567847   11.366608717    8.540234247
    1.793656093   12.661138116   11.391321977    8.557648634
    1.800834725   12.687944830   11.416262072    8.575234260
    1.808013356   12.714990542   11.441431584    8.592993380
    1.815191987   12.742277848   11.466833135    8.610928299
    1.822370618   12.769809387   11.492469394    8.629041369
    1.829549249   12.797587842   11.518343073    8.647334991
    1.836727880   12.825615938   11.544456929    8.665811616
    1.843906511   12.853896432   11.570813759    8.684473747
    1.851085142   12.882432103   11.597416392    8.703323934
    1.858263773   12.911225799   11.624267722    8.722364785
    1.865442404   12.940280530   11.651370765    8.741598969
    1.872621035   12.969599280   11.678728547    8.761029208
    1.879799666   12.999185014   11.706344093    8.780658277
    1.886978297   13.029040767   11.734220501    8.800489010
    1.894156928   13.059169638   11.762360930    8.820524306
    1.901335559   13.089574787   11.790768599    8.840767127
    1.908514190   13.120259423   11.819446784    8.861220499
    1.915692821   13.151226813   11.848398821    8.881887517
    1.922871452   13.182480278   11.877628103    8.902771340
    1.930050083   13.214023195   11.907138087    8.923875204
    1.937228715   13.245858998   11.936932286    8.945202412
    1.944407346   13.277991175   11.967014277    8.966756345
    1.951585977   13.310423265   11.997387678    8.988540461
    1.958764608   13.343158860   12.028056171    9.010558297
    1.965943239   13.376201678   12.059023593    9.032813470
    1.973121870   13.409555504   12.090293864    9.055309686
    1.980300501   13.443224126   12.121870876    9.078050733
    1.987479132   13.477211403   12.153758596    9.101040491
    1.994657763   13.511521271   12.185961086    9.124282932
    2.001836394   13.546157743   12.218482492    9.147782122
    2.009015025   13.581124904   12.251327037    9.171542227
    2.016193656   13.616426912   12.284499025    9.195567512
    2.023372287   13.652067992   12.318002834    9.219862349
    2.030550918   13.688052438   12.351842906    9.244431216
    2.037729549   13.724384618   12.386023769    9.269278703
    2.044908180   13.761069048   12.420550145    9.294409515
    2.052086811   13.798110312   12.455426828    9.319828478
    2.059265442   13.835513022   12.490658610    9.345540538
    2.066444073   13.873281882   12.526250392    9.371550767
    2.073622705   13.911421697   12.562207188    9.397864371
    2.080801336   13.949937362   12.598534120    9.424486689
    2.087979967   13.988833866   12.635236410    9.451423202
    2.095158598   14.028116285   12.672319380    9.478679535
    2.102337229   14.067789772   12.709788436    9.506261461
    2.109515860   14.107859555   12.747649068    9.534174911
    2.116694491   14.148331073   12.785907005    9.562425978
    2.123873122   14.189209916   12.824568144    9.591020923
    2.131051753   14.230501626   12.863638328    9.619966177
    2.138230384   14.272211823   12.903123480    9.649268348
    2.145409015   14.314346288   12.943029714    9.678934229
    2.152587646   14.356910995   12.983363370    9.708970809
    2.159766277   14.399912004   13.024130882    9.739385274
    2.166944908   14.443355546   13.065338873    9.770185016
    2.174123539   14.487247894   13.106994012    9.801377645
    2.181302170   14.531595413   13.149103072    9.832970992
    2.188480801   14.576404627   13.191673011    9.864973118
    2.195659432   14.621682205   13.234710955    9.897392327
    2.202838063   14.667434958   13.278224187    9.930237170
    2.210016694   14.713669835   13.322220154    9.963516454
    2.217195326   14.760393928   13.366706468    9.997239238
    2.224373957   14.807614477   13.411690910   10.031414873
    2.231552588   14.855338875   13.457181438   10.066053074
    2.238731219   14.903574667   13.503186187   10.101163828
    2.245909850   14.952329560   13.549713480   10.136757389
    2.253088481   15.001611422   13.596771829   10.172844351
    2.260267112   15.051428290   13.644369943   10.209435664
    2.267445743   15.101788375   13.692516732   10.246542642
    2.274624374   15.152700063   13.741221317   10.284176971
    2.281803005   15.204171926   13.790493031   10.322350732
    2.288981636   15.256212720   13.840341430   10.361076412
    2.296160267   15.308831397   13.890776299   10.400366927
    2.303338898   15.362037105   13.941807655   10.440235636
    2.310517529   15.415839197   13.993445760   10.480696367
    2.317696160   15.470247237   14.045701126   10.521763434
    2.324874791   15.525271003   14.098584523   10.563451658
    2.332053422   15.580920493   14.152106983   10.605776396
    2.339232053   15.637205931   14.206279807   10.648753560
    2.346410684   15.694137747   14.261114546   10.692399660
    2.353589316   15.751726572   14.316622987   10.736731804
    2.360767947   15.809983381   14.372817341   10.781767755
    2.367946578   15.868919586   14.429710367   10.827525992
    2.375125209   15.928546669   14.487314895   10.874025667
    2.382303840   15.988876307   14.545643983   10.921286664
    2.389482471   16.049920499   14.604711091   10.969329660
    2.396661102   16.111691542   14.664530044   11.018176162
    2.403839733   16.174201995   14.725114991   11.067848539
    2.411018364   16.237464727   14.786480465   11.118370076
    2.418196995   16.301493154   14.848641678   11.169765063
    2.425375626   16.366300963   14.911614169   11.222058796
    2.432554257   16.431901950   14.975413592   11.275277616
    2.439732888   16.498310289   15.040056071   11.329448999
    2.446911519   16.565540711   15.105558551   11.384601630
    2.454090150   16.633608301   15.171938405   11.440765461
    2.461268781   16.702528397   15.239213216   11.497971784
    2.468447412   16.772316729   15.307401088   11.556253307
    2.475626043   16.842989391   15.376520623   11.615644239
    2.482804674   16.914562746   15.446590843   11.676180383
    2.489983306   16.987053744   15.517631571   11.737899250
    2.497161937   17.060480570   15.589663838   11.800840153
    2.504340568   17.134861603   15.662708932   11.865044298
    2.511519199   17.210215036   15.736788271   11.930554920
    2.518697830   17.286559671   15.811924041   11.997417423
    2.525876461   17.363914950   15.888139210   12.065679519
    2.533055092   17.442300801   15.965457428   12.135391381
    2.540233723   17.521737598   16.043903002   12.206605807
