# energy grid [eV]     epsr_x  epsr_y  epsr_z
#
    0.200000000   17.373147638   17.571208099   15.595787321
    0.207178631   17.378189322   17.576575542   15.600815691
    0.214357262   17.383417116   17.582142438   15.606035362
    0.221535893   17.388831972   17.587909954   15.611447978
    0.228714524   17.394434896   17.593879312   15.617055272
    0.235893155   17.400226940   17.600051803   15.622859075
    0.243071786   17.406209214   17.606428778   15.628861320
    0.250250417   17.412382883   17.613011659   15.635064048
    0.257429048   17.418749171   17.619801939   15.641469414
    0.264607679   17.425309366   17.626801185   15.648079692
    0.271786311   17.432064820   17.634011046   15.654897285
    0.278964942   17.439016958   17.641433250   15.661924733
    0.286143573   17.446167273   17.649069616   15.669164717
    0.293322204   17.453517341   17.656922054   15.676620074
    0.300500835   17.461068819   17.664992572   15.684293804
    0.307679466   17.468823450   17.673283280   15.692189081
    0.314858097   17.476783073   17.681796400   15.700309268
    0.322036728   17.484949626   17.690534268   15.708657925
    0.329215359   17.493325153   17.699499347   15.717238832
    0.336393990   17.501911814   17.708694228   15.726055995
    0.343572621   17.510711889   17.718121646   15.735113672
    0.350751252   17.519727793   17.727784484   15.744416390
    0.357929883   17.528962080   17.737685788   15.753968964
    0.365108514   17.538417460   17.747828776   15.763776526
    0.372287145   17.548096808   17.758216850   15.773844545
    0.379465776   17.558003179   17.768853614   15.784178866
    0.386644407   17.568139824   17.779742887   15.794785732
    0.393823038   17.578510208   17.790888721   15.805671831
    0.401001669   17.589118031   17.802295418   15.816844329
    0.408180301   17.599967246   17.813967556   15.828310922
    0.415358932   17.611062090   17.825910011   15.840079887
    0.422537563   17.622407108   17.838127982   15.852160138
    0.429716194   17.634007188   17.850627023   15.864561298
    0.436894825   17.645867597   17.863413078   15.877293768
    0.444073456   17.657994026   17.876492517   15.890368820
    0.451252087   17.670392636   17.889872180   15.903798691
    0.458430718   17.683070114   17.903559427   15.917596698
    0.465609349   17.696033742   17.917562195   15.931777369
    0.472787980   17.709291470   17.931889059   15.946356592
    0.479966611   17.722852005   17.946549311   15.961351792
    0.487145242   17.736724915   17.961553041   15.976782133
    0.494323873   17.750920753   17.976911239   15.992668759
    0.501502504   17.765451200   17.992635910   16.009035078
    0.508681135   17.780329244   18.008740208   16.025907091
    0.515859766   17.795569380   18.025238600   16.043313794
    0.523038397   17.811187867   18.042147049   16.061287651
    0.530217028   17.827203030   18.059483248   16.079865175
    0.537395659   17.843635636   18.077266885   16.099087621
    0.544574290   17.860509347   18.095519978   16.119001840
    0.551752922   17.877851297   18.114267270   16.139661338
    0.558931553   17.895692801   18.133536733   16.161127578
    0.566110184   17.914070259   18.153360171   16.183471631
    0.573288815   17.933026302   18.173774001   16.206776248
    0.580467446   17.952611280   18.194820222   16.231138528
    0.587646077   17.972885180   18.216547671   16.256673358
    0.594824708   17.993920169   18.239013644   16.283517913
    0.602003339   18.015803970   18.262286029   16.311837621
    0.609181970   18.038644420   18.286446142   16.341834150
    0.616360601   18.062575682   18.311592552   16.373756259
    0.623539232   18.087766841   18.337846305   16.407914712
    0.630717863   18.114433893   18.365358151   16.444703016
    0.637896494   18.142856632   18.394318618   16.484626489
    0.645075125   18.173402407   18.424972098   16.528343046
    0.652253756   18.206559022   18.457636237   16.576719536
    0.659432387   18.242977642   18.492727166   16.630905134
    0.666611018   18.283518200   18.530786342   16.692409248
    0.673789649   18.329254385   18.572484687   16.763111878
    0.680968280   18.381254903   18.618500047   16.844898391
    0.688146912   18.439400245   18.668847536   16.937673665
    0.695325543   18.497315874   18.720005843   17.030848830
    0.702504174   18.523819025   18.754388472   17.072158622
    0.709682805   18.428427877   18.720768668   16.909689256
    0.716861436   18.176066787   18.599398922   16.484706380
    0.724040067   18.011024037   18.529150944   16.208139027
    0.731218698   18.008254479   18.552815246   16.206337433
    0.738397329   18.065171039   18.612453893   16.307296574
    0.745575960   18.131258368   18.679760924   16.426666085
    0.752754591   18.194271450   18.748250822   16.544592590
    0.759933222   18.252883264   18.817763448   16.659800300
    0.767111853   18.308171341   18.889675816   16.775364619
    0.774290484   18.361546673   18.965788919   16.895349937
    0.781469115   18.414339004   19.048179285   17.024275903
    0.788647746   18.467786852   19.139309832   17.167304328
    0.795826377   18.523122842   19.242215561   17.330557935
    0.803005008   18.581679661   19.360649067   17.521112978
    0.810183639   18.644988888   19.498837421   17.745248073
    0.817362270   18.714804766   19.659438510   17.999337812
    0.824540902   18.792771424   19.834175540   18.231664178
    0.831719533   18.878666634   19.970640358   18.212476804
    0.838898164   18.964043007   19.926990596   17.397699798
    0.846076795   19.012934829   19.652583235   15.936338953
    0.853255426   18.912035121   19.170276824   15.108578403
    0.860434057   18.566884910   18.242867376   14.837315959
    0.867612688   18.290865832   17.531559434   14.827474938
    0.874791319   18.265321197   17.441238192   15.009648756
    0.881969950   18.347038286   17.605970152   15.239492392
    0.889148581   18.449472328   17.809173790   15.453074836
    0.896327212   18.550537235   17.995672605   15.640096688
    0.903505843   18.647749810   18.158809347   15.804540842
    0.910684474   18.742661231   18.302316220   15.952191827
    0.917863105   18.835042709   18.429674379   16.086527241
    0.925041736   18.914176791   18.537301684   16.202954151
    0.932220367   18.939376834   18.602503539   16.275651565
    0.939398998   18.870108774   18.601952942   16.278489957
    0.946577629   18.819199568   18.605290504   16.290566047
    0.953756260   18.870695547   18.664323720   16.370886533
    0.960934891   18.972096786   18.748202719   16.483795677
    0.968113523   19.080077403   18.835758657   16.597187278
    0.975292154   19.148735453   18.920486404   16.667018304
    0.982470785   19.078617822   18.998239893   16.590741337
    0.989649416   18.859988737   19.069876116   16.357961824
    0.996828047   18.756109536   19.148321177   16.240888610
    1.004006678   18.812712794   19.237346096   16.286107197
    1.011185309   18.926860662   19.334614152   16.385894741
    1.018363940   19.054608587   19.440708675   16.493380425
    1.025542571   19.187617722   19.557966465   16.598493992
    1.032721202   19.326222714   19.688020419   16.701199549
    1.039899833   19.466124660   19.825246407   16.802756586
    1.047078464   19.574345915   19.932145182   16.900495127
    1.054257095   19.528717645   19.872749435   16.978151710
    1.061435726   19.169388964   19.468737254   17.011268328
    1.068614357   18.797951536   19.047418503   17.031947369
    1.075792988   18.742383326   18.953114152   17.041500965
    1.082971619   18.848500057   18.991506142   16.951557113
    1.090150250   18.991760021   19.065590445   16.856409815
    1.097328881   19.129513620   19.184802045   16.884608623
    1.104507513   19.194639889   19.285871433   16.952019349
    1.111686144   19.079433464   19.288046247   16.957178178
    1.118864775   18.888855902   19.245716077   16.932188804
    1.126043406   18.863685451   19.294160276   16.981601396
    1.133222037   18.942624447   19.396752096   17.065324884
    1.140400668   19.010624482   19.480355966   17.096684669
    1.147579299   19.031368682   19.523194940   17.049727193
    1.154757930   19.072931111   19.592113001   17.051639597
    1.161936561   19.155204296   19.707346508   17.137945664
    1.169115192   19.249636287   19.843854145   17.258370089
    1.176293823   19.342407864   19.989295075   17.389688197
    1.183472454   19.426251221   20.131620026   17.523034137
    1.190651085   19.486616326   20.229289664   17.634719761
    1.197829716   19.515995134   20.188917748   17.638085264
    1.205008347   19.550247129   19.918999543   17.389228716
    1.212186978   19.608472269   19.613955489   17.067591491
    1.219365609   19.685157028   19.577468734   17.000897231
    1.226544240   19.770284396   19.708629206   17.097371571
    1.233722871   19.858746061   19.883570570   17.234538317
    1.240901503   19.947624353   20.054123894   17.367607272
    1.248080134   20.027354604   20.168263646   17.460807767
    1.255258765   20.075872648   20.125561166   17.450953993
    1.262437396   20.106000511   19.979561776   17.372461344
    1.269616027   20.173745618   19.979243316   17.385451534
    1.276794658   20.259562644   20.077823381   17.478173074
    1.283973289   20.288587465   20.083574854   17.582974057
    1.291151920   20.198603575   19.890621413   17.667881634
    1.298330551   20.076964538   19.746078332   17.733522203
    1.305509182   20.010527231   19.758932482   17.741603077
    1.312687813   20.037051881   19.809751318   17.677168319
    1.319866444   20.131185766   19.901709715   17.674141654
    1.327045075   20.247231027   20.025229811   17.747995865
    1.334223706   20.340162659   20.126721942   17.807498566
    1.341402337   20.347530103   20.162067522   17.787506813
    1.348580968   20.254786937   20.163800164   17.749306237
    1.355759599   20.212752708   20.211239412   17.783104665
    1.362938230   20.277026971   20.308303330   17.875126333
    1.370116861   20.382735313   20.421424316   17.985599121
    1.377295492   20.494923995   20.534995909   18.097329290
    1.384474124   20.600140266   20.639877208   18.197378322
    1.391652755   20.678658810   20.713903093   18.250680283
    1.398831386   20.708676297   20.731158215   18.216038219
    1.406010017   20.740233504   20.749813490   18.184637387
    1.413188648   20.818537232   20.823234169   18.242155495
    1.420367279   20.910628183   20.916119357   18.341455730
    1.427545910   20.983268350   20.994984737   18.442126730
    1.434724541   21.051418867   21.070229135   18.540814140
    1.441903172   21.125375505   21.152016461   18.628697802
    1.449081803   21.131159048   21.188482965   18.638029278
    1.456260434   21.021249083   21.146056420   18.528124988
    1.463439065   20.960870293   21.138105305   18.470231581
    1.470617696   21.020571352   21.213354147   18.536590523
    1.477796327   21.126795491   21.321687240   18.649174490
    1.484974958   21.237856469   21.434734667   18.754162855
    1.492153589   21.341559997   21.544381559   18.827566565
    1.499332220   21.444704963   21.656325318   18.907220087
    1.506510851   21.552678810   21.773497700   19.019555988
    1.513689482   21.655453552   21.880650017   19.125127827
    1.520868114   21.730487543   21.936906434   19.144850321
    1.528046745   21.774610439   21.922664685   19.034840718
    1.535225376   21.846134538   21.944502197   18.971338733
    1.542404007   21.958745544   22.050573223   19.048201502
    1.549582638   22.085471525   22.191937174   19.183747147
    1.556761269   22.193948376   22.321714583   19.307154502
    1.563939900   22.215720996   22.369113921   19.335294413
    1.571118531   22.114969383   22.298359605   19.227907866
    1.578297162   22.070687725   22.281853964   19.174891149
    1.585475793   22.148090381   22.369011819   19.238990728
    1.592654424   22.255512510   22.437514215   19.306547736
    1.599833055   22.360961827   22.473406601   19.352774224
    1.607011686   22.488197118   22.569757581   19.443700621
    1.614190317   22.619108945   22.659466775   19.565074417
    1.621368948   22.715740889   22.602116118   19.677613157
    1.628547579   22.800415648   22.491085238   19.783760506
    1.635726210   22.916251366   22.539356928   19.899488546
    1.642904841   22.999748144   22.665499465   19.987041375
    1.650083472   22.983640997   22.741236493   20.004675351
    1.657262104   22.971800427   22.765506839   20.011693343
    1.664440735   23.069423357   22.847454124   20.090374870
    1.671619366   23.219623364   22.973401640   20.226889635
    1.678797997   23.317780608   23.042841845   20.380092663
    1.685976628   23.336623826   23.065520093   20.536672970
    1.693155259   23.396467075   23.125531806   20.700743565
    1.700333890   23.509785575   23.184631162   20.854494691
    1.707512521   23.629707721   23.256545934   20.941020692
    1.714691152   23.689235722   23.354686943   20.873848343
    1.721869783   23.682225296   23.477979074   20.729416631
    1.729048414   23.740263069   23.635546698   20.683248002
    1.736227045   23.881269623   23.805670427   20.770233491
    1.743405676   23.990869556   23.953608678   20.880229871
    1.750584307   23.980101322   24.013835808   20.916369832
    1.757762938   23.900339436   23.947405226   20.956284088
    1.764941569   23.907486961   23.906278080   21.102315890
    1.772120200   24.036401989   23.981792954   21.295242074
    1.779298831   24.169203729   24.073282460   21.455690720
    1.786477462   24.346729223   24.200383066   21.620390192
    1.793656093   24.559654230   24.382063654   21.805729071
    1.800834725   24.705439017   24.546232150   21.945698515
    1.808013356   24.725028621   24.623697400   22.007973179
    1.815191987   24.587116031   24.644209724   21.874931555
    1.822370618   24.390672308   24.671435368   21.490924723
    1.829549249   24.210938657   24.727053112   20.992337982
    1.836727880   24.170645030   24.820330527   20.716806118
    1.843906511   24.286275366   24.899700518   20.716239395
    1.851085142   24.442209497   24.946054869   20.782869269
    1.858263773   24.692646776   25.089101382   20.985026708
    1.865442404   24.986964758   25.289783224   21.253079606
    1.872621035   25.213088550   25.429543103   21.441296535
    1.879799666   25.364757043   25.510611087   21.562528836
    1.886978297   25.539814002   25.643924744   21.741068895
    1.894156928   25.662674111   25.760003210   21.895056328
    1.901335559   25.602026417   25.723797974   21.855949617
    1.908514190   25.375739274   25.622860136   21.708561919
    1.915692821   25.258570750   25.653682079   21.678012373
    1.922871452   25.425818526   25.835638557   21.679570844
    1.930050083   25.648840055   26.038741682   21.574468317
    1.937228715   25.708853932   26.187813572   21.542072836
    1.944407346   25.626149490   26.342907030   21.653104825
    1.951585977   25.650747521   26.531305446   21.868321507
    1.958764608   25.670217169   26.659287506   22.102960327
    1.965943239   25.697939766   26.769563598   22.320990783
    1.973121870   25.843359368   26.932936961   22.501583840
    1.980300501   25.985902270   27.063899421   22.622316858
    1.987479132   26.086099557   27.112542015   22.745892839
    1.994657763   26.038108804   27.017958885   22.856764363
    2.001836394   26.033650029   26.958423053   22.953073278
    2.009015025   26.182467590   27.058183582   23.084315152
    2.016193656   26.417561293   27.275481250   23.253791009
    2.023372287   26.703558815   27.560189119   23.374683076
    2.030550918   26.942348725   27.837928050   23.439552582
    2.037729549   27.133165514   28.069655844   23.568308580
    2.044908180   27.256154287   28.242216794   23.674780786
    2.052086811   27.277747344   28.403384980   23.647354732
    2.059265442   27.335711808   28.606947174   23.604537699
    2.066444073   27.475459298   28.762730465   23.653764482
    2.073622705   27.593516469   28.694587224   23.748101559
    2.080801336   27.637331918   28.447526664   23.919376705
    2.087979967   27.762580072   28.325351300   24.175582545
    2.095158598   28.044832154   28.530199682   24.457875108
    2.102337229   28.327237993   28.904724666   24.679513416
    2.109515860   28.418376526   29.203739323   24.761558671
    2.116694491   28.273407576   29.218564832   24.747107903
    2.123873122   28.018831996   29.101502590   24.694810275
    2.131051753   27.959120568   29.239117265   24.731317128
    2.138230384   28.178411279   29.600980383   24.856079471
    2.145409015   28.468559101   29.859084363   25.031461177
    2.152587646   28.607777818   29.639226281   25.098093016
    2.159766277   28.600049075   29.221374728   24.983891574
    2.166944908   28.676585253   29.244534653   24.953381057
    2.174123539   28.917464504   29.561292142   25.147240227
    2.181302170   29.204365203   29.863239677   25.409095850
    2.188480801   29.326267777   29.920279667   25.558225712
    2.195659432   29.302701374   29.717365761   25.571941591
    2.202838063   29.438475610   29.694728509   25.613374283
    2.210016694   29.731363388   29.956019814   25.739021992
    2.217195326   30.031160147   30.313448069   25.956185329
    2.224373957   30.245989033   30.703286689   26.225548960
    2.231552588   30.398680121   31.115478218   26.505386834
    2.238731219   30.603513259   31.512175986   26.709673498
    2.245909850   30.768567136   31.838242486   26.724474197
    2.253088481   30.847108721   32.002251119   26.708485179
    2.260267112   30.862091685   31.971018144   26.790053536
    2.267445743   30.907049505   31.965009609   27.005971936
    2.274624374   31.009268403   32.128518413   27.331800826
    2.281803005   31.303954320   32.483363127   27.710295305
    2.288981636   31.663619543   32.917324123   28.049816381
    2.296160267   31.863851818   33.304786842   28.254803774
    2.303338898   32.001198998   33.628753735   28.409808214
    2.310517529   32.222553256   33.927552417   28.633478629
    2.317696160   32.497880867   34.259705794   28.940922122
    2.324874791   32.888268741   34.730286526   29.352586646
    2.332053422   33.261817480   35.270736066   29.700332357
    2.339232053   33.412653513   35.750445830   29.695004993
    2.346410684   33.365089182   36.158706887   29.421116219
    2.353589316   33.583462872   36.619807293   29.445945567
    2.360767947   34.048192737   37.067207857   29.658983251
    2.367946578   34.518890955   37.262416706   29.653875284
    2.375125209   34.958957607   37.299570391   29.609972025
    2.382303840   35.287322558   37.266411575   29.761100768
    2.389482471   35.263928309   36.882250087   29.759665917
    2.396661102   35.025885222   36.188841255   29.684445901
    2.403839733   34.909445097   35.813038701   29.864416982
    2.411018364   35.184921844   36.078173048   30.289865006
    2.418196995   35.729426071   36.693236864   30.824859434
    2.425375626   36.271375873   37.312360727   31.292240626
    2.432554257   36.711691143   37.806096030   31.484508180
    2.439732888   37.136042663   38.290936151   31.261385861
    2.446911519   37.662318821   38.871279330   31.044922280
    2.454090150   38.354636268   39.563572801   31.278361817
    2.461268781   39.149111021   40.356938128   31.815505256
    2.468447412   39.992474654   41.163180004   32.456757063
    2.475626043   40.836555467   41.870150495   33.101887232
    2.482804674   41.563249526   42.525593575   33.690344177
    2.489983306   41.778709767   43.074302445   34.119223266
    2.497161937   41.131719909   43.251271350   34.389008261
    2.504340568   40.557609822   43.440895727   34.734864918
    2.511519199   40.802930154   44.092128210   35.193921760
    2.518697830   41.460425243   44.966992529   35.707650825
    2.525876461   42.081398194   45.692324190   36.225038434
    2.533055092   42.567407951   46.245614019   36.763215352
    2.540233723   43.243482047   46.933093625   37.415635559
