# energy grid [eV]     ieps_x  ieps_y  ieps_z
#
    0.200000000    6.352673605    4.728085772    3.792395949
    0.207178631    6.351503990    4.727182509    3.791698022
    0.214357262    6.350293832    4.726247997    3.790975992
    0.221535893    6.349043200    4.725282296    3.790229909
    0.228714524    6.347752169    4.724285470    3.789459827
    0.235893155    6.346420813    4.723257583    3.788665800
    0.243071786    6.345049210    4.722198702    3.787847884
    0.250250417    6.343637439    4.721108895    3.787006136
    0.257429048    6.342185583    4.719988232    3.786140615
    0.264607679    6.340693724    4.718836785    3.785251383
    0.271786311    6.339161948    4.717654627    3.784338500
    0.278964942    6.337590344    4.716441833    3.783402030
    0.286143573    6.335979000    4.715198481    3.782442037
    0.293322204    6.334328008    4.713924649    3.781458589
    0.300500835    6.332637463    4.712620417    3.780451752
    0.307679466    6.330907459    4.711285867    3.779421594
    0.314858097    6.329138094    4.709921082    3.778368187
    0.322036728    6.327329466    4.708526148    3.777291602
    0.329215359    6.325481679    4.707101150    3.776191911
    0.336393990    6.323594833    4.705646177    3.775069188
    0.343572621    6.321669034    4.704161318    3.773923509
    0.350751252    6.319704388    4.702646665    3.772754949
    0.357929883    6.317701003    4.701102309    3.771563588
    0.365108514    6.315658990    4.699528345    3.770349503
    0.372287145    6.313578459    4.697924867    3.769112775
    0.379465776    6.311459525    4.696291973    3.767853484
    0.386644407    6.309302301    4.694629760    3.766571714
    0.393823038    6.307106905    4.692938329    3.765267547
    0.401001669    6.304873454    4.691217778    3.763941068
    0.408180301    6.302602069    4.689468211    3.762592363
    0.415358932    6.300292870    4.687689731    3.761221517
    0.422537563    6.297945980    4.685882442    3.759828619
    0.429716194    6.295561523    4.684046450    3.758413758
    0.436894825    6.293139624    4.682181861    3.756977022
    0.444073456    6.290680412    4.680288785    3.755518503
    0.451252087    6.288184014    4.678367329    3.754038292
    0.458430718    6.285650561    4.676417605    3.752536482
    0.465609349    6.283080182    4.674439724    3.751013165
    0.472787980    6.280473012    4.672433798    3.749468436
    0.479966611    6.277829184    4.670399942    3.747902390
    0.487145242    6.275148834    4.668338270    3.746315122
    0.494323873    6.272432097    4.666248897    3.744706731
    0.501502504    6.269679112    4.664131942    3.743077313
    0.508681135    6.266890017    4.661987520    3.741426967
    0.515859766    6.264064954    4.659815752    3.739755791
    0.523038397    6.261204062    4.657616757    3.738063886
    0.530217028    6.258307486    4.655390656    3.736351353
    0.537395659    6.255375367    4.653137570    3.734618292
    0.544574290    6.252407853    4.650857621    3.732864805
    0.551752922    6.249405087    4.648550934    3.731090997
    0.558931553    6.246367218    4.646217632    3.729296969
    0.566110184    6.243294394    4.643857840    3.727482826
    0.573288815    6.240186763    4.641471685    3.725648672
    0.580467446    6.237044477    4.639059293    3.723794614
    0.587646077    6.233867685    4.636620791    3.721920757
    0.594824708    6.230656541    4.634156309    3.720027206
    0.602003339    6.227411197    4.631665974    3.718114071
    0.609181970    6.224131808    4.629149918    3.716181457
    0.616360601    6.220818528    4.626608270    3.714229473
    0.623539232    6.217471514    4.624041161    3.712258229
    0.630717863    6.214090922    4.621448724    3.710267832
    0.637896494    6.210676910    4.618831091    3.708258393
    0.645075125    6.207229637    4.616188396    3.706230022
    0.652253756    6.203749263    4.613520772    3.704182830
    0.659432387    6.200235946    4.610828354    3.702116927
    0.666611018    6.196689849    4.608111277    3.700032426
    0.673789649    6.193111134    4.605369677    3.697929437
    0.680968280    6.189499962    4.602603691    3.695808074
    0.688146912    6.185856497    4.599813454    3.693668449
    0.695325543    6.182180904    4.596999106    3.691510676
    0.702504174    6.178473348    4.594160783    3.689334867
    0.709682805    6.174733993    4.591298625    3.687141137
    0.716861436    6.170963006    4.588412770    3.684929599
    0.724040067    6.167160554    4.585503357    3.682700369
    0.731218698    6.163326804    4.582570528    3.680453560
    0.738397329    6.159461925    4.579614423    3.678189289
    0.745575960    6.155566086    4.576635182    3.675907670
    0.752754591    6.151639456    4.573632947    3.673608820
    0.759933222    6.147682204    4.570607860    3.671292853
    0.767111853    6.143694503    4.567560064    3.668959887
    0.774290484    6.139676523    4.564489700    3.666610038
    0.781469115    6.135628435    4.561396912    3.664243422
    0.788647746    6.131550412    4.558281843    3.661860157
    0.795826377    6.127442627    4.555144638    3.659460359
    0.803005008    6.123305253    4.551985440    3.657044145
    0.810183639    6.119138464    4.548804395    3.654611634
    0.817362270    6.114942435    4.545601646    3.652162943
    0.824540902    6.110717340    4.542377339    3.649698189
    0.831719533    6.106463354    4.539131620    3.647217491
    0.838898164    6.102180653    4.535864634    3.644720966
    0.846076795    6.097869413    4.532576527    3.642208733
    0.853255426    6.093529811    4.529267446    3.639680911
    0.860434057    6.089162023    4.525937538    3.637137617
    0.867612688    6.084766228    4.522586948    3.634578970
    0.874791319    6.080342602    4.519215825    3.632005089
    0.881969950    6.075891323    4.515824315    3.629416093
    0.889148581    6.071412571    4.512412566    3.626812100
    0.896327212    6.066906523    4.508980726    3.624193229
    0.903505843    6.062373360    4.505528942    3.621559600
    0.910684474    6.057813259    4.502057363    3.618911330
    0.917863105    6.053226401    4.498566137    3.616248539
    0.925041736    6.048612966    4.495055412    3.613571347
    0.932220367    6.043973134    4.491525336    3.610879871
    0.939398998    6.039307085    4.487976060    3.608174232
    0.946577629    6.034615000    4.484407730    3.605454547
    0.953756260    6.029897061    4.480820497    3.602720937
    0.960934891    6.025153447    4.477214508    3.599973519
    0.968113523    6.020384341    4.473589914    3.597212414
    0.975292154    6.015589925    4.469946863    3.594437739
    0.982470785    6.010770379    4.466285505    3.591649614
    0.989649416    6.005925886    4.462605988    3.588848158
    0.996828047    6.001056628    4.458908463    3.586033489
    1.004006678    5.996162787    4.455193078    3.583205725
    1.011185309    5.991244545    4.451459984    3.580364986
    1.018363940    5.986302086    4.447709328    3.577511391
    1.025542571    5.981335591    4.443941262    3.574645056
    1.032721202    5.976345243    4.440155934    3.571766101
    1.039899833    5.971331226    4.436353493    3.568874644
    1.047078464    5.966293721    4.432534090    3.565970803
    1.054257095    5.961232912    4.428697872    3.563054695
    1.061435726    5.956148982    4.424844991    3.560126439
    1.068614357    5.951042114    4.420975595    3.557186153
    1.075792988    5.945912492    4.417089832    3.554233953
    1.082971619    5.940760297    4.413187853    3.551269957
    1.090150250    5.935585713    4.409269807    3.548294282
    1.097328881    5.930388924    4.405335842    3.545307046
    1.104507513    5.925170112    4.401386106    3.542308365
    1.111686144    5.919929461    4.397420750    3.539298355
    1.118864775    5.914667153    4.393439922    3.536277134
    1.126043406    5.909383371    4.389443769    3.533244817
    1.133222037    5.904078299    4.385432441    3.530201521
    1.140400668    5.898752120    4.381406085    3.527147361
    1.147579299    5.893405015    4.377364850    3.524082453
    1.154757930    5.888037169    4.373308884    3.521006912
    1.161936561    5.882648762    4.369238334    3.517920854
    1.169115192    5.877239979    4.365153348    3.514824393
    1.176293823    5.871811001    4.361054073    3.511717644
    1.183472454    5.866362011    4.356940657    3.508600722
    1.190651085    5.860893191    4.352813246    3.505473741
    1.197829716    5.855404722    4.348671987    3.502336814
    1.205008347    5.849896787    4.344517027    3.499190056
    1.212186978    5.844369567    4.340348512    3.496033579
    1.219365609    5.838823244    4.336166588    3.492867497
    1.226544240    5.833257999    4.331971400    3.489691922
    1.233722871    5.827674013    4.327763095    3.486506968
    1.240901503    5.822071467    4.323541818    3.483312746
    1.248080134    5.816450541    4.319307713    3.480109368
    1.255258765    5.810811417    4.315060926    3.476896946
    1.262437396    5.805154275    4.310801600    3.473675591
    1.269616027    5.799479293    4.306529881    3.470445414
    1.276794658    5.793786653    4.302245911    3.467206526
    1.283973289    5.788076533    4.297949835    3.463959038
    1.291151920    5.782349113    4.293641796    3.460703058
    1.298330551    5.776604572    4.289321936    3.457438697
    1.305509182    5.770843088    4.284990398    3.454166064
    1.312687813    5.765064839    4.280647325    3.450885269
    1.319866444    5.759270004    4.276292858    3.447596419
    1.327045075    5.753458761    4.271927139    3.444299623
    1.334223706    5.747631286    4.267550308    3.440994990
    1.341402337    5.741787757    4.263162508    3.437682626
    1.348580968    5.735928350    4.258763878    3.434362638
    1.355759599    5.730053243    4.254354558    3.431035134
    1.362938230    5.724162610    4.249934689    3.427700220
    1.370116861    5.718256627    4.245504408    3.424358002
    1.377295492    5.712335471    4.241063856    3.421008586
    1.384474124    5.706399315    4.236613171    3.417652076
    1.391652755    5.700448334    4.232152491    3.414288579
    1.398831386    5.694482703    4.227681953    3.410918198
    1.406010017    5.688502594    4.223201694    3.407541037
    1.413188648    5.682508182    4.218711853    3.404157200
    1.420367279    5.676499639    4.214212564    3.400766791
    1.427545910    5.670477137    4.209703964    3.397369912
    1.434724541    5.664440849    4.205186189    3.393966666
    1.441903172    5.658390947    4.200659373    3.390557154
    1.449081803    5.652327600    4.196123650    3.387141479
    1.456260434    5.646250981    4.191579157    3.383719741
    1.463439065    5.640161258    4.187026025    3.380292042
    1.470617696    5.634058603    4.182464387    3.376858481
    1.477796327    5.627943183    4.177894378    3.373419159
    1.484974958    5.621815169    4.173316129    3.369974175
    1.492153589    5.615674728    4.168729771    3.366523627
    1.499332220    5.609522028    4.164135436    3.363067616
    1.506510851    5.603357236    4.159533255    3.359606238
    1.513689482    5.597180519    4.154923358    3.356139591
    1.520868114    5.590992044    4.150305875    3.352667773
    1.528046745    5.584791975    4.145680934    3.349190881
    1.535225376    5.578580479    4.141048666    3.345709010
    1.542404007    5.572357720    4.136409197    3.342222256
    1.549582638    5.566123862    4.131762655    3.338730716
    1.556761269    5.559879069    4.127109169    3.335234484
    1.563939900    5.553623504    4.122448863    3.331733654
    1.571118531    5.547357329    4.117781866    3.328228320
    1.578297162    5.541080706    4.113108301    3.324718577
    1.585475793    5.534793797    4.108428294    3.321204516
    1.592654424    5.528496762    4.103741969    3.317686231
    1.599833055    5.522189762    4.099049451    3.314163814
    1.607011686    5.515872956    4.094350862    3.310637356
    1.614190317    5.509546503    4.089646326    3.307106948
    1.621368948    5.503210562    4.084935965    3.303572682
    1.628547579    5.496865291    4.080219900    3.300034648
    1.635726210    5.490510847    4.075498252    3.296492934
    1.642904841    5.484147386    4.070771143    3.292947631
    1.650083472    5.477775065    4.066038691    3.289398827
    1.657262104    5.471394038    4.061301017    3.285846610
    1.664440735    5.465004462    4.056558239    3.282291069
    1.671619366    5.458606489    4.051810475    3.278732289
    1.678797997    5.452200274    4.047057843    3.275170360
    1.685976628    5.445785969    4.042300461    3.271605365
    1.693155259    5.439363727    4.037538443    3.268037392
    1.700333890    5.432933699    4.032771907    3.264466526
    1.707512521    5.426496037    4.028000968    3.260892851
    1.714691152    5.420050890    4.023225740    3.257316452
    1.721869783    5.413598409    4.018446337    3.253737412
    1.729048414    5.407138741    4.013662873    3.250155815
    1.736227045    5.400672037    4.008875461    3.246571744
    1.743405676    5.394198443    4.004084213    3.242985281
    1.750584307    5.387718106    3.999289240    3.239396508
    1.757762938    5.381231174    3.994490653    3.235805506
    1.764941569    5.374737790    3.989688564    3.232212356
    1.772120200    5.368238102    3.984883082    3.228617138
    1.779298831    5.361732252    3.980074315    3.225019932
    1.786477462    5.355220384    3.975262374    3.221420818
    1.793656093    5.348702642    3.970447365    3.217819874
    1.800834725    5.342179168    3.965629395    3.214217178
    1.808013356    5.335650103    3.960808573    3.210612809
    1.815191987    5.329115589    3.955985003    3.207006843
    1.822370618    5.322575764    3.951158791    3.203399358
    1.829549249    5.316030770    3.946330042    3.199790429
    1.836727880    5.309480744    3.941498861    3.196180133
    1.843906511    5.302925826    3.936665350    3.192568544
    1.851085142    5.296366151    3.931829613    3.188955738
    1.858263773    5.289801857    3.926991753    3.185341789
    1.865442404    5.283233080    3.922151870    3.181726770
    1.872621035    5.276659956    3.917310066    3.178110755
    1.879799666    5.270082618    3.912466441    3.174493816
    1.886978297    5.263501200    3.907621096    3.170876026
    1.894156928    5.256915836    3.902774129    3.167257457
    1.901335559    5.250326657    3.897925639    3.163638179
    1.908514190    5.243733797    3.893075724    3.160018264
    1.915692821    5.237137385    3.888224481    3.156397782
    1.922871452    5.230537551    3.883372007    3.152776802
    1.930050083    5.223934426    3.878518398    3.149155394
    1.937228715    5.217328138    3.873663749    3.145533626
    1.944407346    5.210718815    3.868808155    3.141911567
    1.951585977    5.204106585    3.863951709    3.138289284
    1.958764608    5.197491573    3.859094507    3.134666845
    1.965943239    5.190873906    3.854236639    3.131044316
    1.973121870    5.184253710    3.849378200    3.127421764
    1.980300501    5.177631107    3.844519279    3.123799254
    1.987479132    5.171006222    3.839659968    3.120176852
    1.994657763    5.164379178    3.834800358    3.116554622
    2.001836394    5.157750098    3.829940538    3.112932628
    2.009015025    5.151119101    3.825080597    3.109310936
    2.016193656    5.144486310    3.820220623    3.105689606
    2.023372287    5.137851844    3.815360705    3.102068703
    2.030550918    5.131215822    3.810500929    3.098448289
    2.037729549    5.124578363    3.805641382    3.094828426
    2.044908180    5.117939585    3.800782150    3.091209174
    2.052086811    5.111299604    3.795923317    3.087590595
    2.059265442    5.104658538    3.791064970    3.083972749
    2.066444073    5.098016500    3.786207191    3.080355696
    2.073622705    5.091373607    3.781350064    3.076739495
    2.080801336    5.084729972    3.776493672    3.073124205
    2.087979967    5.078085708    3.771638096    3.069509885
    2.095158598    5.071440929    3.766783419    3.065896592
    2.102337229    5.064795745    3.761929721    3.062284384
    2.109515860    5.058150269    3.757077083    3.058673318
    2.116694491    5.051504610    3.752225583    3.055063451
    2.123873122    5.044858878    3.747375302    3.051454837
    2.131051753    5.038213182    3.742526317    3.047847534
    2.138230384    5.031567630    3.737678706    3.044241596
    2.145409015    5.024922329    3.732832546    3.040637078
    2.152587646    5.018277386    3.727987914    3.037034033
    2.159766277    5.011632908    3.723144886    3.033432516
    2.166944908    5.004988999    3.718303537    3.029832579
    2.174123539    4.998345763    3.713463941    3.026234276
    2.181302170    4.991703305    3.708626173    3.022637659
    2.188480801    4.985061727    3.703790306    3.019042779
    2.195659432    4.978421131    3.698956414    3.015449688
    2.202838063    4.971781620    3.694124567    3.011858437
    2.210016694    4.965143294    3.689294839    3.008269076
    2.217195326    4.958506253    3.684467300    3.004681655
    2.224373957    4.951870597    3.679642019    3.001096224
    2.231552588    4.945236423    3.674819068    2.997512832
    2.238731219    4.938603830    3.669998516    2.993931527
    2.245909850    4.931972916    3.665180431    2.990352358
    2.253088481    4.925343776    3.660364880    2.986775372
    2.260267112    4.918716506    3.655551933    2.983200617
    2.267445743    4.912091201    3.650741654    2.979628140
    2.274624374    4.905467955    3.645934112    2.976057986
    2.281803005    4.898846863    3.641129371    2.972490203
    2.288981636    4.892228017    3.636327496    2.968924835
    2.296160267    4.885611508    3.631528552    2.965361928
    2.303338898    4.878997429    3.626732603    2.961801525
    2.310517529    4.872385870    3.621939713    2.958243673
    2.317696160    4.865776921    3.617149943    2.954688413
    2.324874791    4.859170671    3.612363357    2.951135791
    2.332053422    4.852567210    3.607580015    2.947585848
    2.339232053    4.845966624    3.602799980    2.944038627
    2.346410684    4.839369000    3.598023311    2.940494170
    2.353589316    4.832774427    3.593250068    2.936952520
    2.360767947    4.826182988    3.588480311    2.933413716
    2.367946578    4.819594770    3.583714098    2.929877801
    2.375125209    4.813009856    3.578951488    2.926344814
    2.382303840    4.806428330    3.574192538    2.922814796
    2.389482471    4.799850275    3.569437305    2.919287786
    2.396661102    4.793275774    3.564685847    2.915763823
    2.403839733    4.786704907    3.559938219    2.912242947
    2.411018364    4.780137757    3.555194475    2.908725194
    2.418196995    4.773574403    3.550454673    2.905210605
    2.425375626    4.767014924    3.545718865    2.901699216
    2.432554257    4.760459399    3.540987105    2.898191064
    2.439732888    4.753907908    3.536259447    2.894686186
    2.446911519    4.747360526    3.531535944    2.891184619
    2.454090150    4.740817332    3.526816647    2.887686398
    2.461268781    4.734278400    3.522101609    2.884191559
    2.468447412    4.727743807    3.517390880    2.880700138
    2.475626043    4.721213627    3.512684512    2.877212169
    2.482804674    4.714687935    3.507982553    2.873727687
    2.489983306    4.708166804    3.503285055    2.870246726
    2.497161937    4.701650306    3.498592065    2.866769319
    2.504340568    4.695138515    3.493903632    2.863295499
    2.511519199    4.688631500    3.489219804    2.859825301
    2.518697830    4.682129334    3.484540630    2.856358756
    2.525876461    4.675632087    3.479866155    2.852895897
    2.533055092    4.669139827    3.475196426    2.849436755
    2.540233723    4.662652625    3.470531490    2.845981361
