# energy grid [eV]     epsr_x  epsr_y  epsr_z
#
    0.200000000    9.624886559    6.022710557   11.036760520
    0.207178631    9.626829918    6.023742914   11.038929982
    0.214357262    9.628843048    6.024812486   11.041177339
    0.221535893    9.630926083    6.025919358   11.043502739
    0.228714524    9.633079161    6.027063624   11.045906339
    0.235893155    9.635302424    6.028245378   11.048388300
    0.243071786    9.637596021    6.029464721   11.050948790
    0.250250417    9.639960107    6.030721755   11.053587982
    0.257429048    9.642394841    6.032016587   11.056306058
    0.264607679    9.644900387    6.033349330   11.059103204
    0.271786311    9.647476916    6.034720098   11.061979613
    0.278964942    9.650124604    6.036129013   11.064935485
    0.286143573    9.652843633    6.037576197   11.067971027
    0.293322204    9.655634191    6.039061780   11.071086453
    0.300500835    9.658496471    6.040585897   11.074281984
    0.307679466    9.661430673    6.042148685   11.077557847
    0.314858097    9.664437004    6.043750288   11.080914279
    0.322036728    9.667515675    6.045390855   11.084351522
    0.329215359    9.670666907    6.047070541   11.087869829
    0.336393990    9.673890924    6.048789504   11.091469457
    0.343572621    9.677187959    6.050547911   11.095150676
    0.350751252    9.680558251    6.052345932   11.098913759
    0.357929883    9.684002047    6.054183745   11.102758994
    0.365108514    9.687519601    6.056061534   11.106686672
    0.372287145    9.691111174    6.057979489   11.110697098
    0.379465776    9.694777034    6.059937808   11.114790584
    0.386644407    9.698517460    6.061936695   11.118967453
    0.393823038    9.702332737    6.063976362   11.123228037
    0.401001669    9.706223157    6.066057029   11.127572681
    0.408180301    9.710189024    6.068178924   11.132001738
    0.415358932    9.714230647    6.070342284   11.136515575
    0.422537563    9.718348349    6.072547353   11.141114570
    0.429716194    9.722542459    6.074794387   11.145799113
    0.436894825    9.726813317    6.077083650   11.150569606
    0.444073456    9.731161274    6.079415416   11.155426468
    0.451252087    9.735586690    6.081789972   11.160370127
    0.458430718    9.740089937    6.084207615   11.165401029
    0.465609349    9.744671399    6.086668652   11.170519635
    0.472787980    9.749331472    6.089173407   11.175726421
    0.479966611    9.754070564    6.091722214   11.181021881
    0.487145242    9.758889097    6.094315422   11.186406525
    0.494323873    9.763787504    6.096953395   11.191880882
    0.501502504    9.768766236    6.099636513   11.197445502
    0.508681135    9.773825757    6.102365174   11.203100955
    0.515859766    9.778966548    6.105139791   11.208847832
    0.523038397    9.784189105    6.107960799   11.214686748
    0.530217028    9.789493942    6.110828651   11.220618341
    0.537395659    9.794881593    6.113743824   11.226643276
    0.544574290    9.800352609    6.116706817   11.232762246
    0.551752922    9.805907565    6.119718153   11.238975973
    0.558931553    9.811547055    6.122778382   11.245285210
    0.566110184    9.817271698    6.125888085   11.251690742
    0.573288815    9.823082137    6.129047870   11.258193392
    0.580467446    9.828979041    6.132258380   11.264794020
    0.587646077    9.834963108    6.135520294   11.271493527
    0.594824708    9.841035066    6.138834328   11.278292859
    0.602003339    9.847195676    6.142201242   11.285193009
    0.609181970    9.853445734    6.145621839   11.292195021
    0.616360601    9.859786070    6.149096972   11.299299994
    0.623539232    9.866217559    6.152627547   11.306509088
    0.630717863    9.872741118    6.156214528   11.313823529
    0.637896494    9.879357709    6.159858945   11.321244612
    0.645075125    9.886068349    6.163561893   11.328773710
    0.652253756    9.892874107    6.167324548   11.336412281
    0.659432387    9.899776117    6.171148165   11.344161876
    0.666611018    9.906775577    6.175034095   11.352024146
    0.673789649    9.913873757    6.178983787   11.360000854
    0.680968280    9.921072009    6.182998806   11.368093887
    0.688146912    9.928371774    6.187080838   11.376305268
    0.695325543    9.935774588    6.191231710   11.384637169
    0.702504174    9.943282097    6.195453401   11.393091931
    0.709682805    9.950896066    6.199748063   11.401672082
    0.716861436    9.958618395    6.204118040   11.410380358
    0.724040067    9.966451131    6.208565891   11.419219727
    0.731218698    9.974396492    6.213094419   11.428193421
    0.738397329    9.982456881    6.217706704   11.437304970
    0.745575960    9.990634917    6.222406134   11.446558235
    0.752754591    9.998933458    6.227196452   11.455957460
    0.759933222   10.007355636    6.232081805   11.465507322
    0.767111853   10.015904897    6.237066804   11.475212991
    0.774290484   10.024585047    6.242156588   11.485080209
    0.781469115   10.033400302    6.247356912   11.495115372
    0.788647746   10.042355358    6.252674242   11.505325637
    0.795826377   10.051455463    6.258115872   11.515719041
    0.803005008   10.060706516    6.263690062   11.526304656
    0.810183639   10.070115173    6.269406215   11.537092769
    0.817362270   10.079688989    6.275275077   11.548095096
    0.824540902   10.089436582    6.281308997   11.559325058
    0.831719533   10.099367842    6.287522236   11.570798111
    0.838898164   10.109494188    6.293931362   11.582532161
    0.846076795   10.119828888    6.300555733   11.594548077
    0.853255426   10.130387468    6.307418120   11.606870352
    0.860434057   10.141188227    6.314545488   11.619527930
    0.867612688   10.152252904    6.321970010   11.632555281
    0.874791319   10.163607544    6.329730378   11.645993789
    0.881969950   10.175283626    6.337873527   11.659893577
    0.889148581   10.187319572    6.346456918   11.674315930
    0.896327212   10.199762762    6.355551606   11.689336541
    0.903505843   10.212672275    6.365246407   11.705049925
    0.910684474   10.226122658    6.375653622   11.721575483
    0.917863105   10.240209158    6.386916998   11.739065936
    0.925041736   10.255055078    6.399222909   11.757719162
    0.932220367   10.270822152    6.412816126   11.777794905
    0.939398998   10.287725137    6.428022013   11.799638280
    0.946577629   10.306051802    6.445276910   11.823711953
    0.953756260   10.326188005    6.465166269   11.850636530
    0.960934891   10.348640089    6.488458707   11.881226628
    0.968113523   10.374016342    6.516077804   11.916461004
    0.975292154   10.402808618    6.548770036   11.957130867
    0.982470785   10.434335681    6.585497977   12.002138144
    0.989649416   10.462392963    6.616825186   12.041489486
    0.996828047   10.460879915    6.603060727   12.033149381
    1.004006678   10.372674608    6.457341527   11.885122876
    1.011185309   10.227501718    6.224866016   11.645279885
    1.018363940   10.165663491    6.118980133   11.539573474
    1.025542571   10.176466710    6.123421441   11.550781132
    1.032721202   10.207435502    6.158391424   11.594390049
    1.039899833   10.239541269    6.194952380   11.639753579
    1.047078464   10.268747723    6.226964247   11.680369842
    1.054257095   10.294869201    6.254142192   11.715938227
    1.061435726   10.318473527    6.277346998   11.747371497
    1.068614357   10.340152411    6.297475598   11.775620769
    1.075792988   10.360382465    6.315249711   11.801451670
    1.082971619   10.379524181    6.331214262   11.825442677
    1.090150250   10.397846688    6.345775005   11.848024968
    1.097328881   10.415551827    6.359235113   11.869521186
    1.104507513   10.432792752    6.371823414   11.890175362
    1.111686144   10.449687374    6.383714810   11.910174546
    1.118864775   10.466327915    6.395044755   11.929664170
    1.126043406   10.482787696    6.405919526   11.948758938
    1.133222037   10.499125997    6.416423555   11.967550620
    1.140400668   10.515391581    6.426624715   11.986113675
    1.147579299   10.531625287    6.436578178   12.004509377
    1.154757930   10.547861969    6.446329270   12.022788870
    1.161936561   10.564131975    6.455915600   12.040995478
    1.169115192   10.580462304    6.465368671   12.059166464
    1.176293823   10.596877525    6.474715121   12.077334413
    1.183472454   10.613400543    6.483977670   12.095528318
    1.190651085   10.630053256    6.493175870   12.113774474
    1.197829716   10.646857142    6.502326696   12.132097229
    1.205008347   10.663833824    6.511445016   12.150519628
    1.212186978   10.681005628    6.520543970   12.169064010
    1.219365609   10.698396180    6.529635284   12.187752571
    1.226544240   10.716031070    6.538729525   12.206607933
    1.233722871   10.733938627    6.547836322   12.225653753
    1.240901503   10.752150849    6.556964545   12.244915406
    1.248080134   10.770704572    6.566122477   12.264420785
    1.255258765   10.789642955    6.575317956   12.284201289
    1.262437396   10.809017416    6.584558515   12.304293057
    1.269616027   10.828890207    6.593851516   12.324738583
    1.276794658   10.849337885    6.603204291   12.345588854
    1.283973289   10.870456070    6.612624288   12.366906238
    1.291151920   10.892366038    6.622119240   12.388768464
    1.298330551   10.915223978    6.631697363   12.411274157
    1.305509182   10.939234023    6.641367601   12.434550594
    1.312687813   10.964666493    6.651139935   12.458764530
    1.319866444   10.991882576    6.661025795   12.484136833
    1.327045075   11.021364139    6.671038601   12.510960297
    1.334223706   11.053735560    6.681194490   12.539613412
    1.341402337   11.089716888    6.691513267   12.570536286
    1.348580968   11.129759341    6.702019473   12.604029490
    1.355759599   11.172366258    6.712742898   12.639317691
    1.362938230   11.207382385    6.723715516   12.670795962
    1.370116861   11.196252835    6.734957938   12.676977398
    1.377295492   11.076596916    6.746485225   12.623059781
    1.384474124   10.930336750    6.758442046   12.555099291
    1.391652755   10.893543106    6.770983897   12.549408675
    1.398831386   10.923360086    6.783886539   12.581549489
    1.406010017   10.967365713    6.795920429   12.619488776
    1.413188648   11.004926570    6.802747069   12.641974015
    1.420367279   11.026307508    6.798290909   12.629943897
    1.427545910   11.042950727    6.792708806   12.612538032
    1.434724541   11.069636692    6.798665376   12.626378919
    1.441903172   11.101248682    6.810986752   12.657001526
    1.449081803   11.132839824    6.824775846   12.690654552
    1.456260434   11.163186005    6.838593948   12.723414061
    1.463439065   11.192289026    6.852191706   12.754704107
    1.470617696   11.220393680    6.865602854   12.784716588
    1.477796327   11.247745998    6.878909499   12.813749843
    1.484974958   11.274548415    6.892189308   12.842064740
    1.492153589   11.300960369    6.905507256   12.869865903
    1.499332220   11.327107174    6.918917475   12.897309993
    1.506510851   11.353088581    6.932466707   12.924517247
    1.513689482   11.378985536    6.946197495   12.951581137
    1.520868114   11.404865238    6.960150864   12.978575583
    1.528046745   11.430784930    6.974368642   13.005560183
    1.535225376   11.456794774    6.988895653   13.032583990
    1.542404007   11.482940129    7.003781988   13.059688271
    1.549582638   11.509263440    7.019085609   13.086908557
    1.556761269   11.535805931    7.034875549   13.114276201
    1.563939900   11.562609236    7.051236053   13.141819618
    1.571118531   11.589717149    7.068272154   13.169565303
    1.578297162   11.617177652    7.086117349   13.197538740
    1.585475793   11.645045425    7.104944313   13.225765256
    1.592654424   11.673385120    7.124979900   13.254270917
    1.599833055   11.702275648    7.146525718   13.283083513
    1.607011686   11.731815510    7.169984295   13.312233667
    1.614190317   11.762127968    7.195884150   13.341755915
    1.621368948   11.793359737    7.224869393   13.371688878
    1.628547579   11.825646643    7.257509904   13.402070759
    1.635726210   11.858939295    7.293352695   13.432914994
    1.642904841   11.892273050    7.326963256   13.464106919
    1.650083472   11.921252950    7.334300189   13.495046638
    1.657262104   11.935089504    7.256655601   13.524228155
    1.664440735   11.936019658    7.105797184   13.552003191
    1.671619366   11.951992834    7.032639409   13.582387239
    1.678797997   11.984189283    7.043057234   13.615595586
    1.685976628   12.022020060    7.079071047   13.650179675
    1.693155259   12.061395147    7.117715229   13.685629260
    1.700333890   12.101576246    7.153939879   13.721929134
    1.707512521   12.142760201    7.187461917   13.759220504
    1.714691152   12.185386736    7.218990076   13.797705708
    1.721869783   12.229931016    7.249308512   13.837607865
    1.729048414   12.276623202    7.279004910   13.879055841
    1.736227045   12.324381693    7.308056766   13.921600722
    1.743405676   12.367456080    7.334572824   13.962683924
    1.750584307   12.394788348    7.354573543   13.997345334
    1.757762938   12.418817020    7.373020257   14.031374852
    1.764941569   12.467122500    7.400591923   14.077416176
    1.772120200   12.530740499    7.433744534   14.131005751
    1.779298831   12.582315984    7.460983306   14.177646314
    1.786477462   12.560368477    7.455401422   14.183681742
    1.793656093   12.404206871    7.391687818   14.122493872
    1.800834725   12.262985440    7.336512887   14.080346107
    1.808013356   12.256452916    7.339765034   14.108629884
    1.815191987   12.313716903    7.370177607   14.166706673
    1.822370618   12.383183566    7.405766811   14.223570656
    1.829549249   12.449721255    7.439858442   14.254088656
    1.836727880   12.510978285    7.471439181   14.253379169
    1.843906511   12.570481214    7.502812001   14.272365994
    1.851085142   12.629279899    7.532804822   14.322256562
    1.858263773   12.684640204    7.553053282   14.381146998
    1.865442404   12.733304488    7.552326847   14.437433569
    1.872621035   12.782041881    7.548956375   14.494329598
    1.879799666   12.839422978    7.566478510   14.558408343
    1.886978297   12.903140949    7.595706586   14.627962110
    1.894156928   12.969971247    7.627130328   14.699634993
    1.901335559   13.034523524    7.655488595   14.764923452
    1.908514190   13.080462058    7.675254392   14.803318668
    1.915692821   13.075310117    7.689466004   14.798351519
    1.922871452   13.007068406    7.706912686   14.754206446
    1.930050083   12.967062967    7.730967854   14.721634905
    1.937228715   12.983318538    7.760198727   14.699256567
    1.944407346   13.029449179    7.792201514   14.704322634
    1.951585977   13.097558103    7.826636190   14.763256366
    1.958764608   13.173997098    7.863039842   14.846169293
    1.965943239   13.251943585    7.901240679   14.932076366
    1.973121870   13.327859496    7.940291491   15.006050872
    1.980300501   13.393395365    7.975652796   15.039158620
    1.987479132   13.437773184    7.999229954   15.015634415
    1.994657763   13.477714393    8.018401913   14.995528118
    2.001836394   13.541646390    8.048317919   15.032965878
    2.009015025   13.606306955    8.059545896   15.099238724
    2.016193656   13.620456725    7.992469499   15.155207764
    2.023372287   13.576354192    7.884737991   15.196113620
    2.030550918   13.491493427    7.852703271   15.236178891
    2.037729549   13.404327185    7.878277261   15.281187669
    2.044908180   13.415269027    7.923504173   15.346480559
    2.052086811   13.489765823    7.972279729   15.423687436
    2.059265442   13.579290105    8.019098619   15.499860406
    2.066444073   13.668511175    8.062678025   15.565830716
    2.073622705   13.754676473    8.104359607   15.629562723
    2.080801336   13.836261044    8.145866627   15.701370753
    2.087979967   13.905269546    8.185526658   15.756513300
    2.095158598   13.944986736    8.219361161   15.749628222
    2.102337229   13.967486153    8.248519001   15.706863094
    2.109515860   14.012819580    8.282130863   15.718125764
    2.116694491   14.082795820    8.323895810   15.783306849
    2.123873122   14.162925343    8.370973988   15.868386979
    2.131051753   14.246284476    8.421554851   15.957408414
    2.138230384   14.331231636    8.475115616   16.046521342
    2.145409015   14.415927663    8.529103774   16.134204857
    2.152587646   14.491318221    8.570486042   16.214490611
    2.159766277   14.529401443    8.558681143   16.269151480
    2.166944908   14.513919709    8.465653417   16.287987734
    2.174123539   14.521349100    8.399847864   16.320027069
    2.181302170   14.586603544    8.418036544   16.391940280
    2.188480801   14.676810882    8.471859974   16.482567524
    2.195659432   14.774026372    8.532935413   16.579223688
    2.202838063   14.874317757    8.594146962   16.679283359
    2.210016694   14.977652787    8.654841825   16.783251981
    2.217195326   15.083197660    8.715819962   16.891942673
    2.224373957   15.182716980    8.777792266   17.003797131
    2.231552588   15.246576633    8.839830031   17.107751680
    2.238731219   15.245176700    8.895307772   17.171234703
    2.245909850   15.239427593    8.929063150   17.145621829
    2.253088481   15.266295016    8.945245374   17.070897318
    2.260267112   15.284925914    8.962881864   17.060520916
    2.267445743   15.293236057    8.983877852   17.101196885
    2.274624374   15.362319258    9.035020414   17.198722599
    2.281803005   15.474276003    9.102693154   17.334450703
    2.288981636   15.580897675    9.148577465   17.483187320
    2.296160267   15.654005820    9.169884500   17.637771024
    2.303338898   15.711541191    9.223192854   17.797120881
    2.310517529   15.794134462    9.303002914   17.941224347
    2.317696160   15.877332508    9.345452941   17.994694455
    2.324874791   15.930202276    9.275968017   17.859218075
    2.332053422   15.976835106    9.125131994   17.659804220
    2.339232053   16.056763031    9.061820440   17.618580952
    2.346410684   16.151176314    9.106310930   17.688348273
    2.353589316   16.210231183    9.168157535   17.728293449
    2.360767947   16.270898363    9.240806364   17.774664351
    2.367946578   16.383268384    9.340578789   17.900826119
    2.375125209   16.511329431    9.430248237   18.063052454
    2.382303840   16.599649574    9.439890989   18.207350836
    2.389482471   16.647513401    9.359010938   18.310542272
    2.396661102   16.717172017    9.304084699   18.400858145
    2.403839733   16.770778247    9.273303354   18.473574760
    2.411018364   16.807446248    9.272092090   18.546238115
    2.418196995   16.903507150    9.342341489   18.674579985
    2.425375626   17.038387161    9.446734508   18.830942503
    2.432554257   17.187449095    9.557407609   19.002729552
    2.439732888   17.345808993    9.665853391   19.190934450
    2.446911519   17.489944582    9.764377410   19.355420937
    2.454090150   17.589987070    9.841356234   19.433261650
    2.461268781   17.680455293    9.906349453   19.449297975
    2.468447412   17.810317259    9.971326593   19.465548877
    2.475626043   17.969371886   10.036611133   19.538053331
    2.482804674   18.137186835   10.093365875   19.644978567
    2.489983306   18.287790259   10.129027583   19.707055634
    2.497161937   18.409300364   10.112797054   19.627268676
    2.504340568   18.535251989   10.079826684   19.494947264
    2.511519199   18.724446983   10.132524079   19.553585640
    2.518697830   18.948747147   10.243657284   19.714491900
    2.525876461   19.148077681   10.370190562   19.895958519
    2.533055092   19.193060073   10.491082996   20.026327605
    2.540233723   19.007213501   10.596018897   20.036955742
