# energy grid [eV]     ieps_x  ieps_y  ieps_z
#
    0.200000000    5.438279178    3.277376689    6.613080785
    0.207178631    5.437181329    3.276834983    6.611806066
    0.214357262    5.436045487    3.276274616    6.610487205
    0.221535893    5.434871723    3.275695630    6.609124285
    0.228714524    5.433660113    3.275098073    6.607717390
    0.235893155    5.432410734    3.274481989    6.606266605
    0.243071786    5.431123666    3.273847427    6.604772020
    0.250250417    5.429798990    3.273194435    6.603233726
    0.257429048    5.428436789    3.272523062    6.601651817
    0.264607679    5.427037150    3.271833360    6.600026387
    0.271786311    5.425600160    3.271125381    6.598357535
    0.278964942    5.424125909    3.270399177    6.596645362
    0.286143573    5.422614489    3.269654803    6.594889968
    0.293322204    5.421065994    3.268892314    6.593091460
    0.300500835    5.419480520    3.268111765    6.591249944
    0.307679466    5.417858164    3.267313213    6.589365528
    0.314858097    5.416199026    3.266496717    6.587438323
    0.322036728    5.414503208    3.265662335    6.585468441
    0.329215359    5.412770812    3.264810127    6.583455999
    0.336393990    5.411001945    3.263940152    6.581401111
    0.343572621    5.409196714    3.263052474    6.579303898
    0.350751252    5.407355226    3.262147153    6.577164479
    0.357929883    5.405477594    3.261224253    6.574982977
    0.365108514    5.403563929    3.260283837    6.572759517
    0.372287145    5.401614344    3.259325971    6.570494223
    0.379465776    5.399628957    3.258350718    6.568187225
    0.386644407    5.397607884    3.257358145    6.565838651
    0.393823038    5.395551245    3.256348319    6.563448633
    0.401001669    5.393459159    3.255321306    6.561017303
    0.408180301    5.391331750    3.254277175    6.558544798
    0.415358932    5.389169140    3.253215995    6.556031252
    0.422537563    5.386971456    3.252137833    6.553476803
    0.429716194    5.384738824    3.251042761    6.550881591
    0.436894825    5.382471372    3.249930848    6.548245758
    0.444073456    5.380169230    3.248802165    6.545569445
    0.451252087    5.377832529    3.247656784    6.542852796
    0.458430718    5.375461402    3.246494777    6.540095957
    0.465609349    5.373055983    3.245316215    6.537299075
    0.472787980    5.370616407    3.244121172    6.534462298
    0.479966611    5.368142810    3.242909721    6.531585776
    0.487145242    5.365635332    3.241681937    6.528669660
    0.494323873    5.363094110    3.240437892    6.525714102
    0.501502504    5.360519287    3.239177663    6.522719256
    0.508681135    5.357911003    3.237901324    6.519685277
    0.515859766    5.355269401    3.236608951    6.516612321
    0.523038397    5.352594627    3.235300620    6.513500547
    0.530217028    5.349886824    3.233976407    6.510350112
    0.537395659    5.347146141    3.232636388    6.507161177
    0.544574290    5.344372725    3.231280642    6.503933903
    0.551752922    5.341566725    3.229909244    6.500668452
    0.558931553    5.338728290    3.228522274    6.497364989
    0.566110184    5.335857572    3.227119809    6.494023676
    0.573288815    5.332954724    3.225701927    6.490644681
    0.580467446    5.330019898    3.224268708    6.487228170
    0.587646077    5.327053248    3.222820230    6.483774311
    0.594824708    5.324054931    3.221356572    6.480283273
    0.602003339    5.321025101    3.219877814    6.476755226
    0.609181970    5.317963917    3.218384037    6.473190340
    0.616360601    5.314871537    3.216875319    6.469588789
    0.623539232    5.311748119    3.215351742    6.465950744
    0.630717863    5.308593824    3.213813385    6.462276380
    0.637896494    5.305408813    3.212260331    6.458565871
    0.645075125    5.302193247    3.210692659    6.454819394
    0.652253756    5.298947290    3.209110452    6.451037125
    0.659432387    5.295671104    3.207513790    6.447219241
    0.666611018    5.292364854    3.205902756    6.443365921
    0.673789649    5.289028705    3.204277431    6.439477345
    0.680968280    5.285662824    3.202637898    6.435553692
    0.688146912    5.282267376    3.200984238    6.431595143
    0.695325543    5.278842530    3.199316535    6.427601881
    0.702504174    5.275388452    3.197634871    6.423574087
    0.709682805    5.271905314    3.195939329    6.419511945
    0.716861436    5.268393283    3.194229992    6.415415639
    0.724040067    5.264852530    3.192506944    6.411285354
    0.731218698    5.261283227    3.190770266    6.407121275
    0.738397329    5.257685545    3.189020044    6.402923589
    0.745575960    5.254059655    3.187256360    6.398692483
    0.752754591    5.250405732    3.185479299    6.394428144
    0.759933222    5.246723948    3.183688945    6.390130760
    0.767111853    5.243014477    3.181885381    6.385800521
    0.774290484    5.239277495    3.180068691    6.381437616
    0.781469115    5.235513176    3.178238961    6.377042235
    0.788647746    5.231721696    3.176396274    6.372614569
    0.795826377    5.227903231    3.174540715    6.368154810
    0.803005008    5.224057958    3.172672369    6.363663149
    0.810183639    5.220186055    3.170791320    6.359139779
    0.817362270    5.216287698    3.168897654    6.354584893
    0.824540902    5.212363067    3.166991454    6.349998685
    0.831719533    5.208412339    3.165072807    6.345381349
    0.838898164    5.204435694    3.163141798    6.340733079
    0.846076795    5.200433312    3.161198511    6.336054071
    0.853255426    5.196405371    3.159243032    6.331344520
    0.860434057    5.192352053    3.157275446    6.326604623
    0.867612688    5.188273538    3.155295839    6.321834575
    0.874791319    5.184170007    3.153304296    6.317034574
    0.881969950    5.180041640    3.151300902    6.312204818
    0.889148581    5.175888621    3.149285744    6.307345503
    0.896327212    5.171711130    3.147258907    6.302456828
    0.903505843    5.167509350    3.145220477    6.297538992
    0.910684474    5.163283463    3.143170539    6.292592194
    0.917863105    5.159033653    3.141109179    6.287616633
    0.925041736    5.154760101    3.139036483    6.282612508
    0.932220367    5.150462992    3.136952536    6.277580019
    0.939398998    5.146142509    3.134857426    6.272519367
    0.946577629    5.141798834    3.132751236    6.267430752
    0.953756260    5.137432153    3.130634054    6.262314374
    0.960934891    5.133042649    3.128505966    6.257170436
    0.968113523    5.128630507    3.126367056    6.251999138
    0.975292154    5.124195910    3.124217411    6.246800682
    0.982470785    5.119739042    3.122057118    6.241575269
    0.989649416    5.115260090    3.119886261    6.236323102
    0.996828047    5.110759237    3.117704927    6.231044382
    1.004006678    5.106236667    3.115513201    6.225739312
    1.011185309    5.101692567    3.113311170    6.220408095
    1.018363940    5.097127120    3.111098919    6.215050934
    1.025542571    5.092540512    3.108876533    6.209668030
    1.032721202    5.087932927    3.106644100    6.204259587
    1.039899833    5.083304550    3.104401704    6.198825809
    1.047078464    5.078655568    3.102149431    6.193366897
    1.054257095    5.073986163    3.099887367    6.187883057
    1.061435726    5.069296522    3.097615597    6.182374490
    1.068614357    5.064586830    3.095334207    6.176841400
    1.075792988    5.059857270    3.093043282    6.171283991
    1.082971619    5.055108029    3.090742907    6.165702466
    1.090150250    5.050339291    3.088433169    6.160097029
    1.097328881    5.045551240    3.086114152    6.154467882
    1.104507513    5.040744061    3.083785941    6.148815231
    1.111686144    5.035917938    3.081448621    6.143139277
    1.118864775    5.031073057    3.079102278    6.137440225
    1.126043406    5.026209600    3.076746996    6.131718279
    1.133222037    5.021327753    3.074382861    6.125973640
    1.140400668    5.016427698    3.072009956    6.120206513
    1.147579299    5.011509620    3.069628367    6.114417101
    1.154757930    5.006573703    3.067238177    6.108605607
    1.161936561    5.001620129    3.064839472    6.102772234
    1.169115192    4.996649082    3.062432336    6.096917185
    1.176293823    4.991660745    3.060016852    6.091040662
    1.183472454    4.986655300    3.057593105    6.085142868
    1.190651085    4.981632930    3.055161179    6.079224007
    1.197829716    4.976593816    3.052721157    6.073284279
    1.205008347    4.971538142    3.050273123    6.067323887
    1.212186978    4.966466089    3.047817161    6.061343033
    1.219365609    4.961377837    3.045353353    6.055341919
    1.226544240    4.956273568    3.042881784    6.049320747
    1.233722871    4.951153464    3.040402535    6.043279716
    1.240901503    4.946017703    3.037915691    6.037219030
    1.248080134    4.940866467    3.035421333    6.031138888
    1.255258765    4.935699935    3.032919545    6.025039490
    1.262437396    4.930518286    3.030410408    6.018921038
    1.269616027    4.925321700    3.027894005    6.012783731
    1.276794658    4.920110356    3.025370418    6.006627769
    1.283973289    4.914884431    3.022839728    6.000453351
    1.291151920    4.909644103    3.020302018    5.994260676
    1.298330551    4.904389551    3.017757368    5.988049943
    1.305509182    4.899120950    3.015205861    5.981821350
    1.312687813    4.893838478    3.012647576    5.975575096
    1.319866444    4.888542312    3.010082596    5.969311379
    1.327045075    4.883232626    3.007511001    5.963030394
    1.334223706    4.877909597    3.004932870    5.956732340
    1.341402337    4.872573398    3.002348286    5.950417413
    1.348580968    4.867224205    2.999757326    5.944085809
    1.355759599    4.861862192    2.997160072    5.937737723
    1.362938230    4.856487531    2.994556603    5.931373352
    1.370116861    4.851100397    2.991946999    5.924992890
    1.377295492    4.845700961    2.989331337    5.918596531
    1.384474124    4.840289395    2.986709699    5.912184470
    1.391652755    4.834865872    2.984082161    5.905756900
    1.398831386    4.829430561    2.981448803    5.899314014
    1.406010017    4.823983633    2.978809702    5.892856005
    1.413188648    4.818525258    2.976164938    5.886383064
    1.420367279    4.813055606    2.973514587    5.879895384
    1.427545910    4.807574844    2.970858726    5.873393155
    1.434724541    4.802083142    2.968197434    5.866876568
    1.441903172    4.796580667    2.965530788    5.860345814
    1.449081803    4.791067586    2.962858862    5.853801081
    1.456260434    4.785544065    2.960181736    5.847242559
    1.463439065    4.780010270    2.957499483    5.840670437
    1.470617696    4.774466366    2.954812181    5.834084901
    1.477796327    4.768912519    2.952119905    5.827486140
    1.484974958    4.763348891    2.949422731    5.820874340
    1.492153589    4.757775647    2.946720733    5.814249687
    1.499332220    4.752192949    2.944013986    5.807612368
    1.506510851    4.746600960    2.941302565    5.800962567
    1.513689482    4.740999840    2.938586544    5.794300468
    1.520868114    4.735389751    2.935865997    5.787626255
    1.528046745    4.729770853    2.933140997    5.780940112
    1.535225376    4.724143306    2.930411619    5.774242221
    1.542404007    4.718507268    2.927677935    5.767532763
    1.549582638    4.712862897    2.924940018    5.760811921
    1.556761269    4.707210351    2.922197940    5.754079875
    1.563939900    4.701549788    2.919451774    5.747336805
    1.571118531    4.695881362    2.916701592    5.740582890
    1.578297162    4.690205230    2.913947464    5.733818309
    1.585475793    4.684521547    2.911189464    5.727043240
    1.592654424    4.678830466    2.908427660    5.720257860
    1.599833055    4.673132140    2.905662125    5.713462346
    1.607011686    4.667426724    2.902892928    5.706656874
    1.614190317    4.661714367    2.900120139    5.699841619
    1.621368948    4.655995223    2.897343829    5.693016756
    1.628547579    4.650269441    2.894564067    5.686182458
    1.635726210    4.644537171    2.891780921    5.679338899
    1.642904841    4.638798562    2.888994460    5.672486252
    1.650083472    4.633053762    2.886204754    5.665624687
    1.657262104    4.627302920    2.883411869    5.658754376
    1.664440735    4.621546181    2.880615875    5.651875489
    1.671619366    4.615783693    2.877816837    5.644988196
    1.678797997    4.610015600    2.875014824    5.638092665
    1.685976628    4.604242047    2.872209903    5.631189065
    1.693155259    4.598463178    2.869402139    5.624277563
    1.700333890    4.592679135    2.866591599    5.617358325
    1.707512521    4.586890062    2.863778348    5.610431517
    1.714691152    4.581096100    2.860962453    5.603497304
    1.721869783    4.575297390    2.858143978    5.596555850
    1.729048414    4.569494071    2.855322989    5.589607319
    1.736227045    4.563686283    2.852499548    5.582651873
    1.743405676    4.557874164    2.849673722    5.575689675
    1.750584307    4.552057853    2.846845573    5.568720885
    1.757762938    4.546237486    2.844015165    5.561745664
    1.764941569    4.540413198    2.841182561    5.554764172
    1.772120200    4.534585127    2.838347823    5.547776566
    1.779298831    4.528753405    2.835511015    5.540783006
    1.786477462    4.522918168    2.832672198    5.533783648
    1.793656093    4.517079547    2.829831434    5.526778648
    1.800834725    4.511237676    2.826988784    5.519768163
    1.808013356    4.505392684    2.824144309    5.512752346
    1.815191987    4.499544704    2.821298070    5.505731352
    1.822370618    4.493693865    2.818450128    5.498705334
    1.829549249    4.487840296    2.815600542    5.491674444
    1.836727880    4.481984125    2.812749371    5.484638834
    1.843906511    4.476125480    2.809896676    5.477598654
    1.851085142    4.470264487    2.807042515    5.470554055
    1.858263773    4.464401272    2.804186947    5.463505184
    1.865442404    4.458535960    2.801330029    5.456452191
    1.872621035    4.452668675    2.798471820    5.449395222
    1.879799666    4.446799540    2.795612377    5.442334425
    1.886978297    4.440928679    2.792751757    5.435269944
    1.894156928    4.435056213    2.789890017    5.428201925
    1.901335559    4.429182263    2.787027214    5.421130511
    1.908514190    4.423306949    2.784163404    5.414055847
    1.915692821    4.417430391    2.781298642    5.406978073
    1.922871452    4.411552706    2.778432983    5.399897332
    1.930050083    4.405674014    2.775566484    5.392813764
    1.937228715    4.399794430    2.772699197    5.385727510
    1.944407346    4.393914071    2.769831179    5.378638707
    1.951585977    4.388033052    2.766962482    5.371547494
    1.958764608    4.382151489    2.764093160    5.364454009
    1.965943239    4.376269493    2.761223267    5.357358387
    1.973121870    4.370387179    2.758352855    5.350260764
    1.980300501    4.364504658    2.755481977    5.343161276
    1.987479132    4.358622042    2.752610686    5.336060055
    1.994657763    4.352739442    2.749739032    5.328957235
    2.001836394    4.346856966    2.746867067    5.321852947
    2.009015025    4.340974724    2.743994843    5.314747325
    2.016193656    4.335092824    2.741122410    5.307640496
    2.023372287    4.329211373    2.738249819    5.300532592
    2.030550918    4.323330477    2.735377120    5.293423741
    2.037729549    4.317450243    2.732504362    5.286314071
    2.044908180    4.311570774    2.729631594    5.279203708
    2.052086811    4.305692176    2.726758867    5.272092780
    2.059265442    4.299814551    2.723886227    5.264981411
    2.066444073    4.293938002    2.721013725    5.257869726
    2.073622705    4.288062631    2.718141407    5.250757849
    2.080801336    4.282188538    2.715269321    5.243645901
    2.087979967    4.276315823    2.712397515    5.236534006
    2.095158598    4.270444586    2.709526035    5.229422284
    2.102337229    4.264574925    2.706654928    5.222310856
    2.109515860    4.258706938    2.703784239    5.215199841
    2.116694491    4.252840722    2.700914016    5.208089356
    2.123873122    4.246976372    2.698044303    5.200979521
    2.131051753    4.241113985    2.695175146    5.193870452
    2.138230384    4.235253655    2.692306589    5.186762265
    2.145409015    4.229395475    2.689438677    5.179655074
    2.152587646    4.223539539    2.686571453    5.172548995
    2.159766277    4.217685939    2.683704962    5.165444141
    2.166944908    4.211834766    2.680839248    5.158340624
    2.174123539    4.205986111    2.677974352    5.151238556
    2.181302170    4.200140063    2.675110319    5.144138048
    2.188480801    4.194296713    2.672247189    5.137039211
    2.195659432    4.188456147    2.669385006    5.129942153
    2.202838063    4.182618455    2.666523812    5.122846982
    2.210016694    4.176783722    2.663663646    5.115753807
    2.217195326    4.170952035    2.660804551    5.108662734
    2.224373957    4.165123479    2.657946568    5.101573870
    2.231552588    4.159298139    2.655089736    5.094487318
    2.238731219    4.153476098    2.652234095    5.087403184
    2.245909850    4.147657439    2.649379686    5.080321571
    2.253088481    4.141842245    2.646526548    5.073242581
    2.260267112    4.136030597    2.643674719    5.066166317
    2.267445743    4.130222576    2.640824239    5.059092879
    2.274624374    4.124418262    2.637975145    5.052022367
    2.281803005    4.118617735    2.635127477    5.044954882
    2.288981636    4.112821073    2.632281271    5.037890520
    2.296160267    4.107028353    2.629436565    5.030829381
    2.303338898    4.101239653    2.626593396    5.023771560
    2.310517529    4.095455050    2.623751802    5.016717155
    2.317696160    4.089674618    2.620911817    5.009666260
    2.324874791    4.083898434    2.618073479    5.002618970
    2.332053422    4.078126570    2.615236822    4.995575378
    2.339232053    4.072359101    2.612401884    4.988535578
    2.346410684    4.066596099    2.609568698    4.981499662
    2.353589316    4.060837637    2.606737300    4.974467720
    2.360767947    4.055083785    2.603907724    4.967439844
    2.367946578    4.049334614    2.601080004    4.960416123
    2.375125209    4.043590195    2.598254174    4.953396645
    2.382303840    4.037850597    2.595430268    4.946381500
    2.389482471    4.032115887    2.592608320    4.939370775
    2.396661102    4.026386134    2.589788361    4.932364555
    2.403839733    4.020661406    2.586970424    4.925362928
    2.411018364    4.014941768    2.584154543    4.918365977
    2.418196995    4.009227286    2.581340748    4.911373788
    2.425375626    4.003518025    2.578529072    4.904386444
    2.432554257    3.997814051    2.575719546    4.897404027
    2.439732888    3.992115425    2.572912202    4.890426619
    2.446911519    3.986422213    2.570107069    4.883454303
    2.454090150    3.980734475    2.567304179    4.876487157
    2.461268781    3.975052274    2.564503562    4.869525262
    2.468447412    3.969375670    2.561705247    4.862568697
    2.475626043    3.963704725    2.558909264    4.855617540
    2.482804674    3.958039498    2.556115643    4.848671869
    2.489983306    3.952380047    2.553324413    4.841731760
    2.497161937    3.946726432    2.550535602    4.834797289
    2.504340568    3.941078710    2.547749239    4.827868531
    2.511519199    3.935436938    2.544965352    4.820945561
    2.518697830    3.929801173    2.542183968    4.814028453
    2.525876461    3.924171471    2.539405116    4.807117280
    2.533055092    3.918547887    2.536628823    4.800212114
    2.540233723    3.912930475    2.533855116    4.793313027
