# energy grid [eV]     epsr_x  epsr_y  epsr_z
#
    0.200000000   14.253698229   14.373240524   13.440207341
    0.207178631   14.256893915   14.376336268   13.443126118
    0.214357262   14.260204024   14.379542786   13.446149359
    0.221535893   14.263628738   14.382860248   13.449277225
    0.228714524   14.267168246   14.386288828   13.452509884
    0.235893155   14.270822744   14.389828710   13.455847511
    0.243071786   14.274592434   14.393480079   13.459290284
    0.250250417   14.278477524   14.397243130   13.462838389
    0.257429048   14.282478231   14.401118064   13.466492016
    0.264607679   14.286594776   14.405105085   13.470251364
    0.271786311   14.290827387   14.409204405   13.474116634
    0.278964942   14.295176301   14.413416245   13.478088036
    0.286143573   14.299641759   14.417740827   13.482165785
    0.293322204   14.304224010   14.422178383   13.486350102
    0.300500835   14.308923310   14.426729150   13.490641212
    0.307679466   14.313739922   14.431393371   13.495039350
    0.314858097   14.318674114   14.436171297   13.499544755
    0.322036728   14.323726164   14.441063184   13.504157670
    0.329215359   14.328896355   14.446069294   13.508878349
    0.336393990   14.334184977   14.451189897   13.513707049
    0.343572621   14.339592327   14.456425268   13.518644033
    0.350751252   14.345118711   14.461775690   13.523689571
    0.357929883   14.350764440   14.467241452   13.528843941
    0.365108514   14.356529832   14.472822849   13.534107424
    0.372287145   14.362415215   14.478520184   13.539480310
    0.379465776   14.368420922   14.484333765   13.544962895
    0.386644407   14.374547293   14.490263909   13.550555481
    0.393823038   14.380794677   14.496310938   13.556258377
    0.401001669   14.387163429   14.502475182   13.562071897
    0.408180301   14.393653913   14.508756976   13.567996365
    0.415358932   14.400266500   14.515156664   13.574032108
    0.422537563   14.407001567   14.521674598   13.580179462
    0.429716194   14.413859502   14.528311133   13.586438769
    0.436894825   14.420840698   14.535066635   13.592810378
    0.444073456   14.427945556   14.541941476   13.599294646
    0.451252087   14.435174486   14.548936035   13.605891934
    0.458430718   14.442527906   14.556050697   13.612602612
    0.465609349   14.450006242   14.563285857   13.619427058
    0.472787980   14.457609926   14.570641916   13.626365656
    0.479966611   14.465339401   14.578119282   13.633418796
    0.487145242   14.473195116   14.585718372   13.640586877
    0.494323873   14.481177529   14.593439608   13.647870305
    0.501502504   14.489287108   14.601283424   13.655269493
    0.508681135   14.497524327   14.609250256   13.662784861
    0.515859766   14.505889669   14.617340554   13.670416838
    0.523038397   14.514383627   14.625554771   13.678165858
    0.530217028   14.523006702   14.633893370   13.686032365
    0.537395659   14.531759402   14.642356821   13.694016810
    0.544574290   14.540642247   14.650945604   13.702119651
    0.551752922   14.549655763   14.659660206   13.710341354
    0.558931553   14.558800487   14.668501122   13.718682395
    0.566110184   14.568076964   14.677468855   13.727143255
    0.573288815   14.577485748   14.686563917   13.735724425
    0.580467446   14.587027404   14.695786829   13.744426404
    0.587646077   14.596702505   14.705138120   13.753249697
    0.594824708   14.606511632   14.714618326   13.762194821
    0.602003339   14.616455379   14.724227996   13.771262299
    0.609181970   14.626534347   14.733967683   13.780452661
    0.616360601   14.636749148   14.743837951   13.789766450
    0.623539232   14.647100403   14.753839375   13.799204215
    0.630717863   14.657588743   14.763972535   13.808766512
    0.637896494   14.668214811   14.774238024   13.818453909
    0.645075125   14.678979258   14.784636441   13.828266982
    0.652253756   14.689882746   14.795168398   13.838206315
    0.659432387   14.700925947   14.805834512   13.848272501
    0.666611018   14.712109544   14.816635414   13.858466145
    0.673789649   14.723434232   14.827571742   13.868787858
    0.680968280   14.734900714   14.838644145   13.879238263
    0.688146912   14.746509705   14.849853281   13.889817989
    0.695325543   14.758261933   14.861199818   13.900527679
    0.702504174   14.770158135   14.872684435   13.911367983
    0.709682805   14.782199059   14.884307822   13.922339562
    0.716861436   14.794385465   14.896070677   13.933443086
    0.724040067   14.806718126   14.907973709   13.944679236
    0.731218698   14.819197825   14.920017640   13.956048702
    0.738397329   14.831825358   14.932203199   13.967552187
    0.745575960   14.844601531   14.944531130   13.979190401
    0.752754591   14.857527164   14.957002185   13.990964066
    0.759933222   14.870603089   14.969617128   14.002873917
    0.767111853   14.883830150   14.982376733   14.014920696
    0.774290484   14.897209204   14.995281789   14.027105159
    0.781469115   14.910741120   15.008333092   14.039428070
    0.788647746   14.924426782   15.021531454   14.051890209
    0.795826377   14.938267083   15.034877694   14.064492362
    0.803005008   14.952262935   15.048372648   14.077235330
    0.810183639   14.966415258   15.062017161   14.090119925
    0.817362270   14.980724988   15.075812090   14.103146970
    0.824540902   14.995193076   15.089758307   14.116317302
    0.831719533   15.009820485   15.103856695   14.129631768
    0.838898164   15.024608192   15.118108150   14.143091227
    0.846076795   15.039557190   15.132513580   14.156696554
    0.853255426   15.054668487   15.147073909   14.170448632
    0.860434057   15.069943102   15.161790070   14.184348360
    0.867612688   15.085382073   15.176663013   14.198396649
    0.874791319   15.100986451   15.191693695   14.212594422
    0.881969950   15.116757303   15.206883070   14.226942610
    0.889148581   15.132695708   15.222232082   14.241442154
    0.896327212   15.148802766   15.237741758   14.256094024
    0.903505843   15.165079597   15.253413230   14.270899226
    0.910684474   15.181527331   15.269247522   14.285858750
    0.917863105   15.198147113   15.285245641   14.300973594
    0.925041736   15.214940106   15.301408634   14.316244774
    0.932220367   15.231907492   15.317737576   14.331673326
    0.939398998   15.249050469   15.334233559   14.347260301
    0.946577629   15.266370252   15.350897694   14.363006765
    0.953756260   15.283868075   15.367731105   14.378913799
    0.960934891   15.301545188   15.384734932   14.394982500
    0.968113523   15.319402855   15.401910319   14.411213977
    0.975292154   15.337442349   15.419258408   14.427609353
    0.982470785   15.355664970   15.436780379   14.444169769
    0.989649416   15.374072089   15.454477527   14.460896407
    0.996828047   15.392665061   15.472351102   14.477790450
    1.004006678   15.411445235   15.490402308   14.494853086
    1.011185309   15.430413987   15.508632387   14.512085522
    1.018363940   15.449572720   15.527042614   14.529488987
    1.025542571   15.468922861   15.545634285   14.547064729
    1.032721202   15.488465857   15.564408714   14.564814013
    1.039899833   15.508203176   15.583367235   14.582738123
    1.047078464   15.528136309   15.602511203   14.600838362
    1.054257095   15.548266767   15.621841989   14.619116051
    1.061435726   15.568596086   15.641360986   14.637572530
    1.068614357   15.589125823   15.661069606   14.656209161
    1.075792988   15.609857557   15.680969283   14.675027322
    1.082971619   15.630792893   15.701061469   14.694028414
    1.090150250   15.651933458   15.721347639   14.713213857
    1.097328881   15.673280901   15.741829289   14.732585090
    1.104507513   15.694836894   15.762507936   14.752143569
    1.111686144   15.716603129   15.783385119   14.771890769
    1.118864775   15.738581346   15.804462401   14.791828208
    1.126043406   15.760773314   15.825741368   14.811957433
    1.133222037   15.783180807   15.847223627   14.832279988
    1.140400668   15.805805623   15.868910810   14.852797438
    1.147579299   15.828649594   15.890804571   14.873511377
    1.154757930   15.851714578   15.912906589   14.894423424
    1.161936561   15.875002466   15.935218565   14.915535222
    1.169115192   15.898515173   15.957742231   14.936848442
    1.176293823   15.922254649   15.980479350   14.958364775
    1.183472454   15.946222869   16.003431702   14.980085939
    1.190651085   15.970421839   16.026601091   15.002013681
    1.197829716   15.994853596   16.049989351   15.024149769
    1.205008347   16.019520209   16.073598344   15.046496000
    1.212186978   16.044423779   16.097429961   15.069054200
    1.219365609   16.069566438   16.121486118   15.091826219
    1.226544240   16.094950351   16.145768762   15.114813937
    1.233722871   16.120577719   16.170279871   15.138019262
    1.240901503   16.146450774   16.195021449   15.161444132
    1.248080134   16.172571786   16.219995530   15.185090514
    1.255258765   16.198943058   16.245204182   15.208960404
    1.262437396   16.225566931   16.270649509   15.233055831
    1.269616027   16.252445781   16.296333642   15.257378853
    1.276794658   16.279582023   16.322258743   15.281931562
    1.283973289   16.306978111   16.348427006   15.306716080
    1.291151920   16.334636535   16.374840663   15.331734564
    1.298330551   16.362559828   16.401501978   15.356989204
    1.305509182   16.390750561   16.428413251   15.382482222
    1.312687813   16.419211347   16.455576817   15.408215879
    1.319866444   16.447944838   16.482995049   15.434192464
    1.327045075   16.476953717   16.510670356   15.460414293
    1.334223706   16.506240704   16.538605184   15.486883713
    1.341402337   16.535808615   16.566802014   15.513603155
    1.348580968   16.565660323   16.595263364   15.540575105
    1.355759599   16.595798693   16.623991799   15.567802030
    1.362938230   16.626226642   16.652989944   15.595286446
    1.370116861   16.656947136   16.682260440   15.623030911
    1.377295492   16.687963191   16.711805947   15.651038018
    1.384474124   16.719277873   16.741629167   15.679310404
    1.391652755   16.750894310   16.771732926   15.707850766
    1.398831386   16.782815693   16.802120098   15.736661852
    1.406010017   16.815045249   16.832793523   15.765746437
    1.413188648   16.847586260   16.863756095   15.795107338
    1.420367279   16.880442062   16.895010767   15.824747425
    1.427545910   16.913616051   16.926560547   15.854669613
    1.434724541   16.947111683   16.958408493   15.884876869
    1.441903172   16.980932472   16.990557717   15.915372208
    1.449081803   17.015081992   17.023011377   15.946158697
    1.456260434   17.049563879   17.055772688   15.977239454
    1.463439065   17.084381832   17.088844916   16.008617649
    1.470617696   17.119539615   17.122231384   16.040296505
    1.477796327   17.155041059   17.155935469   16.072279303
    1.484974958   17.190890058   17.189960606   16.104569377
    1.492153589   17.227090580   17.224310289   16.137170120
    1.499332220   17.263646661   17.258988070   16.170084983
    1.506510851   17.300562407   17.293997562   16.203317476
    1.513689482   17.337842001   17.329342443   16.236871172
    1.520868114   17.375489700   17.365026450   16.270749705
    1.528046745   17.413509836   17.401053389   16.304956772
    1.535225376   17.451906821   17.437427129   16.339496139
    1.542404007   17.490685150   17.474151610   16.374371633
    1.549582638   17.529849395   17.511230839   16.409587154
    1.556761269   17.569404217   17.548668894   16.445146670
    1.563939900   17.609354361   17.586469926   16.481054219
    1.571118531   17.649704660   17.624638160   16.517313914
    1.578297162   17.690460037   17.663177897   16.553929942
    1.585475793   17.731625510   17.702093515   16.590906566
    1.592654424   17.773206189   17.741389468   16.628248126
    1.599833055   17.815207281   17.781070285   16.665959044
    1.607011686   17.857634092   17.821140578   16.704043823
    1.614190317   17.900492025   17.861605070   16.742507048
    1.621368948   17.943786584   17.902468570   16.781353393
    1.628547579   17.987523396   17.943735952   16.820587617
    1.635726210   18.031708215   17.985412193   16.860214570
    1.642904841   18.076346880   18.027502354   16.900239195
    1.650083472   18.121445336   18.070011588   16.940666522
    1.657262104   18.167009653   18.112945148   16.981501678
    1.664440735   18.213046026   18.156308398   17.022749901
    1.671619366   18.259560776   18.200106808   17.064416539
    1.678797997   18.306560346   18.244345939   17.106507015
    1.685976628   18.354051299   18.289031447   17.149026827
    1.693155259   18.402040334   18.334169100   17.191981582
    1.700333890   18.450534325   18.379764826   17.235377133
    1.707512521   18.499540287   18.425824673   17.279219456
    1.714691152   18.549065341   18.472354756   17.323514500
    1.721869783   18.599116760   18.519361317   17.368268347
    1.729048414   18.649701974   18.566850731   17.413487227
    1.736227045   18.700828574   18.614829501   17.459177509
    1.743405676   18.752504307   18.663304260   17.505345688
    1.750584307   18.804737076   18.712281755   17.551998389
    1.757762938   18.857534959   18.761768883   17.599142377
    1.764941569   18.910906265   18.811772767   17.646784595
    1.772120200   18.964859457   18.862300641   17.694932115
    1.779298831   19.019403146   18.913359825   17.743592133
    1.786477462   19.074546137   18.964957808   17.792772002
    1.793656093   19.130297436   19.017102249   17.842479239
    1.800834725   19.186666240   19.069800973   17.892721519
    1.808013356   19.243661945   19.123061970   17.943506683
    1.815191987   19.301294238   19.176893410   17.994842764
    1.822370618   19.359573012   19.231303641   18.046737965
    1.829549249   19.418508281   19.286301172   18.099200641
    1.836727880   19.478110281   19.341894699   18.152239324
    1.843906511   19.538389664   19.398093155   18.205862809
    1.851085142   19.599357357   19.454905680   18.260080096
    1.858263773   19.661024367   19.512341561   18.314900321
    1.865442404   19.723401971   19.570410278   18.370332832
    1.872621035   19.786501749   19.629121468   18.426387206
    1.879799666   19.850335573   19.688484922   18.483073246
    1.886978297   19.914915591   19.748510980   18.540400986
    1.894156928   19.980254191   19.809210318   18.598380690
    1.901335559   20.046363857   19.870593291   18.657022859
    1.908514190   20.113257147   19.932670710   18.716338234
    1.915692821   20.180947960   19.995454204   18.776337873
    1.922871452   20.249451256   20.058955348   18.837033133
    1.930050083   20.318780881   20.123185648   18.898435569
    1.937228715   20.388950810   20.188156907   18.960556995
    1.944407346   20.459975575   20.253881125   19.023409483
    1.951585977   20.531869959   20.320370456   19.087005280
    1.958764608   20.604649465   20.387638211   19.151357047
    1.965943239   20.678331144   20.455698489   19.216478289
    1.973121870   20.752931789   20.524564716   19.282382617
    1.980300501   20.828467919   20.594250609   19.349083798
    1.987479132   20.904956577   20.664770223   19.416595632
    1.994657763   20.982415221   20.736137884   19.484931949
    2.001836394   21.060861651   20.808368357   19.554107633
    2.009015025   21.140315106   20.881477330   19.624139381
    2.016193656   21.220796113   20.955481048   19.695042998
    2.023372287   21.302324413   21.030395696   19.766834024
    2.030550918   21.384919645   21.106237726   19.839528691
    2.037729549   21.468602154   21.183023997   19.913143596
    2.044908180   21.553394184   21.260772111   19.987695870
    2.052086811   21.639319140   21.339500419   20.063204434
    2.059265442   21.726400148   21.419227579   20.139688563
    2.066444073   21.814660320   21.499972494   20.217166826
    2.073622705   21.904123723   21.581754599   20.295658465
    2.080801336   21.994815372   21.664593965   20.375183510
    2.087979967   22.086761149   21.748511577   20.455762580
    2.095158598   22.179987762   21.833528885   20.537416675
    2.102337229   22.274522681   21.919667683   20.620167409
    2.109515860   22.370394425   22.006950766   20.704038350
    2.116694491   22.467632425   22.095401634   20.789053624
    2.123873122   22.566266854   22.185044204   20.875236888
    2.131051753   22.666328815   22.275903139   20.962612622
    2.138230384   22.767850504   22.368003926   21.051206319
    2.145409015   22.870865500   22.461372968   21.141044467
    2.152587646   22.975408408   22.556037480   21.232154385
    2.159766277   23.081514740   22.652025429   21.324564100
    2.166944908   23.189221266   22.749365661   21.418302326
    2.174123539   23.298565955   22.848087921   21.513398416
    2.181302170   23.409588434   22.948223201   21.609884173
    2.188480801   23.522330125   23.049803685   21.707793415
    2.195659432   23.636833287   23.152862231   21.807158994
    2.202838063   23.753141422   23.257432740   21.908014633
    2.210016694   23.871299753   23.363550327   22.010395714
    2.217195326   23.991355989   23.471251520   22.114339130
    2.224373957   24.113359741   23.580574163   22.219883063
    2.231552588   24.237361826   23.691557389   22.327067170
    2.238731219   24.363415042   23.804241824   22.435932762
    2.245909850   24.491574256   23.918669403   22.546522457
    2.253088481   24.621896547   24.034883585   22.658880398
    2.260267112   24.754441332   24.152929504   22.773052445
    2.267445743   24.889270467   24.272854022   22.889086258
    2.274624374   25.026448397   24.394705810   23.007031469
    2.281803005   25.166042282   24.518535438   23.126939761
    2.288981636   25.308122078   24.644395453   23.248864773
    2.296160267   25.452760691   24.772340494   23.372862259
    2.303338898   25.600034116   24.902427411   23.498990192
    2.310517529   25.750021869   25.034715387   23.627309214
    2.317696160   25.902807419   25.169266074   23.757883088
    2.324874791   26.058477642   25.306143707   23.890777845
    2.332053422   26.217123205   25.445415260   24.026062131
    2.339232053   26.378839171   25.587150578   24.163807824
    2.346410684   26.543725113   25.731422444   24.304090098
    2.353589316   26.711885171   25.878306565   24.446987369
    2.360767947   26.883428785   26.027882366   24.592581908
    2.367946578   27.058471584   26.180234456   24.740960658
    2.375125209   27.237134486   26.335450379   24.892214231
    2.382303840   27.419544083   26.493620775   25.046437144
    2.389482471   27.605833878   26.654841274   25.203728905
    2.396661102   27.796144732   26.819212768   25.364194338
    2.403839733   27.990624769   26.986840618   25.527943475
    2.411018364   28.189430195   27.157835304   25.695092042
    2.418196995   28.392726371   27.332312944   25.865761990
    2.425375626   28.600687860   27.510395531   26.040081868
    2.432554257   28.813498956   27.692211949   26.218187549
    2.439732888   29.031354662   27.877897489   26.400222370
    2.446911519   29.254461927   28.067597747   26.586337563
    2.454090150   29.483039926   28.261467402   26.776693018
    2.461268781   29.717321055   28.459665512   26.971458272
    2.468447412   29.957554688   28.662360275   27.170814243
    2.475626043   30.204008119   28.869729654   27.374955198
    2.482804674   30.456963091   29.081961707   27.584085578
    2.489983306   30.716718843   29.299261172   27.798421271
    2.497161937   30.983595929   29.521850327   28.018192917
    2.504340568   31.257937474   29.749958976   28.243646871
    2.511519199   31.540111633   29.983828566   28.475047008
    2.518697830   31.830514772   30.223719237   28.712676502
    2.525876461   32.129572218   30.469909971   28.956838434
    2.533055092   32.437740743   30.722698552   29.207857842
    2.540233723   32.755512838   30.982403814   29.466084236
