# energy grid [eV]     epsr_x  epsr_y  epsr_z
#
    0.200000000   17.750477735    4.285559453   18.049420870
    0.207178631   17.754719507    4.286014886   18.053690632
    0.214357262   17.759113277    4.286486518   18.058113363
    0.221535893   17.763659299    4.286974362   18.062689318
    0.228714524   17.768357836    4.287478434   18.067418759
    0.235893155   17.773209162    4.287998750   18.072301957
    0.243071786   17.778213560    4.288535325   18.077339193
    0.250250417   17.783371321    4.289088177   18.082530758
    0.257429048   17.788682746    4.289657322   18.087876949
    0.264607679   17.794148144    4.290242777   18.093378076
    0.271786311   17.799767837    4.290844562   18.099034456
    0.278964942   17.805542152    4.291462695   18.104846416
    0.286143573   17.811471427    4.292097195   18.110814293
    0.293322204   17.817556011    4.292748082   18.116938431
    0.300500835   17.823796262    4.293415375   18.123219186
    0.307679466   17.830192546    4.294099096   18.129656924
    0.314858097   17.836745240    4.294799267   18.136252019
    0.322036728   17.843454730    4.295515908   18.143004854
    0.329215359   17.850321414    4.296249042   18.149915824
    0.336393990   17.857345697    4.296998693   18.156985331
    0.343572621   17.864527994    4.297764883   18.164213791
    0.350751252   17.871868734    4.298547636   18.171601626
    0.357929883   17.879368350    4.299346978   18.179149269
    0.365108514   17.887027291    4.300162932   18.186857165
    0.372287145   17.894846012    4.300995525   18.194725766
    0.379465776   17.902824981    4.301844783   18.202755537
    0.386644407   17.910964674    4.302710732   18.210946951
    0.393823038   17.919265579    4.303593399   18.219300493
    0.401001669   17.927728194    4.304492813   18.227816659
    0.408180301   17.936353029    4.305409001   18.236495952
    0.415358932   17.945140603    4.306341993   18.245338890
    0.422537563   17.954091445    4.307291817   18.254345999
    0.429716194   17.963206097    4.308258505   18.263517816
    0.436894825   17.972485111    4.309242085   18.272854889
    0.444073456   17.981929050    4.310242591   18.282357779
    0.451252087   17.991538489    4.311260052   18.292027055
    0.458430718   18.001314012    4.312294502   18.301863298
    0.465609349   18.011256217    4.313345973   18.311867102
    0.472787980   18.021365712    4.314414498   18.322039069
    0.479966611   18.031643117    4.315500113   18.332379816
    0.487145242   18.042089062    4.316602850   18.342889969
    0.494323873   18.052704192    4.317722746   18.353570167
    0.501502504   18.063489161    4.318859835   18.364421060
    0.508681135   18.074444636    4.320014155   18.375443311
    0.515859766   18.085571297    4.321185743   18.386637592
    0.523038397   18.096869834    4.322374635   18.398004591
    0.530217028   18.108340951    4.323580869   18.409545005
    0.537395659   18.119985364    4.324804486   18.421259546
    0.544574290   18.131803803    4.326045523   18.433148936
    0.551752922   18.143797007    4.327304021   18.445213911
    0.558931553   18.155965732    4.328580020   18.457455220
    0.566110184   18.168310744    4.329873562   18.469873623
    0.573288815   18.180832824    4.331184688   18.482469894
    0.580467446   18.193532765    4.332513441   18.495244821
    0.587646077   18.206411373    4.333859864   18.508199204
    0.594824708   18.219469470    4.335223999   18.521333857
    0.602003339   18.232707889    4.336605893   18.534649607
    0.609181970   18.246127478    4.338005589   18.548147294
    0.616360601   18.259729099    4.339423133   18.561827774
    0.623539232   18.273513628    4.340858572   18.575691915
    0.630717863   18.287481955    4.342311952   18.589740600
    0.637896494   18.301634984    4.343783321   18.603974726
    0.645075125   18.315973636    4.345272727   18.618395205
    0.652253756   18.330498843    4.346780219   18.633002961
    0.659432387   18.345211556    4.348305846   18.647798937
    0.666611018   18.360112738    4.349849659   18.662784088
    0.673789649   18.375203369    4.351411708   18.677959384
    0.680968280   18.390484443    4.352992045   18.693325813
    0.688146912   18.405956973    4.354590723   18.708884375
    0.695325543   18.421621983    4.356207794   18.724636088
    0.702504174   18.437480518    4.357843311   18.740581985
    0.709682805   18.453533635    4.359497330   18.756723115
    0.716861436   18.469782411    4.361169905   18.773060543
    0.724040067   18.486227937    4.362861092   18.789595352
    0.731218698   18.502871323    4.364570948   18.806328640
    0.738397329   18.519713695    4.366299529   18.823261523
    0.745575960   18.536756196    4.368046894   18.840395133
    0.752754591   18.553999988    4.369813102   18.857730619
    0.759933222   18.571446250    4.371598210   18.875269149
    0.767111853   18.589096178    4.373402281   18.893011909
    0.774290484   18.606950987    4.375225374   18.910960100
    0.781469115   18.625011913    4.377067552   18.929114946
    0.788647746   18.643280206    4.378928876   18.947477684
    0.795826377   18.661757140    4.380809410   18.966049574
    0.803005008   18.680444004    4.382709218   18.984831894
    0.810183639   18.699342109    4.384628364   19.003825939
    0.817362270   18.718452786    4.386566914   19.023033027
    0.824540902   18.737777385    4.388524935   19.042454492
    0.831719533   18.757317276    4.390502493   19.062091691
    0.838898164   18.777073852    4.392499656   19.081946001
    0.846076795   18.797048525    4.394516493   19.102018817
    0.853255426   18.817242728    4.396553073   19.122311558
    0.860434057   18.837657916    4.398609468   19.142825663
    0.867612688   18.858295568    4.400685747   19.163562592
    0.874791319   18.879157182    4.402781983   19.184523828
    0.881969950   18.900244281    4.404898249   19.205710874
    0.889148581   18.921558409    4.407034619   19.227125258
    0.896327212   18.943101135    4.409191166   19.248768529
    0.903505843   18.964874050    4.411367967   19.270642260
    0.910684474   18.986878769    4.413565098   19.292748046
    0.917863105   19.009116934    4.415782636   19.315087509
    0.925041736   19.031590207    4.418020659   19.337662291
    0.932220367   19.054300280    4.420279245   19.360474061
    0.939398998   19.077248867    4.422558476   19.383524514
    0.946577629   19.100437708    4.424858431   19.406815368
    0.953756260   19.123868572    4.427179192   19.430348366
    0.960934891   19.147543252    4.429520843   19.454125281
    0.968113523   19.171463569    4.431883466   19.478147908
    0.975292154   19.195631372    4.434267145   19.502418072
    0.982470785   19.220048536    4.436671968   19.526937624
    0.989649416   19.244716967    4.439098019   19.551708443
    0.996828047   19.269638595    4.441545386   19.576732435
    1.004006678   19.294815370    4.444014158   19.602011532
    1.011185309   19.320249258    4.446504424   19.627547690
    1.018363940   19.345942299    4.449016274   19.653342908
    1.025542571   19.371896607    4.451549800   19.679399232
    1.032721202   19.398114263    4.454105094   19.705718716
    1.039899833   19.424597360    4.456682250   19.732303436
    1.047078464   19.451348038    4.459281361   19.759155507
    1.054257095   19.478368476    4.461902524   19.786277074
    1.061435726   19.505660888    4.464545835   19.813670306
    1.068614357   19.533227525    4.467211392   19.841337424
    1.075792988   19.561070675    4.469899293   19.869280705
    1.082971619   19.589192656    4.472609638   19.897502432
    1.090150250   19.617595824    4.475342528   19.926004914
    1.097328881   19.646282569    4.478098065   19.954790500
    1.104507513   19.675255320    4.480876353   19.983861579
    1.111686144   19.704516543    4.483677495   20.013220578
    1.118864775   19.734068744    4.486501596   20.042869962
    1.126043406   19.763914466    4.489348764   20.072812232
    1.133222037   19.794056294    4.492219106   20.103049930
    1.140400668   19.824496852    4.495112731   20.133585637
    1.147579299   19.855238806    4.498029749   20.164421972
    1.154757930   19.886284864    4.500970272   20.195561597
    1.161936561   19.917637776    4.503934412   20.227007216
    1.169115192   19.949300336    4.506922282   20.258761573
    1.176293823   19.981275383    4.509933998   20.290827457
    1.183472454   20.013565802    4.512969676   20.323207700
    1.190651085   20.046174522    4.516029433   20.355905179
    1.197829716   20.079104520    4.519113389   20.388922817
    1.205008347   20.112358822    4.522221663   20.422263583
    1.212186978   20.145940500    4.525354376   20.455930492
    1.219365609   20.179852678    4.528511653   20.489926609
    1.226544240   20.214098531    4.531693615   20.524255048
    1.233722871   20.248681284    4.534900390   20.558918971
    1.240901503   20.283604216    4.538132104   20.593921594
    1.248080134   20.318870659    4.541388885   20.629266182
    1.255258765   20.354483999    4.544670862   20.664956056
    1.262437396   20.390447681    4.547978167   20.700994587
    1.269616027   20.426765203    4.551310931   20.737385205
    1.276794658   20.463440124    4.554669290   20.774131393
    1.283973289   20.500476060    4.558053378   20.811236694
    1.291151920   20.537876691    4.561463332   20.848704708
    1.298330551   20.575645755    4.564899290   20.886539094
    1.305509182   20.613787055    4.568361392   20.924743573
    1.312687813   20.652304458    4.571849780   20.963321927
    1.319866444   20.691201897    4.575364596   21.002278002
    1.327045075   20.730483371    4.578905986   21.041615708
    1.334223706   20.770152949    4.582474094   21.081339020
    1.341402337   20.810214769    4.586069068   21.121451983
    1.348580968   20.850673039    4.589691059   21.161958709
    1.355759599   20.891532043    4.593340216   21.202863378
    1.362938230   20.932796137    4.597016693   21.244170246
    1.370116861   20.974469754    4.600720644   21.285883639
    1.377295492   21.016557405    4.604452224   21.328007957
    1.384474124   21.059063680    4.608211591   21.370547679
    1.391652755   21.101993250    4.611998905   21.413507360
    1.398831386   21.145350870    4.615814327   21.456891635
    1.406010017   21.189141380    4.619658019   21.500705220
    1.413188648   21.233369704    4.623530148   21.544952915
    1.420367279   21.278040857    4.627430879   21.589639605
    1.427545910   21.323159945    4.631360380   21.634770259
    1.434724541   21.368732165    4.635318822   21.680349938
    1.441903172   21.414762811    4.639306378   21.726383792
    1.449081803   21.461257275    4.643323221   21.772877067
    1.456260434   21.508221048    4.647369528   21.819835099
    1.463439065   21.555659719    4.651445476   21.867263324
    1.470617696   21.603578984    4.655551246   21.915167277
    1.477796327   21.651984645    4.659687019   21.963552595
    1.484974958   21.700882613    4.663852980   22.012425017
    1.492153589   21.750278912    4.668049316   22.061790391
    1.499332220   21.800179679    4.672276213   22.111654673
    1.506510851   21.850591169    4.676533864   22.162023927
    1.513689482   21.901519755    4.680822459   22.212904327
    1.520868114   21.952971930    4.685142195   22.264302139
    1.528046745   22.004954311    4.689493267   22.316223741
    1.535225376   22.057473664    4.693875876   22.368675747
    1.542404007   22.110536891    4.698290222   22.421664906
    1.549582638   22.164151007    4.702736510   22.475197974
    1.556761269   22.218323164    4.707214945   22.529281844
    1.563939900   22.273060652    4.711725737   22.583923565
    1.571118531   22.328370881    4.716269095   22.639130322
    1.578297162   22.384261386    4.720845233   22.694909437
    1.585475793   22.440740017    4.725454367   22.751268428
    1.592654424   22.497814820    4.730096715   22.808214973
    1.599833055   22.555493821    4.734772498   22.865756846
    1.607011686   22.613785211    4.739481939   22.923901981
    1.614190317   22.672697389    4.744225264   22.982658481
    1.621368948   22.732238940    4.749002701   23.042034619
    1.628547579   22.792418636    4.753814483   23.102038838
    1.635726210   22.853245432    4.758660841   23.162679758
    1.642904841   22.914728476    4.763542014   23.223966176
    1.650083472   22.976877107    4.768458241   23.285907074
    1.657262104   23.039700863    4.773409764   23.348511619
    1.664440735   23.103209468    4.778396828   23.411789169
    1.671619366   23.167412869    4.783419680   23.475749285
    1.678797997   23.232321321    4.788478573   23.540401752
    1.685976628   23.297945264    4.793573761   23.605756557
    1.693155259   23.364295310    4.798705499   23.671823888
    1.700333890   23.431382320    4.803874048   23.738614159
    1.707512521   23.499217413    4.809079671   23.806138009
    1.714691152   23.567811963    4.814322636   23.874406299
    1.721869783   23.637177605    4.819603210   23.943430136
    1.729048414   23.707326263    4.824921667   24.013220955
    1.736227045   23.778270132    4.830278284   24.083790426
    1.743405676   23.850021677    4.835673340   24.155150419
    1.750584307   23.922593657    4.841107117   24.227313085
    1.757762938   23.995999142    4.846579902   24.300290871
    1.764941569   24.070251512    4.852091985   24.374096515
    1.772120200   24.145364471    4.857643660   24.448743054
    1.779298831   24.221352057    4.863235223   24.524243831
    1.786477462   24.298228652    4.868866975   24.600612513
    1.793656093   24.376008993    4.874539222   24.677863092
    1.800834725   24.454708184    4.880252271   24.756009892
    1.808013356   24.534341706    4.886006434   24.835067586
    1.815191987   24.614925433    4.891802028   24.915051205
    1.822370618   24.696475642    4.897639373   24.995976153
    1.829549249   24.779009031    4.903518793   25.077858216
    1.836727880   24.862542725    4.909440616   25.160713576
    1.843906511   24.947094296    4.915405171   25.244558822
    1.851085142   25.032681783    4.921412797   25.329410966
    1.858263773   25.119323722    4.927463838   25.415287456
    1.865442404   25.207039132    4.933558639   25.502206186
    1.872621035   25.295847535    4.939697547   25.590185515
    1.879799666   25.385768993    4.945880917   25.679244305
    1.886978297   25.476824119    4.952109113   25.769401918
    1.894156928   25.569034098    4.958382495   25.860678210
    1.901335559   25.662420717    4.964701432   25.953093584
    1.908514190   25.757006384    4.971066297   26.046669008
    1.915692821   25.852814136    4.977477468   26.141426015
    1.922871452   25.949867675    4.983935329   26.237386731
    1.930050083   26.048191396    4.990440269   26.334573905
    1.937228715   26.147810403    4.996992680   26.433010924
    1.944407346   26.248750531    5.003592962   26.532721829
    1.951585977   26.351038321    5.010241517   26.633731324
    1.958764608   26.454701006    5.016938750   26.736064823
    1.965943239   26.559766764    5.023685065   26.839748578
    1.973121870   26.666265110    5.030480884   26.944809726
    1.980300501   26.774226496    5.037326655   27.051275971
    1.987479132   26.883681812    5.044222800   27.159175714
    1.994657763   26.994662864    5.051169763   27.268538607
    2.001836394   27.107202633    5.058168014   27.379395423
    2.009015025   27.221335185    5.065217996   27.491777420
    2.016193656   27.337095722    5.072320153   27.605716800
    2.023372287   27.454520632    5.079474943   27.721246879
    2.030550918   27.573647538    5.086682839   27.838402077
    2.037729549   27.694515329    5.093944316   27.957217943
    2.044908180   27.817164183    5.101259860   28.077731146
    2.052086811   27.941635595    5.108629962   28.199979434
    2.059265442   28.067972711    5.116055119   28.324002059
    2.066444073   28.196220560    5.123535842   28.449840026
    2.073622705   28.326425430    5.131072642   28.577535263
    2.080801336   28.458635130    5.138666039   28.707130965
    2.087979967   28.592899326    5.146316562   28.838671954
    2.095158598   28.729269600    5.154024747   28.972204712
    2.102337229   28.867799517    5.161791143   29.107777433
    2.109515860   29.008544697    5.169616303   29.245440034
    2.116694491   29.151562928    5.177500790   29.385244268
    2.123873122   29.296914290    5.185445178   29.527243829
    2.131051753   29.444661245    5.193450039   29.671494414
    2.138230384   29.594868722    5.201515924   29.818053767
    2.145409015   29.747604197    5.209643319   29.966981723
    2.152587646   29.902938131    5.217832754   30.118340623
    2.159766277   30.060944351    5.226084926   30.272195719
    2.166944908   30.221699370    5.234400545   30.428614568
    2.174123539   30.385283011    5.242780254   30.587667481
    2.181302170   30.551779383    5.251224833   30.749428130
    2.188480801   30.721275968    5.259735085   30.913972776
    2.195659432   30.893863426    5.268311410   31.081380352
    2.202838063   31.069636846    5.276954289   31.251733302
    2.210016694   31.248696703    5.285664599   31.425118658
    2.217195326   31.431148306    5.294443250   31.601627788
    2.224373957   31.617101358    5.303290897   31.781355271
    2.231552588   31.806670691    5.312208116   31.964399497
    2.238731219   31.999976862    5.321195520   32.150863362
    2.245909850   32.197147321    5.330253886   32.340855489
    2.253088481   32.398316899    5.339384156   32.534490545
    2.260267112   32.603626541    5.348587105   32.731887745
    2.267445743   32.813224417    5.357863448   32.933171875
    2.274624374   33.027267046    5.367213956   33.138474264
    2.281803005   33.245919755    5.376639429   33.347933085
    2.288981636   33.469357411    5.386140699   33.561693904
    2.296160267   33.697765262    5.395718642   33.779910258
    2.303338898   33.931339273    5.405374106   34.002743646
    2.310517529   34.170287094    5.415107919   34.230364187
    2.317696160   34.414829224    5.424920979   34.462952122
    2.324874791   34.665200062    5.434814292   34.700698975
    2.332053422   34.921648907    5.444788773   34.943806493
    2.339232053   35.184441118    5.454845259   35.192487992
    2.346410684   35.453859740    5.464984585   35.446969916
    2.353589316   35.730208332    5.475207859   35.707493094
    2.360767947   36.013811603    5.485516351   35.974314243
    2.367946578   36.305016267    5.495911026   36.247706292
    2.375125209   36.604194861    5.506392821   36.527959898
    2.382303840   36.911747797    5.516962765   36.815385524
    2.389482471   37.228106146    5.527621966   37.110315247
    2.396661102   37.553734870    5.538371544   37.413104684
    2.403839733   37.889136362    5.549212634   37.724135235
    2.411018364   38.234854530    5.560146398   38.043816558
    2.418196995   38.591479407    5.571174031   38.372589463
    2.425375626   38.959652400    5.582296756   38.710929142
    2.432554257   39.340072280    5.593515826   39.059348772
    2.439732888   39.733502042    5.604832525   39.418403581
    2.446911519   40.140776842    5.616248167   39.788695546
    2.454090150   40.562813138    5.627764106   40.170878718
    2.461268781   41.000619197    5.639381730   40.565665239
    2.468447412   41.455307345    5.651102465   40.973832248
    2.475626043   41.928108370    5.662927779   41.396229925
    2.482804674   42.420388893    5.674859186   41.833791352
    2.489983306   42.933671006    5.686898246   42.287543118
    2.497161937   43.469654952    5.699046571   42.758616927
    2.504340568   44.030247621    5.711305827   43.248264759
    2.511519199   44.617596244    5.723677743   43.757876404
    2.518697830   45.234128423    5.736164111   44.288999802
    2.525876461   45.882600602    5.748766798   44.843365145
    2.533055092   46.566157299    5.761487752   45.422913757
    2.540233723   47.288403589    5.774329010   46.029832779
